Potential V vs RHE, Current mA cm-2
0.013299999999999867,23.852032515724517
0.012299999999999978,21.885583808912116
0.011299999999999866,20.569902300037633
0.010299999999999976,19.098602548177997
0.009299999999999864,17.839509491298113
0.008299999999999974,16.778476016399335
0.007299999999999862,15.505235846520803
0.006299999999999972,14.62811484060448
0.00529999999999986,13.511907625010965
0.0042999999999999705,12.555562786302202
0.0032999999999998586,11.733615521080614
0.0022999999999999687,10.652776087983725
0.0012999999999998568,9.959567551049858
0.00029999999999996696,9.004637423640958
-0.000700000000000145,8.195422560118157
-0.0017000000000000348,7.512117002283345
-0.0027000000000001467,6.557186874874445
-0.0037000000000000366,5.984228798429105
-0.0047000000000001485,5.1467197089090035
-0.005700000000000038,4.447852326775675
-0.00670000000000015,3.852258869532495
-0.00770000000000004,2.996358533114148
-0.008700000000000152,2.50828313466071
-0.009700000000000042,1.734436053634535
-0.010700000000000154,1.0898935854160243
-0.011700000000000044,0.5561230119769459
-0.012700000000000156,-0.24050092097705625
-0.013700000000000045,-0.6646313686765942
-0.014700000000000157,-1.3956126973168586
-0.015700000000000047,-1.963619284212671
-0.01670000000000016,-2.451694682666109
-0.01770000000000005,-3.201491671594578
-0.01870000000000016,-3.572146032159218
-0.01970000000000005,-4.25545158999403
-0.020700000000000163,-4.790212461343015
-0.021700000000000053,-5.231602386900906
-0.022700000000000164,-5.955934572431804
-0.023700000000000054,-6.292635861799683
-0.024700000000000166,-6.94623248233733
-0.025700000000000056,-7.456943261588608
-0.026700000000000168,-7.865794827249602
-0.027700000000000058,-8.554759230283878
-0.02870000000000017,-8.87023985015378
-0.02970000000000006,-9.49695695599399
-0.03070000000000017,-9.994935333546485
-0.03170000000000006,-10.382566229709504
-0.03270000000000017,-11.046065829346206
-0.03370000000000006,-11.329008089319213
-0.034700000000000175,-11.954310483859562
-0.035700000000000065,-12.422579924114888
-0.03670000000000018,-12.807381397678178
-0.03770000000000007,-13.444001482617443
-0.03870000000000018,-13.753823257287888
-0.03970000000000007,-14.331025467632822
-0.04070000000000018,-14.797880196588284
-0.04170000000000007,-15.165705134553193
-0.04270000000000018,-15.816472332491113
-0.04370000000000007,-16.099414592464115
-0.044700000000000184,-16.679446225408782
-0.045700000000000074,-17.118006728366943
-0.046700000000000186,-17.48583166633185
-0.047700000000000076,-18.13659886426977
-0.04870000000000019,-18.433688237241427
-0.04970000000000008,-19.056161209182044
-0.05070000000000019,-19.49472171214021
-0.05170000000000008,-19.848399537106463
-0.05270000000000019,-20.456725396048434
-0.05370000000000008,-20.73966765602144
-0.05470000000000019,-21.362140627962056
-0.05570000000000008,-21.843142469916167
-0.056700000000000195,-22.225114520879725
-0.057700000000000085,-22.890028831816295
-0.058700000000000196,-23.15882397879065
-0.059700000000000086,-23.753002724733967
-0.0607000000000002,-24.17741611469348
-0.06170000000000009,-24.545241052658387
-0.0627000000000002,-25.196008250596304
-0.06370000000000009,-25.45065628457201
-0.0647000000000002,-26.030687917516673
-0.06570000000000009,-26.469248420474838
-0.0667000000000002,-26.822926245441096
-0.0677000000000001,-27.473693443379013
-0.0687000000000002,-27.742488590353368
-0.0697000000000001,-28.336667336296685
-0.07070000000000021,-28.775227839254843
-0.0717000000000001,-29.14305277721976
-0.07270000000000021,-29.80796708815632
-0.0737000000000001,-30.09090934812933
-0.07470000000000021,-30.656793868075347
-0.0757000000000001,-31.109501484032155
-0.07670000000000021,-31.47732642199707
-0.0777000000000001,-32.11394650693633
-0.07870000000000021,-32.38274165391069
-0.0797000000000001,-32.96277328685535
-0.08070000000000022,-33.40133378981351
-0.0817000000000001,-33.79745295377573
-0.08270000000000022,-34.47651437771095
-0.08370000000000011,-34.787750863681254
-0.08470000000000022,-35.41022383562187
-0.08570000000000011,-35.806342999584075
-0.08670000000000022,-36.14587371155169
-0.08770000000000011,-36.768346683492304
-0.08870000000000022,-37.06543605646396
-0.08970000000000011,-37.73035036740053
-0.09070000000000022,-38.16891087035869
-0.09170000000000011,-38.5367358083236
-0.09270000000000023,-39.173355893262865
-0.09370000000000012,-39.47044526623452
-0.09470000000000023,-40.12121246417244
-0.09570000000000012,-40.5880671931279
-0.09670000000000023,-40.94174501809416
-0.09770000000000012,-41.57836510303343
-0.09870000000000023,-41.87545447600508
-0.09970000000000012,-42.540368786941656
-0.10070000000000023,-43.03551774189442
-0.10170000000000012,-43.40334267985933
-0.10270000000000024,-44.054109877797245
-0.10370000000000013,-44.3229050247716
-0.10470000000000024,-44.88878954471762
-0.10570000000000013,-45.34149716067443
-0.10670000000000024,-45.75176343763528
-0.10770000000000013,-46.41667774857186
-0.10870000000000024,-46.75620846053947
-0.10970000000000013,-47.39282854547873
-0.11070000000000024,-47.87383038743284
-0.11170000000000013,-48.2275082123991
-0.11270000000000002,-48.83583407134107
-0.11370000000000013,-49.14707055731138
-0.11470000000000002,-49.81198486824794
-0.11570000000000014,-50.40616361419126
-0.11670000000000003,-50.81642989115212
-0.11770000000000014,-51.43890286309273
-0.11870000000000003,-51.72184512306574
-0.11970000000000014,-52.34431809500636
-0.12070000000000003,-52.853614162957776
-0.12170000000000014,-53.22143910092268
-0.12270000000000003,-53.82976495986464
-0.12370000000000014,-54.1268543328363
-0.12470000000000003,-54.791768643772876
-0.12570000000000014,-55.28691759872564
-0.12670000000000003,-55.68303676268785
-0.12770000000000015,-56.39039241262036
-0.12870000000000004,-56.72992312458797
-0.12970000000000015,-57.43727877452049
-0.13070000000000004,-57.904133503475954
-0.13170000000000015,-58.18707576344896
-0.13270000000000004,-58.82369584838823
-0.13370000000000015,-59.14907944735718
-0.13470000000000004,-59.89887643628565
-0.13570000000000015,-60.37987827823977
-0.13670000000000004,-60.67696765121143
-0.13770000000000016,-61.28529351015339
-0.13870000000000005,-61.5965299961237
-0.13970000000000016,-62.24729719406162
-0.14070000000000005,-62.75659326201302
-0.14170000000000016,-63.16685953897389
-0.14270000000000005,-63.874215188906405
-0.14370000000000016,-64.27033435286862
-0.14470000000000005,-64.97769000280114
-0.14570000000000016,-65.38795627976201
-0.14670000000000005,-65.93969368670936
-0.14770000000000016,-66.73193201463377
-0.14870000000000005,-67.128051178596
-0.14970000000000017,-67.76467126353526
-0.15070000000000006,-68.04761352350828
-0.15170000000000017,-68.42958557447183
-0.15270000000000006,-69.20767678939758
-0.15370000000000017,-69.64623729235576
-0.15470000000000006,-70.25456315129772
-0.15570000000000017,-70.60824097626397
-0.15670000000000006,-71.0043601402262
-0.15770000000000017,-71.76830424215332
-0.15870000000000006,-72.22101185811013
-0.15970000000000018,-72.94251462104128
-0.16070000000000007,-73.3952222369981
-0.16170000000000018,-73.77719428796166
-0.16270000000000007,-74.48454993789417
-0.16370000000000018,-74.8806691018564
-0.16470000000000007,-75.61631897778622
-0.16570000000000018,-76.06902659374302
-0.16670000000000007,-76.47929287070389
-0.16770000000000018,-77.22908985963235
-0.16870000000000007,-77.55447345860131
-0.16970000000000018,-78.23353488253653
-0.17070000000000007,-78.79941940248254
-0.17170000000000019,-79.30871547043395
-0.17270000000000008,-80.10095379835838
-0.1737000000000002,-80.61024986630979
-0.17470000000000008,-81.45907664622881
-0.1757000000000002,-81.91178426218562
-0.17670000000000008,-82.27960920015053
-0.1777000000000002,-83.04355330207765
-0.17870000000000008,-83.51040803103311
-0.1797000000000002,-84.14702811597239
-0.18070000000000008,-84.58558861893054
-0.1817000000000002,-85.0241491218887
-0.18270000000000008,-85.83053456281178
-0.1837000000000002,-86.26909506576993
-0.1847000000000001,-86.94815648970517
-0.1857000000000002,-87.34427565366735
-0.1867000000000001,-87.81113038262282
-0.1877000000000002,-88.63166293654454
-0.1887000000000001,-89.11266477849867
-0.1897000000000002,-89.90490310642309
-0.1907000000000001,-90.5839645303583
-0.1917000000000001,-91.10740771130837
-0.19269999999999998,-91.77232202224494
-0.1937000000000001,-92.15429407320849
-0.19469999999999998,-92.88994394913831
-0.1957000000000001,-93.44168135608567
-0.19669999999999999,-94.07830144102493
-0.1977000000000001,-94.85639265595071
-0.1987,-95.26665893291157
-0.1997000000000001,-95.98816169584275
-0.2007,-96.58234044178606
-0.2017000000000001,-97.11993073573475
-0.2027,-97.81313927266864
-0.2037000000000001,-98.13852287163759
-0.2047,-98.90246697356471
-0.2057000000000001,-99.70885241448778
-0.2067,-100.34547249942706
-0.2077000000000001,-100.93965124537037
-0.2087,-101.10941660135417
-0.2097000000000001,-101.84506647728399
-0.2107,-102.53827501421786
-0.2117000000000001,-103.23148355115173
-0.2127,-104.1793401220613
-0.2137000000000001,-104.67448907701407
-0.2147,-105.38184472694657
-0.2157000000000001,-105.91943502089529
-0.2167,-106.48531954084132
-0.21770000000000012,-107.27755786876574
-0.2187,-107.64538280673065
-0.21970000000000012,-108.35273845666316
-0.2207,-108.93277008960783
-0.22170000000000012,-109.61183151354304
-0.2227,-110.5879823104499
-0.22370000000000012,-110.91336590941887
-0.2247,-111.5924273333541
-0.22570000000000012,-112.13001762730282
-0.2267,-112.66760792125153
-0.22770000000000012,-113.45984624917594
-0.22870000000000001,-113.81352407414221
-0.22970000000000013,-114.64820374106257
-0.23070000000000002,-115.19994114800993
-0.23170000000000013,-115.73753144195865
-0.23270000000000002,-116.51562265688442
-0.23370000000000013,-117.01077161183719
-0.23470000000000002,-117.8030099397616
-0.23570000000000013,-118.31230600771303
-0.23670000000000002,-118.68013094567793
-0.2376999999999999,-119.4582221606037
-0.23870000000000002,-120.09484224554296
-0.2396999999999999,-121.02855170345389
-0.24070000000000003,-121.46711220641204
-0.24169999999999991,-121.79249580538101
-0.24270000000000003,-122.37252743832566
-0.24369999999999992,-122.86767639327843
-0.24470000000000003,-123.63162049520555
-0.24569999999999992,-124.09847522416102
-0.24670000000000003,-124.62191840511109
-0.24769999999999992,-125.45659807203144
-0.24870000000000003,-125.92345280098691
-0.24969999999999992,-126.68739690291403
-0.25070000000000003,-127.04107472788029
-0.2516999999999999,-127.52207656983438
-0.25270000000000004,-128.18699088077096
-0.2536999999999999,-128.469933140744
-0.25470000000000004,-129.1489945646792
-0.2556999999999999,-129.68658485862792
-0.25670000000000004,-130.11099824858744
-0.25769999999999993,-130.70517699453075
-0.25870000000000004,-130.8890894635132
-0.25969999999999993,-131.3135028534727
-0.26070000000000004,-131.68132779143764
-0.26169999999999993,-132.07744695539984
-0.26270000000000004,-132.84139105732694
-0.26369999999999993,-133.23751022128917
-0.26470000000000005,-133.94486587122168
-0.26569999999999994,-134.35513214818255
-0.26670000000000005,-134.7936926511407
-0.26769999999999994,-135.47275407507593
-0.26870000000000005,-135.62837231806108
-0.26969999999999994,-136.13766838601245
-0.27070000000000005,-136.46305198498143
-0.27169999999999994,-136.83087692294635
-0.27270000000000005,-137.4674970078856
-0.27369999999999994,-137.53823257287885
-0.27470000000000006,-138.00508730183432
-0.27569999999999995,-138.25973533581003
-0.27670000000000006,-138.52853048278442
-0.27769999999999995,-139.10856211572906
-0.27870000000000006,-139.15100345472501
-0.27969999999999995,-139.6037110706818
-0.28070000000000006,-139.9432417826494
-0.28169999999999995,-140.25447826861972
-0.28270000000000006,-140.96183391855226
-0.28369999999999995,-141.3721001955131
-0.28470000000000006,-141.75407224647665
-0.28569999999999995,-141.61260111649017
-0.28670000000000007,-141.75407224647665
-0.28769999999999996,-142.31995676642268
-0.28870000000000007,-142.6028990263957
-0.28969999999999996,-143.0273124163552
-0.29070000000000007,-143.16878354634173
-0.29169999999999996,-143.16878354634173
-0.29270000000000007,-143.4517258063147
-0.29369999999999996,-143.4517258063147
-0.2947000000000001,-143.87613919627424
-0.29569999999999996,-144.01761032626072
-0.2967000000000001,-144.15908145624724
-0.29769999999999996,-144.15908145624724
-0.2987000000000001,-144.01761032626072
-0.29969999999999997,-144.44202371622026
-0.3007000000000001,-144.44202371622026
-0.30169999999999997,-144.72496597619326
-0.3027000000000001,-145.14937936615277
-0.30369999999999997,-145.00790823616626
-0.3047000000000001,-145.00790823616626
-0.30569999999999997,-144.86643710617977
-0.3067000000000001,-144.86643710617977
-0.3077,-145.00790823616626
-0.3087000000000001,-144.86643710617977
-0.3097,-145.00790823616626
-0.3107000000000001,-145.00790823616626
-0.3117,-145.00790823616626
-0.3127000000000001,-145.29085049613926
-0.3137,-145.00790823616626
-0.3147000000000001,-145.14937936615277
-0.3157,-145.00790823616626
-0.3167000000000001,-145.00790823616626
-0.3177,-145.14937936615277
-0.3187000000000001,-145.00790823616626
-0.3197,-145.14937936615277
-0.3207000000000001,-145.14937936615277
-0.3217,-145.00790823616626
-0.3227000000000001,-145.14937936615277
-0.3237,-144.58349484620675
-0.3247000000000001,-144.58349484620675
-0.3257,-144.58349484620675
-0.3267000000000001,-144.30055258623375
-0.3277,-144.30055258623375
-0.3287000000000001,-144.01761032626072
-0.3297,-144.01761032626072
-0.3307000000000001,-143.87613919627424
-0.3317,-143.73466806628772
-0.3327000000000001,-144.01761032626072
-0.3337,-143.87613919627424
-0.3347000000000001,-143.87613919627424
-0.3357,-143.4517258063147
-0.3367000000000001,-142.8858412863687
-0.3377,-142.7443701563822
-0.3387000000000001,-142.31995676642268
-0.3397,-142.6028990263957
-0.3407000000000001,-142.7443701563822
-0.3417,-142.6028990263957
-0.3427000000000001,-142.4614278964092
-0.3437,-142.03701450644968
-0.3447000000000001,-142.03701450644968
-0.3457,-141.89554337646317
-0.3467000000000001,-141.75407224647665
-0.3477,-142.03701450644968
-0.3487000000000001,-141.75407224647665
-0.3497,-141.89554337646317
-0.3507000000000001,-141.75407224647665
-0.3517,-141.61260111649017
-0.3527000000000001,-141.75407224647665
-0.3537,-141.47112998650366
-0.3547000000000001,-141.75407224647665
-0.3557,-141.47112998650366
-0.35670000000000013,-141.41454153450906
-0.3577,-141.61260111649017
-0.35870000000000013,-141.47112998650366
-0.3597,-141.61260111649017
-0.36070000000000013,-141.61260111649017
-0.3617,-141.61260111649017
-0.3626999999999999,-141.89554337646317
-0.3637,-141.75407224647665
-0.3646999999999999,-141.89554337646317
-0.3657,-141.89554337646317
-0.3666999999999999,-141.89554337646317
-0.3677,-142.17848563643616
-0.3686999999999999,-142.03701450644968
-0.36970000000000003,-142.17848563643616
-0.3706999999999999,-142.31995676642268
-0.37170000000000003,-142.31995676642268
-0.3726999999999999,-142.7443701563822
-0.37370000000000003,-142.6028990263957
-0.3746999999999999,-142.8858412863687
-0.37570000000000003,-142.8858412863687
-0.3766999999999999,-142.8858412863687
-0.37770000000000004,-143.3102546763282
-0.3786999999999999,-143.4517258063147
-0.37970000000000004,-143.87613919627424
-0.3806999999999999,-144.01761032626072
-0.38170000000000004,-144.30055258623375
-0.38269999999999993,-144.72496597619326
-0.38370000000000004,-144.72496597619326
-0.38469999999999993,-145.14937936615277
-0.38570000000000004,-145.14937936615277
-0.38669999999999993,-143.5931969363012
-0.38570000000000004,-139.97153600864672
-0.38469999999999993,-136.47719909798008
-0.38370000000000004,-133.78924762823652
-0.38269999999999993,-131.03056059349967
-0.38170000000000004,-128.21528510676828
-0.3806999999999999,-125.8102758969977
-0.37970000000000004,-122.96670618426899
-0.3786999999999999,-120.68902099148629
-0.37770000000000004,-118.29815889471436
-0.3766999999999999,-115.97803236293572
-0.37570000000000003,-113.89840675213411
-0.3746999999999999,-111.71975135034194
-0.37370000000000003,-109.76744975652821
-0.3726999999999999,-107.48976456374548
-0.37170000000000003,-105.31110916195333
-0.3706999999999999,-103.47198447212878
-0.36970000000000003,-101.39235886132718
-0.3686999999999999,-99.80788220547834
-0.3677,-97.96875751565379
-0.3666999999999999,-96.0871914868333
-0.3657,-94.38953792699526
-0.3646999999999999,-92.4938247851761
-0.3637,-91.00837792031781
-0.3626999999999999,-89.28243013448247
-0.3617,-87.58477657464444
-0.36070000000000013,-86.17006527477939
-0.3597,-84.42997037594539
-0.35870000000000013,-83.01525907608035
-0.3577,-81.3458997422396
-0.35670000000000013,-79.7472759733921
-0.3557,-78.51647714250953
-0.3547000000000001,-76.9037062606634
-0.3537,-75.50314207379701
-0.3527000000000001,-73.96110675694412
-0.3517,-72.53224834408043
-0.3507000000000001,-71.41462641718705
-0.3497,-69.8018555353409
-0.3487000000000001,-68.62764515645293
-0.3477,-67.128051178596
-0.3467000000000001,-65.71333987873095
-0.3457,-64.52498238684433
-0.3447000000000001,-63.02538840898739
-0.3437,-61.936060708091304
-0.3427000000000001,-60.64867342521412
-0.3417,-59.31884480334099
-0.3407000000000001,-58.22951710244491
-0.3397,-56.81480580257987
-0.3387000000000001,-55.76791944067975
-0.3377,-54.551267722795814
-0.3367000000000001,-53.362910230909186
-0.3357,-52.386759434002315
-0.3347000000000001,-50.92960679514132
-0.3337,-50.038338676226346
-0.3327000000000001,-48.96315808832892
-0.3317,-47.74650637044499
-0.3307000000000001,-46.74206134754081
-0.3297,-45.39808561266902
-0.3287000000000001,-44.634141510741905
-0.3277,-43.61554937483908
-0.3267000000000001,-42.42719188295245
-0.3257,-41.45104108604558
-0.3247000000000001,-40.24853648116029
-0.3237,-39.47044526623452
-0.3227000000000001,-38.46600024333035
-0.3217,-37.41911388143023
-0.3207000000000001,-36.584434214509855
-0.3197,-35.45266517461782
-0.3187000000000001,-34.6887210726907
-0.3177,-33.698423162785176
-0.3167000000000001,-32.70812525287965
-0.3157,-31.94418115095253
-0.3147000000000001,-30.854853450056453
-0.3137,-30.147497800123933
-0.3127000000000001,-29.199641229214354
-0.3117,-28.308373110299385
-0.3107000000000001,-27.64345879936282
-0.3097,-26.61071955046134
-0.3087000000000001,-25.931658126526123
-0.3077,-25.012095781613848
-0.3067000000000001,-24.149121888696175
-0.30569999999999997,-23.51250180375691
-0.3047000000000001,-22.536351006850033
-0.30369999999999997,-21.92802514790807
-0.3027000000000001,-21.050904141991744
-0.30169999999999997,-20.230371588070028
-0.3007000000000001,-19.636192842126707
-0.29969999999999997,-18.645894932221182
-0.2987000000000001,-18.06586329927652
-0.29769999999999996,-17.259477858353446
-0.2967000000000001,-16.52382798242363
-0.29569999999999996,-15.986237688474914
-0.2947000000000001,-15.080822456561293
-0.29369999999999996,-14.557379275611227
-0.29270000000000007,-13.783532194585053
-0.29169999999999996,-13.037979339556179
-0.29070000000000007,-12.53009798290463
-0.28969999999999996,-11.665709378687092
-0.28870000000000007,-11.171975135034195
-0.28769999999999996,-10.461790062501947
-0.28670000000000007,-9.764337391668482
-0.28569999999999995,-9.279091415814774
-0.28470000000000006,-8.44299703759454
-0.28369999999999995,-7.990289421637726
-0.28270000000000006,-7.32254568810143
-0.28169999999999995,-6.6689490675637835
-0.28070000000000006,-6.227559142005892
-0.27969999999999995,-5.4423943705807964
-0.27870000000000006,-5.01090742412196
-0.27769999999999995,-4.358725514884178
-0.27670000000000006,-3.7390819655432916
-0.27569999999999995,-3.317497998183511
-0.27470000000000006,-2.5634568753554463
-0.27369999999999994,-2.1659230000933714
-0.27270000000000005,-1.55052358465208
-0.27169999999999994,-0.9603060303483869
-0.27070000000000005,-0.5712604228855018
-0.26969999999999994,0.1622673860945197
-0.26870000000000005,0.519340518180455
-0.26769999999999994,1.1177633980233654
-0.26670000000000005,1.701897693737639
