Mar. 30, 2025   00:25:35
Linear Sweep Voltammetry
File: c:/users/guazh/data/banditlqround7_x0exp518_r20/2025-03-28-exp984\regeneratedgce-2025-03-30t00_21_01-lsvinkoh\regeneratedgce_lsv_50mvs_efin_-1900mv.bin
Data Source:  Experiment
Instrument Model:  CHI760E
Header: LSV ran at 50 mVs with Efin at -1900mV
Note: 

Init E (V) = -0.6
Final E (V) = -1.9
Scan Rate (V/s) = 0.05
Sample Interval (V) = 0.001
Quiet Time (sec) = 2
Sensitivity (A/V) = 1e-4
Comp R (ohm) = 1.9

Results:

Channel 1:
Ep = -1.808V
ip = 9.975e-4A
Ah = 6.799e-4C

Potential/V, Current/A

-0.600, 8.710e-8
-0.601, 2.079e-7
-0.602, 2.419e-7
-0.603, 2.576e-7
-0.604, 2.712e-7
-0.605, 2.819e-7
-0.606, 2.942e-7
-0.607, 3.028e-7
-0.608, 3.110e-7
-0.609, 3.182e-7
-0.610, 3.259e-7
-0.611, 3.334e-7
-0.612, 3.395e-7
-0.613, 3.436e-7
-0.614, 3.522e-7
-0.615, 3.592e-7
-0.616, 3.646e-7
-0.617, 3.706e-7
-0.618, 3.753e-7
-0.619, 3.792e-7
-0.620, 3.846e-7
-0.621, 3.912e-7
-0.622, 3.966e-7
-0.623, 3.995e-7
-0.624, 4.049e-7
-0.625, 4.101e-7
-0.626, 4.145e-7
-0.627, 4.199e-7
-0.628, 4.240e-7
-0.629, 4.274e-7
-0.630, 4.332e-7
-0.631, 4.377e-7
-0.632, 4.419e-7
-0.633, 4.452e-7
-0.634, 4.494e-7
-0.635, 4.545e-7
-0.636, 4.582e-7
-0.637, 4.612e-7
-0.638, 4.649e-7
-0.639, 4.695e-7
-0.640, 4.732e-7
-0.641, 4.789e-7
-0.642, 4.821e-7
-0.643, 4.865e-7
-0.644, 4.893e-7
-0.645, 4.914e-7
-0.646, 4.988e-7
-0.647, 5.012e-7
-0.648, 5.041e-7
-0.649, 5.093e-7
-0.650, 5.109e-7
-0.651, 5.167e-7
-0.652, 5.202e-7
-0.653, 5.237e-7
-0.654, 5.272e-7
-0.655, 5.305e-7
-0.656, 5.347e-7
-0.657, 5.384e-7
-0.658, 5.407e-7
-0.659, 5.434e-7
-0.660, 5.480e-7
-0.661, 5.515e-7
-0.662, 5.562e-7
-0.663, 5.572e-7
-0.664, 5.614e-7
-0.665, 5.649e-7
-0.666, 5.710e-7
-0.667, 5.730e-7
-0.668, 5.749e-7
-0.669, 5.773e-7
-0.670, 5.803e-7
-0.671, 5.852e-7
-0.672, 5.885e-7
-0.673, 5.908e-7
-0.674, 5.921e-7
-0.675, 5.972e-7
-0.676, 6.013e-7
-0.677, 6.042e-7
-0.678, 6.062e-7
-0.679, 6.100e-7
-0.680, 6.139e-7
-0.681, 6.177e-7
-0.682, 6.197e-7
-0.683, 6.224e-7
-0.684, 6.251e-7
-0.685, 6.289e-7
-0.686, 6.330e-7
-0.687, 6.348e-7
-0.688, 6.379e-7
-0.689, 6.412e-7
-0.690, 6.439e-7
-0.691, 6.501e-7
-0.692, 6.531e-7
-0.693, 6.536e-7
-0.694, 6.574e-7
-0.695, 6.605e-7
-0.696, 6.638e-7
-0.697, 6.674e-7
-0.698, 6.693e-7
-0.699, 6.715e-7
-0.700, 6.747e-7
-0.701, 6.776e-7
-0.702, 6.817e-7
-0.703, 6.823e-7
-0.704, 6.869e-7
-0.705, 6.894e-7
-0.706, 6.929e-7
-0.707, 6.965e-7
-0.708, 6.982e-7
-0.709, 7.013e-7
-0.710, 7.049e-7
-0.711, 7.084e-7
-0.712, 7.104e-7
-0.713, 7.132e-7
-0.714, 7.157e-7
-0.715, 7.192e-7
-0.716, 7.228e-7
-0.717, 7.256e-7
-0.718, 7.287e-7
-0.719, 7.296e-7
-0.720, 7.326e-7
-0.721, 7.382e-7
-0.722, 7.392e-7
-0.723, 7.413e-7
-0.724, 7.450e-7
-0.725, 7.466e-7
-0.726, 7.519e-7
-0.727, 7.534e-7
-0.728, 7.553e-7
-0.729, 7.593e-7
-0.730, 7.608e-7
-0.731, 7.658e-7
-0.732, 7.672e-7
-0.733, 7.684e-7
-0.734, 7.720e-7
-0.735, 7.753e-7
-0.736, 7.794e-7
-0.737, 7.820e-7
-0.738, 7.826e-7
-0.739, 7.864e-7
-0.740, 7.893e-7
-0.741, 7.917e-7
-0.742, 7.964e-7
-0.743, 7.979e-7
-0.744, 7.999e-7
-0.745, 8.041e-7
-0.746, 8.073e-7
-0.747, 8.100e-7
-0.748, 8.120e-7
-0.749, 8.149e-7
-0.750, 8.175e-7
-0.751, 8.213e-7
-0.752, 8.231e-7
-0.753, 8.265e-7
-0.754, 8.277e-7
-0.755, 8.312e-7
-0.756, 8.367e-7
-0.757, 8.384e-7
-0.758, 8.412e-7
-0.759, 8.436e-7
-0.760, 8.453e-7
-0.761, 8.500e-7
-0.762, 8.521e-7
-0.763, 8.554e-7
-0.764, 8.562e-7
-0.765, 8.592e-7
-0.766, 8.643e-7
-0.767, 8.648e-7
-0.768, 8.694e-7
-0.769, 8.728e-7
-0.770, 8.736e-7
-0.771, 8.783e-7
-0.772, 8.801e-7
-0.773, 8.825e-7
-0.774, 8.858e-7
-0.775, 8.883e-7
-0.776, 8.914e-7
-0.777, 8.947e-7
-0.778, 8.957e-7
-0.779, 8.990e-7
-0.780, 9.012e-7
-0.781, 9.071e-7
-0.782, 9.089e-7
-0.783, 9.106e-7
-0.784, 9.129e-7
-0.785, 9.164e-7
-0.786, 9.185e-7
-0.787, 9.222e-7
-0.788, 9.257e-7
-0.789, 9.260e-7
-0.790, 9.303e-7
-0.791, 9.334e-7
-0.792, 9.354e-7
-0.793, 9.387e-7
-0.794, 9.414e-7
-0.795, 9.442e-7
-0.796, 9.491e-7
-0.797, 9.503e-7
-0.798, 9.530e-7
-0.799, 9.530e-7
-0.800, 9.578e-7
-0.801, 9.622e-7
-0.802, 9.635e-7
-0.803, 9.669e-7
-0.804, 9.681e-7
-0.805, 9.714e-7
-0.806, 9.760e-7
-0.807, 9.782e-7
-0.808, 9.802e-7
-0.809, 9.834e-7
-0.810, 9.853e-7
-0.811, 9.903e-7
-0.812, 9.920e-7
-0.813, 9.933e-7
-0.814, 9.978e-7
-0.815, 9.991e-7
-0.816, 1.003e-6
-0.817, 1.004e-6
-0.818, 1.006e-6
-0.819, 1.014e-6
-0.820, 1.017e-6
-0.821, 1.019e-6
-0.822, 1.021e-6
-0.823, 1.023e-6
-0.824, 1.024e-6
-0.825, 1.028e-6
-0.826, 1.032e-6
-0.827, 1.033e-6
-0.828, 1.036e-6
-0.829, 1.037e-6
-0.830, 1.041e-6
-0.831, 1.044e-6
-0.832, 1.048e-6
-0.833, 1.050e-6
-0.834, 1.051e-6
-0.835, 1.055e-6
-0.836, 1.060e-6
-0.837, 1.061e-6
-0.838, 1.065e-6
-0.839, 1.065e-6
-0.840, 1.069e-6
-0.841, 1.074e-6
-0.842, 1.074e-6
-0.843, 1.077e-6
-0.844, 1.080e-6
-0.845, 1.084e-6
-0.846, 1.088e-6
-0.847, 1.089e-6
-0.848, 1.091e-6
-0.849, 1.094e-6
-0.850, 1.096e-6
-0.851, 1.100e-6
-0.852, 1.103e-6
-0.853, 1.104e-6
-0.854, 1.107e-6
-0.855, 1.109e-6
-0.856, 1.114e-6
-0.857, 1.117e-6
-0.858, 1.117e-6
-0.859, 1.120e-6
-0.860, 1.123e-6
-0.861, 1.126e-6
-0.862, 1.129e-6
-0.863, 1.130e-6
-0.864, 1.133e-6
-0.865, 1.137e-6
-0.866, 1.140e-6
-0.867, 1.143e-6
-0.868, 1.145e-6
-0.869, 1.147e-6
-0.870, 1.153e-6
-0.871, 1.157e-6
-0.872, 1.157e-6
-0.873, 1.160e-6
-0.874, 1.161e-6
-0.875, 1.165e-6
-0.876, 1.169e-6
-0.877, 1.171e-6
-0.878, 1.174e-6
-0.879, 1.175e-6
-0.880, 1.179e-6
-0.881, 1.183e-6
-0.882, 1.184e-6
-0.883, 1.189e-6
-0.884, 1.191e-6
-0.885, 1.193e-6
-0.886, 1.199e-6
-0.887, 1.200e-6
-0.888, 1.202e-6
-0.889, 1.206e-6
-0.890, 1.208e-6
-0.891, 1.212e-6
-0.892, 1.215e-6
-0.893, 1.217e-6
-0.894, 1.219e-6
-0.895, 1.222e-6
-0.896, 1.228e-6
-0.897, 1.229e-6
-0.898, 1.231e-6
-0.899, 1.233e-6
-0.900, 1.237e-6
-0.901, 1.241e-6
-0.902, 1.244e-6
-0.903, 1.246e-6
-0.904, 1.248e-6
-0.905, 1.252e-6
-0.906, 1.255e-6
-0.907, 1.258e-6
-0.908, 1.260e-6
-0.909, 1.263e-6
-0.910, 1.267e-6
-0.911, 1.271e-6
-0.912, 1.272e-6
-0.913, 1.275e-6
-0.914, 1.278e-6
-0.915, 1.282e-6
-0.916, 1.285e-6
-0.917, 1.287e-6
-0.918, 1.290e-6
-0.919, 1.292e-6
-0.920, 1.295e-6
-0.921, 1.300e-6
-0.922, 1.301e-6
-0.923, 1.305e-6
-0.924, 1.306e-6
-0.925, 1.309e-6
-0.926, 1.315e-6
-0.927, 1.315e-6
-0.928, 1.317e-6
-0.929, 1.322e-6
-0.930, 1.324e-6
-0.931, 1.328e-6
-0.932, 1.331e-6
-0.933, 1.333e-6
-0.934, 1.337e-6
-0.935, 1.341e-6
-0.936, 1.344e-6
-0.937, 1.348e-6
-0.938, 1.349e-6
-0.939, 1.351e-6
-0.940, 1.355e-6
-0.941, 1.360e-6
-0.942, 1.362e-6
-0.943, 1.364e-6
-0.944, 1.367e-6
-0.945, 1.372e-6
-0.946, 1.375e-6
-0.947, 1.378e-6
-0.948, 1.381e-6
-0.949, 1.381e-6
-0.950, 1.387e-6
-0.951, 1.391e-6
-0.952, 1.392e-6
-0.953, 1.395e-6
-0.954, 1.397e-6
-0.955, 1.401e-6
-0.956, 1.405e-6
-0.957, 1.407e-6
-0.958, 1.409e-6
-0.959, 1.412e-6
-0.960, 1.417e-6
-0.961, 1.421e-6
-0.962, 1.422e-6
-0.963, 1.426e-6
-0.964, 1.428e-6
-0.965, 1.431e-6
-0.966, 1.436e-6
-0.967, 1.438e-6
-0.968, 1.442e-6
-0.969, 1.444e-6
-0.970, 1.447e-6
-0.971, 1.452e-6
-0.972, 1.454e-6
-0.973, 1.459e-6
-0.974, 1.460e-6
-0.975, 1.463e-6
-0.976, 1.466e-6
-0.977, 1.469e-6
-0.978, 1.472e-6
-0.979, 1.475e-6
-0.980, 1.480e-6
-0.981, 1.483e-6
-0.982, 1.486e-6
-0.983, 1.490e-6
-0.984, 1.494e-6
-0.985, 1.499e-6
-0.986, 1.501e-6
-0.987, 1.504e-6
-0.988, 1.506e-6
-0.989, 1.508e-6
-0.990, 1.513e-6
-0.991, 1.517e-6
-0.992, 1.520e-6
-0.993, 1.523e-6
-0.994, 1.525e-6
-0.995, 1.530e-6
-0.996, 1.533e-6
-0.997, 1.535e-6
-0.998, 1.539e-6
-0.999, 1.543e-6
-1.000, 1.547e-6
-1.001, 1.552e-6
-1.002, 1.553e-6
-1.003, 1.557e-6
-1.004, 1.560e-6
-1.005, 1.564e-6
-1.006, 1.568e-6
-1.007, 1.571e-6
-1.008, 1.574e-6
-1.009, 1.577e-6
-1.010, 1.581e-6
-1.011, 1.586e-6
-1.012, 1.588e-6
-1.013, 1.590e-6
-1.014, 1.593e-6
-1.015, 1.597e-6
-1.016, 1.602e-6
-1.017, 1.605e-6
-1.018, 1.607e-6
-1.019, 1.610e-6
-1.020, 1.616e-6
-1.021, 1.618e-6
-1.022, 1.621e-6
-1.023, 1.624e-6
-1.024, 1.629e-6
-1.025, 1.634e-6
-1.026, 1.636e-6
-1.027, 1.639e-6
-1.028, 1.643e-6
-1.029, 1.644e-6
-1.030, 1.651e-6
-1.031, 1.653e-6
-1.032, 1.656e-6
-1.033, 1.660e-6
-1.034, 1.661e-6
-1.035, 1.666e-6
-1.036, 1.671e-6
-1.037, 1.674e-6
-1.038, 1.678e-6
-1.039, 1.679e-6
-1.040, 1.683e-6
-1.041, 1.688e-6
-1.042, 1.689e-6
-1.043, 1.693e-6
-1.044, 1.697e-6
-1.045, 1.702e-6
-1.046, 1.706e-6
-1.047, 1.707e-6
-1.048, 1.710e-6
-1.049, 1.714e-6
-1.050, 1.718e-6
-1.051, 1.721e-6
-1.052, 1.723e-6
-1.053, 1.727e-6
-1.054, 1.730e-6
-1.055, 1.734e-6
-1.056, 1.739e-6
-1.057, 1.743e-6
-1.058, 1.745e-6
-1.059, 1.749e-6
-1.060, 1.753e-6
-1.061, 1.757e-6
-1.062, 1.759e-6
-1.063, 1.763e-6
-1.064, 1.766e-6
-1.065, 1.771e-6
-1.066, 1.773e-6
-1.067, 1.777e-6
-1.068, 1.779e-6
-1.069, 1.782e-6
-1.070, 1.788e-6
-1.071, 1.791e-6
-1.072, 1.793e-6
-1.073, 1.796e-6
-1.074, 1.798e-6
-1.075, 1.806e-6
-1.076, 1.812e-6
-1.077, 1.813e-6
-1.078, 1.818e-6
-1.079, 1.820e-6
-1.080, 1.824e-6
-1.081, 1.827e-6
-1.082, 1.829e-6
-1.083, 1.833e-6
-1.084, 1.836e-6
-1.085, 1.840e-6
-1.086, 1.844e-6
-1.087, 1.845e-6
-1.088, 1.849e-6
-1.089, 1.853e-6
-1.090, 1.857e-6
-1.091, 1.862e-6
-1.092, 1.864e-6
-1.093, 1.866e-6
-1.094, 1.869e-6
-1.095, 1.874e-6
-1.096, 1.877e-6
-1.097, 1.881e-6
-1.098, 1.883e-6
-1.099, 1.886e-6
-1.100, 1.891e-6
-1.101, 1.894e-6
-1.102, 1.897e-6
-1.103, 1.899e-6
-1.104, 1.903e-6
-1.105, 1.908e-6
-1.106, 1.911e-6
-1.107, 1.913e-6
-1.108, 1.917e-6
-1.109, 1.919e-6
-1.110, 1.924e-6
-1.111, 1.926e-6
-1.112, 1.929e-6
-1.113, 1.934e-6
-1.114, 1.937e-6
-1.115, 1.941e-6
-1.116, 1.944e-6
-1.117, 1.946e-6
-1.118, 1.949e-6
-1.119, 1.952e-6
-1.120, 1.956e-6
-1.121, 1.960e-6
-1.122, 1.960e-6
-1.123, 1.967e-6
-1.124, 1.969e-6
-1.125, 1.973e-6
-1.126, 1.977e-6
-1.127, 1.981e-6
-1.128, 1.984e-6
-1.129, 1.988e-6
-1.130, 1.992e-6
-1.131, 1.996e-6
-1.132, 1.998e-6
-1.133, 2.001e-6
-1.134, 2.005e-6
-1.135, 2.010e-6
-1.136, 2.013e-6
-1.137, 2.016e-6
-1.138, 2.018e-6
-1.139, 2.023e-6
-1.140, 2.028e-6
-1.141, 2.029e-6
-1.142, 2.034e-6
-1.143, 2.037e-6
-1.144, 2.039e-6
-1.145, 2.045e-6
-1.146, 2.047e-6
-1.147, 2.050e-6
-1.148, 2.052e-6
-1.149, 2.056e-6
-1.150, 2.060e-6
-1.151, 2.064e-6
-1.152, 2.068e-6
-1.153, 2.073e-6
-1.154, 2.074e-6
-1.155, 2.079e-6
-1.156, 2.082e-6
-1.157, 2.084e-6
-1.158, 2.087e-6
-1.159, 2.092e-6
-1.160, 2.097e-6
-1.161, 2.102e-6
-1.162, 2.101e-6
-1.163, 2.105e-6
-1.164, 2.107e-6
-1.165, 2.114e-6
-1.166, 2.118e-6
-1.167, 2.119e-6
-1.168, 2.124e-6
-1.169, 2.128e-6
-1.170, 2.132e-6
-1.171, 2.137e-6
-1.172, 2.140e-6
-1.173, 2.142e-6
-1.174, 2.145e-6
-1.175, 2.148e-6
-1.176, 2.151e-6
-1.177, 2.154e-6
-1.178, 2.158e-6
-1.179, 2.162e-6
-1.180, 2.166e-6
-1.181, 2.168e-6
-1.182, 2.170e-6
-1.183, 2.173e-6
-1.184, 2.177e-6
-1.185, 2.181e-6
-1.186, 2.183e-6
-1.187, 2.185e-6
-1.188, 2.187e-6
-1.189, 2.189e-6
-1.190, 2.195e-6
-1.191, 2.198e-6
-1.192, 2.201e-6
-1.193, 2.204e-6
-1.194, 2.206e-6
-1.195, 2.213e-6
-1.196, 2.215e-6
-1.197, 2.219e-6
-1.198, 2.223e-6
-1.199, 2.225e-6
-1.200, 2.229e-6
-1.201, 2.231e-6
-1.202, 2.234e-6
-1.203, 2.238e-6
-1.204, 2.241e-6
-1.205, 2.244e-6
-1.206, 2.248e-6
-1.207, 2.252e-6
-1.208, 2.253e-6
-1.209, 2.259e-6
-1.210, 2.262e-6
-1.211, 2.265e-6
-1.212, 2.267e-6
-1.213, 2.268e-6
-1.214, 2.272e-6
-1.215, 2.276e-6
-1.216, 2.280e-6
-1.217, 2.283e-6
-1.218, 2.284e-6
-1.219, 2.288e-6
-1.220, 2.292e-6
-1.221, 2.297e-6
-1.222, 2.300e-6
-1.223, 2.304e-6
-1.224, 2.308e-6
-1.225, 2.313e-6
-1.226, 2.314e-6
-1.227, 2.316e-6
-1.228, 2.319e-6
-1.229, 2.330e-6
-1.230, 2.333e-6
-1.231, 2.332e-6
-1.232, 2.335e-6
-1.233, 2.339e-6
-1.234, 2.341e-6
-1.235, 2.346e-6
-1.236, 2.349e-6
-1.237, 2.351e-6
-1.238, 2.353e-6
-1.239, 2.356e-6
-1.240, 2.361e-6
-1.241, 2.365e-6
-1.242, 2.366e-6
-1.243, 2.371e-6
-1.244, 2.374e-6
-1.245, 2.379e-6
-1.246, 2.382e-6
-1.247, 2.384e-6
-1.248, 2.388e-6
-1.249, 2.393e-6
-1.250, 2.398e-6
-1.251, 2.399e-6
-1.252, 2.402e-6
-1.253, 2.403e-6
-1.254, 2.408e-6
-1.255, 2.414e-6
-1.256, 2.416e-6
-1.257, 2.419e-6
-1.258, 2.420e-6
-1.259, 2.424e-6
-1.260, 2.431e-6
-1.261, 2.433e-6
-1.262, 2.435e-6
-1.263, 2.438e-6
-1.264, 2.441e-6
-1.265, 2.446e-6
-1.266, 2.449e-6
-1.267, 2.453e-6
-1.268, 2.456e-6
-1.269, 2.458e-6
-1.270, 2.462e-6
-1.271, 2.464e-6
-1.272, 2.467e-6
-1.273, 2.470e-6
-1.274, 2.472e-6
-1.275, 2.478e-6
-1.276, 2.479e-6
-1.277, 2.482e-6
-1.278, 2.485e-6
-1.279, 2.488e-6
-1.280, 2.495e-6
-1.281, 2.497e-6
-1.282, 2.499e-6
-1.283, 2.501e-6
-1.284, 2.505e-6
-1.285, 2.510e-6
-1.286, 2.513e-6
-1.287, 2.514e-6
-1.288, 2.516e-6
-1.289, 2.521e-6
-1.290, 2.525e-6
-1.291, 2.528e-6
-1.292, 2.530e-6
-1.293, 2.532e-6
-1.294, 2.538e-6
-1.295, 2.541e-6
-1.296, 2.545e-6
-1.297, 2.550e-6
-1.298, 2.550e-6
-1.299, 2.554e-6
-1.300, 2.560e-6
-1.301, 2.562e-6
-1.302, 2.567e-6
-1.303, 2.568e-6
-1.304, 2.573e-6
-1.305, 2.581e-6
-1.306, 2.582e-6
-1.307, 2.583e-6
-1.308, 2.587e-6
-1.309, 2.592e-6
-1.310, 2.597e-6
-1.311, 2.600e-6
-1.312, 2.600e-6
-1.313, 2.605e-6
-1.314, 2.609e-6
-1.315, 2.613e-6
-1.316, 2.616e-6
-1.317, 2.618e-6
-1.318, 2.624e-6
-1.319, 2.627e-6
-1.320, 2.632e-6
-1.321, 2.634e-6
-1.322, 2.638e-6
-1.323, 2.640e-6
-1.324, 2.644e-6
-1.325, 2.649e-6
-1.326, 2.654e-6
-1.327, 2.655e-6
-1.328, 2.659e-6
-1.329, 2.666e-6
-1.330, 2.669e-6
-1.331, 2.673e-6
-1.332, 2.676e-6
-1.333, 2.678e-6
-1.334, 2.684e-6
-1.335, 2.686e-6
-1.336, 2.688e-6
-1.337, 2.691e-6
-1.338, 2.695e-6
-1.339, 2.699e-6
-1.340, 2.704e-6
-1.341, 2.705e-6
-1.342, 2.709e-6
-1.343, 2.712e-6
-1.344, 2.715e-6
-1.345, 2.721e-6
-1.346, 2.722e-6
-1.347, 2.726e-6
-1.348, 2.730e-6
-1.349, 2.734e-6
-1.350, 2.740e-6
-1.351, 2.742e-6
-1.352, 2.746e-6
-1.353, 2.750e-6
-1.354, 2.752e-6
-1.355, 2.759e-6
-1.356, 2.760e-6
-1.357, 2.766e-6
-1.358, 2.770e-6
-1.359, 2.775e-6
-1.360, 2.780e-6
-1.361, 2.781e-6
-1.362, 2.784e-6
-1.363, 2.788e-6
-1.364, 2.794e-6
-1.365, 2.796e-6
-1.366, 2.801e-6
-1.367, 2.803e-6
-1.368, 2.806e-6
-1.369, 2.813e-6
-1.370, 2.817e-6
-1.371, 2.821e-6
-1.372, 2.824e-6
-1.373, 2.826e-6
-1.374, 2.833e-6
-1.375, 2.836e-6
-1.376, 2.838e-6
-1.377, 2.843e-6
-1.378, 2.845e-6
-1.379, 2.850e-6
-1.380, 2.855e-6
-1.381, 2.858e-6
-1.382, 2.865e-6
-1.383, 2.868e-6
-1.384, 2.873e-6
-1.385, 2.879e-6
-1.386, 2.880e-6
-1.387, 2.886e-6
-1.388, 2.888e-6
-1.389, 2.893e-6
-1.390, 2.899e-6
-1.391, 2.901e-6
-1.392, 2.905e-6
-1.393, 2.906e-6
-1.394, 2.912e-6
-1.395, 2.918e-6
-1.396, 2.922e-6
-1.397, 2.927e-6
-1.398, 2.931e-6
-1.399, 2.936e-6
-1.400, 2.941e-6
-1.401, 2.945e-6
-1.402, 2.949e-6
-1.403, 2.953e-6
-1.404, 2.957e-6
-1.405, 2.962e-6
-1.406, 2.968e-6
-1.407, 2.971e-6
-1.408, 2.975e-6
-1.409, 2.982e-6
-1.410, 2.987e-6
-1.411, 2.991e-6
-1.412, 2.995e-6
-1.413, 2.997e-6
-1.414, 3.004e-6
-1.415, 3.010e-6
-1.416, 3.014e-6
-1.417, 3.018e-6
-1.418, 3.021e-6
-1.419, 3.031e-6
-1.420, 3.037e-6
-1.421, 3.039e-6
-1.422, 3.046e-6
-1.423, 3.048e-6
-1.424, 3.054e-6
-1.425, 3.060e-6
-1.426, 3.063e-6
-1.427, 3.071e-6
-1.428, 3.076e-6
-1.429, 3.082e-6
-1.430, 3.088e-6
-1.431, 3.092e-6
-1.432, 3.096e-6
-1.433, 3.103e-6
-1.434, 3.113e-6
-1.435, 3.120e-6
-1.436, 3.122e-6
-1.437, 3.126e-6
-1.438, 3.133e-6
-1.439, 3.137e-6
-1.440, 3.144e-6
-1.441, 3.152e-6
-1.442, 3.153e-6
-1.443, 3.160e-6
-1.444, 3.167e-6
-1.445, 3.174e-6
-1.446, 3.180e-6
-1.447, 3.185e-6
-1.448, 3.192e-6
-1.449, 3.199e-6
-1.450, 3.204e-6
-1.451, 3.210e-6
-1.452, 3.217e-6
-1.453, 3.225e-6
-1.454, 3.235e-6
-1.455, 3.241e-6
-1.456, 3.247e-6
-1.457, 3.252e-6
-1.458, 3.256e-6
-1.459, 3.266e-6
-1.460, 3.273e-6
-1.461, 3.279e-6
-1.462, 3.287e-6
-1.463, 3.291e-6
-1.464, 3.302e-6
-1.465, 3.312e-6
-1.466, 3.317e-6
-1.467, 3.323e-6
-1.468, 3.328e-6
-1.469, 3.339e-6
-1.470, 3.349e-6
-1.471, 3.355e-6
-1.472, 3.365e-6
-1.473, 3.373e-6
-1.474, 3.382e-6
-1.475, 3.392e-6
-1.476, 3.397e-6
-1.477, 3.405e-6
-1.478, 3.416e-6
-1.479, 3.426e-6
-1.480, 3.436e-6
-1.481, 3.446e-6
-1.482, 3.453e-6
-1.483, 3.464e-6
-1.484, 3.474e-6
-1.485, 3.487e-6
-1.486, 3.492e-6
-1.487, 3.500e-6
-1.488, 3.508e-6
-1.489, 3.522e-6
-1.490, 3.528e-6
-1.491, 3.538e-6
-1.492, 3.548e-6
-1.493, 3.556e-6
-1.494, 3.568e-6
-1.495, 3.577e-6
-1.496, 3.589e-6
-1.497, 3.602e-6
-1.498, 3.610e-6
-1.499, 3.622e-6
-1.500, 3.634e-6
-1.501, 3.641e-6
-1.502, 3.654e-6
-1.503, 3.663e-6
-1.504, 3.676e-6
-1.505, 3.689e-6
-1.506, 3.696e-6
-1.507, 3.707e-6
-1.508, 3.719e-6
-1.509, 3.737e-6
-1.510, 3.750e-6
-1.511, 3.759e-6
-1.512, 3.771e-6
-1.513, 3.785e-6
-1.514, 3.798e-6
-1.515, 3.812e-6
-1.516, 3.822e-6
-1.517, 3.835e-6
-1.518, 3.851e-6
-1.519, 3.867e-6
-1.520, 3.884e-6
-1.521, 3.902e-6
-1.522, 3.913e-6
-1.523, 3.928e-6
-1.524, 3.942e-6
-1.525, 3.956e-6
-1.526, 3.970e-6
-1.527, 3.984e-6
-1.528, 4.006e-6
-1.529, 4.035e-6
-1.530, 4.062e-6
-1.531, 4.070e-6
-1.532, 4.082e-6
-1.533, 4.089e-6
-1.534, 4.102e-6
-1.535, 4.111e-6
-1.536, 4.126e-6
-1.537, 4.145e-6
-1.538, 4.159e-6
-1.539, 4.179e-6
-1.540, 4.193e-6
-1.541, 4.206e-6
-1.542, 4.225e-6
-1.543, 4.242e-6
-1.544, 4.260e-6
-1.545, 4.281e-6
-1.546, 4.298e-6
-1.547, 4.323e-6
-1.548, 4.345e-6
-1.549, 4.366e-6
-1.550, 4.386e-6
-1.551, 4.403e-6
-1.552, 4.424e-6
-1.553, 4.446e-6
-1.554, 4.469e-6
-1.555, 4.488e-6
-1.556, 4.507e-6
-1.557, 4.529e-6
-1.558, 4.548e-6
-1.559, 4.579e-6
-1.560, 4.647e-6
-1.561, 4.678e-6
-1.562, 4.691e-6
-1.563, 4.702e-6
-1.564, 4.728e-6
-1.565, 4.757e-6
-1.566, 4.783e-6
-1.567, 4.808e-6
-1.568, 4.847e-6
-1.569, 4.882e-6
-1.570, 4.915e-6
-1.571, 4.950e-6
-1.572, 4.984e-6
-1.573, 5.018e-6
-1.574, 5.061e-6
-1.575, 5.091e-6
-1.576, 5.127e-6
-1.577, 5.165e-6
-1.578, 5.197e-6
-1.579, 5.239e-6
-1.580, 5.269e-6
-1.581, 5.297e-6
-1.582, 5.334e-6
-1.583, 5.369e-6
-1.584, 5.403e-6
-1.585, 5.446e-6
-1.586, 5.484e-6
-1.587, 5.527e-6
-1.588, 5.564e-6
-1.589, 5.605e-6
-1.590, 5.652e-6
-1.591, 5.691e-6
-1.592, 5.733e-6
-1.593, 5.779e-6
-1.594, 5.831e-6
-1.595, 5.891e-6
-1.596, 5.935e-6
-1.597, 5.977e-6
-1.598, 6.028e-6
-1.599, 6.074e-6
-1.600, 6.129e-6
-1.601, 6.179e-6
-1.602, 6.232e-6
-1.603, 6.296e-6
-1.604, 6.356e-6
-1.605, 6.410e-6
-1.606, 6.473e-6
-1.607, 6.521e-6
-1.608, 6.578e-6
-1.609, 6.622e-6
-1.610, 6.669e-6
-1.611, 6.722e-6
-1.612, 6.783e-6
-1.613, 6.856e-6
-1.614, 6.939e-6
-1.615, 7.009e-6
-1.616, 7.078e-6
-1.617, 7.140e-6
-1.618, 7.210e-6
-1.619, 7.283e-6
-1.620, 7.362e-6
-1.621, 7.439e-6
-1.622, 7.508e-6
-1.623, 7.583e-6
-1.624, 7.678e-6
-1.625, 7.756e-6
-1.626, 7.831e-6
-1.627, 7.923e-6
-1.628, 8.019e-6
-1.629, 8.133e-6
-1.630, 8.193e-6
-1.631, 8.286e-6
-1.632, 8.390e-6
-1.633, 8.476e-6
-1.634, 8.558e-6
-1.635, 8.566e-6
-1.636, 8.654e-6
-1.637, 8.730e-6
-1.638, 8.823e-6
-1.639, 8.931e-6
-1.640, 9.037e-6
-1.641, 9.108e-6
-1.642, 9.219e-6
-1.643, 9.407e-6
-1.644, 9.587e-6
-1.645, 9.749e-6
-1.646, 9.897e-6
-1.647, 1.002e-5
-1.648, 1.016e-5
-1.649, 1.029e-5
-1.650, 1.041e-5
-1.651, 1.057e-5
-1.652, 1.074e-5
-1.653, 1.093e-5
-1.654, 1.115e-5
-1.655, 1.134e-5
-1.656, 1.149e-5
-1.657, 1.167e-5
-1.658, 1.189e-5
-1.659, 1.206e-5
-1.660, 1.227e-5
-1.661, 1.249e-5
-1.662, 1.265e-5
-1.663, 1.292e-5
-1.664, 1.321e-5
-1.665, 1.343e-5
-1.666, 1.375e-5
-1.667, 1.399e-5
-1.668, 1.428e-5
-1.669, 1.455e-5
-1.670, 1.479e-5
-1.671, 1.514e-5
-1.672, 1.540e-5
-1.673, 1.567e-5
-1.674, 1.579e-5
-1.675, 1.604e-5
-1.676, 1.633e-5
-1.677, 1.663e-5
-1.678, 1.693e-5
-1.679, 1.731e-5
-1.680, 1.762e-5
-1.681, 1.804e-5
-1.682, 1.841e-5
-1.683, 1.885e-5
-1.684, 1.930e-5
-1.685, 1.975e-5
-1.686, 2.039e-5
-1.687, 2.084e-5
-1.688, 2.135e-5
-1.689, 2.193e-5
-1.690, 2.255e-5
-1.691, 2.331e-5
-1.692, 2.398e-5
-1.693, 2.463e-5
-1.694, 2.533e-5
-1.695, 2.605e-5
-1.696, 2.686e-5
-1.697, 2.764e-5
-1.698, 2.854e-5
-1.699, 2.944e-5
-1.700, 3.034e-5
-1.701, 3.134e-5
-1.702, 3.237e-5
-1.703, 3.339e-5
-1.704, 3.455e-5
-1.705, 3.569e-5
-1.706, 3.695e-5
-1.707, 3.815e-5
-1.708, 3.933e-5
-1.709, 4.065e-5
-1.710, 4.187e-5
-1.711, 4.317e-5
-1.712, 4.471e-5
-1.713, 4.621e-5
-1.714, 4.782e-5
-1.715, 4.968e-5
-1.716, 5.121e-5
-1.717, 5.296e-5
-1.718, 5.508e-5
-1.719, 5.723e-5
-1.720, 5.932e-5
-1.721, 6.179e-5
-1.722, 6.415e-5
-1.723, 6.648e-5
-1.724, 6.916e-5
-1.725, 7.190e-5
-1.726, 7.473e-5
-1.727, 7.765e-5
-1.728, 8.081e-5
-1.729, 8.413e-5
-1.730, 8.755e-5
-1.731, 9.119e-5
-1.732, 9.478e-5
-1.733, 9.859e-5
-1.734, 1.026e-4
-1.735, 1.068e-4
-1.736, 1.110e-4
-1.737, 1.155e-4
-1.738, 1.201e-4
-1.739, 1.249e-4
-1.740, 1.298e-4
-1.741, 1.350e-4
-1.742, 1.404e-4
-1.743, 1.460e-4
-1.744, 1.518e-4
-1.745, 1.578e-4
-1.746, 1.638e-4
-1.747, 1.698e-4
-1.748, 1.760e-4
-1.749, 1.823e-4
-1.750, 1.890e-4
-1.751, 1.956e-4
-1.752, 2.022e-4
-1.753, 2.094e-4
-1.754, 2.169e-4
-1.755, 2.248e-4
-1.756, 2.328e-4
-1.757, 2.411e-4
-1.758, 2.494e-4
-1.759, 2.579e-4
-1.760, 2.666e-4
-1.761, 2.756e-4
-1.762, 2.847e-4
-1.763, 2.942e-4
-1.764, 3.040e-4
-1.765, 3.137e-4
-1.766, 3.238e-4
-1.767, 3.342e-4
-1.768, 3.449e-4
-1.769, 3.558e-4
-1.770, 3.671e-4
-1.771, 3.784e-4
-1.772, 3.887e-4
-1.773, 3.995e-4
-1.774, 4.109e-4
-1.775, 4.227e-4
-1.776, 4.340e-4
-1.777, 4.461e-4
-1.778, 4.591e-4
-1.779, 4.725e-4
-1.780, 4.858e-4
-1.781, 4.994e-4
-1.782, 5.132e-4
-1.783, 5.272e-4
-1.784, 5.420e-4
-1.785, 5.569e-4
-1.786, 5.721e-4
-1.787, 5.881e-4
-1.788, 6.047e-4
-1.789, 6.218e-4
-1.790, 6.391e-4
-1.791, 6.563e-4
-1.792, 6.739e-4
-1.793, 6.928e-4
-1.794, 7.123e-4
-1.795, 7.326e-4
-1.796, 7.530e-4
-1.797, 7.737e-4
-1.798, 7.946e-4
-1.799, 8.160e-4
-1.800, 8.380e-4
-1.801, 8.595e-4
-1.802, 8.821e-4
-1.803, 9.050e-4
-1.804, 9.278e-4
-1.805, 9.512e-4
-1.806, 9.757e-4
-1.807, 1.001e-3
-1.808, 1.011e-3
-1.809, 1.011e-3
-1.810, 1.011e-3
-1.811, 1.011e-3
-1.812, 1.011e-3
-1.813, 1.011e-3
-1.814, 1.011e-3
-1.815, 1.011e-3
-1.816, 1.011e-3
-1.817, 1.011e-3
-1.818, 1.011e-3
-1.819, 1.011e-3
-1.820, 1.011e-3
-1.821, 1.011e-3
-1.822, 1.011e-3
-1.823, 1.011e-3
-1.824, 1.011e-3
-1.825, 1.011e-3
-1.826, 1.011e-3
-1.827, 1.011e-3
-1.828, 1.011e-3
-1.829, 1.011e-3
-1.830, 1.011e-3
-1.831, 1.011e-3
-1.832, 1.011e-3
-1.833, 1.011e-3
-1.834, 1.011e-3
-1.835, 1.011e-3
-1.836, 1.011e-3
-1.837, 1.011e-3
-1.838, 1.011e-3
-1.839, 1.011e-3
-1.840, 1.011e-3
-1.841, 1.011e-3
-1.842, 1.011e-3
-1.843, 1.011e-3
-1.844, 1.011e-3
-1.845, 1.011e-3
-1.846, 1.011e-3
-1.847, 1.011e-3
-1.848, 1.011e-3
-1.849, 1.011e-3
-1.850, 1.011e-3
-1.851, 1.011e-3
-1.852, 1.011e-3
-1.853, 1.011e-3
-1.854, 1.011e-3
-1.855, 1.011e-3
-1.856, 1.011e-3
-1.857, 1.011e-3
-1.858, 1.011e-3
-1.859, 1.011e-3
-1.860, 1.011e-3
-1.861, 1.011e-3
-1.862, 1.011e-3
-1.863, 1.011e-3
-1.864, 1.011e-3
-1.865, 1.011e-3
-1.866, 1.011e-3
-1.867, 1.011e-3
-1.868, 1.011e-3
-1.869, 1.011e-3
-1.870, 1.011e-3
-1.871, 1.011e-3
-1.872, 1.011e-3
-1.873, 1.011e-3
-1.874, 1.011e-3
-1.875, 1.011e-3
-1.876, 1.011e-3
-1.877, 1.011e-3
-1.878, 1.011e-3
-1.879, 1.011e-3
-1.880, 1.011e-3
-1.881, 1.011e-3
-1.882, 1.011e-3
-1.883, 1.011e-3
-1.884, 1.011e-3
-1.885, 1.011e-3
-1.886, 1.011e-3
-1.887, 1.011e-3
-1.888, 1.011e-3
-1.889, 1.011e-3
-1.890, 1.011e-3
-1.891, 1.011e-3
-1.892, 1.011e-3
-1.893, 1.011e-3
-1.894, 1.011e-3
-1.895, 1.011e-3
-1.896, 1.011e-3
-1.897, 1.011e-3
-1.898, 1.011e-3
-1.899, 1.011e-3
