Potential V vs RHE, Current mA cm-2
0.4132999999999999,-0.0012322135421824472
0.4122999999999999,-0.0029411847924194112
0.4112999999999999,-0.0034221866343735236
0.4102999999999999,-0.0036442963084523344
0.4092999999999999,-0.0038366970452339793
0.4082999999999999,-0.003988071154319538
0.4072999999999999,-0.004162080644202937
0.4062999999999999,-0.004283745815991331
0.4052999999999999,-0.004399752142580264
0.4042999999999999,-0.004501611356170546
0.4032999999999999,-0.0046105441262601545
0.4022999999999999,-0.004716647473750032
0.4012999999999999,-0.0048029448630417994
0.4002999999999999,-0.004860948026336266
0.3992999999999999,-0.0049826131981246585
0.3982999999999999,-0.0050816429891152115
0.3972999999999999,-0.005158037399307923
0.3962999999999999,-0.005242920077299826
0.3952999999999999,-0.005309411508393483
0.3942999999999999,-0.005364585249088219
0.39329999999999987,-0.005440979659280931
0.39229999999999987,-0.005534350605072023
0.39129999999999987,-0.005610745015264736
0.39029999999999987,-0.005651771642960822
0.38929999999999987,-0.0057281660531535335
0.38829999999999987,-0.005801731040746516
0.38729999999999987,-0.005863978337940577
0.38629999999999987,-0.005940372748133289
0.38529999999999986,-0.0059983759114277556
0.38429999999999986,-0.006046476095623166
0.38329999999999986,-0.006128529351015339
0.38229999999999986,-0.006192191359509265
0.38129999999999986,-0.006251609234103597
0.38029999999999986,-0.0062982947069991435
0.37929999999999986,-0.0063577125815934745
0.37829999999999986,-0.006429862857886591
0.37729999999999986,-0.0064822071759815985
0.37629999999999986,-0.0065246485149775485
0.37529999999999986,-0.006576992833072556
0.37429999999999986,-0.006642069552866348
0.37329999999999985,-0.006694413870961353
0.37229999999999985,-0.00677505241505366
0.37129999999999985,-0.006820323176649342
0.37029999999999985,-0.006882570473843404
0.36929999999999985,-0.006922182390239625
0.36829999999999985,-0.00695189132753679
0.36729999999999985,-0.0070565799637268035
0.36629999999999985,-0.007090533034923564
0.36529999999999985,-0.007131559662619649
0.36429999999999985,-0.007205124650212632
0.36329999999999985,-0.007227760031010472
0.36229999999999984,-0.007309813286402644
0.36129999999999984,-0.00735932818189792
0.36029999999999984,-0.007408843077393197
0.35929999999999984,-0.0074583579728884734
0.35829999999999984,-0.00750504344578402
0.35729999999999984,-0.007564461320378351
0.35629999999999984,-0.0076168056384733574
0.35529999999999984,-0.007649343998370253
0.35429999999999984,-0.007687541203466609
0.35329999999999984,-0.007752617923260401
0.35229999999999984,-0.007802132818755678
0.35129999999999983,-0.007868624249849333
0.35029999999999983,-0.007882771362847985
0.34929999999999983,-0.007942189237442316
0.34829999999999983,-0.007991704132937592
0.34729999999999983,-0.00807800152222936
0.34629999999999983,-0.008106295748226659
0.34529999999999983,-0.008133175262924095
0.34429999999999983,-0.008167128334120857
0.3432999999999998,-0.008209569673116807
0.3422999999999998,-0.008278890526810195
0.3412999999999998,-0.00832557599970574
0.3402999999999998,-0.008358114359602637
0.3392999999999998,-0.008376505606500884
0.3382999999999998,-0.008448655882793999
0.3372999999999998,-0.008506659046088464
0.3362999999999998,-0.008547685673784552
0.3352999999999998,-0.008575979899781852
0.3342999999999998,-0.008629738929176723
0.3332999999999998,-0.00868491266987146
0.3322999999999998,-0.008738671699266332
0.3312999999999998,-0.008766965925263631
0.3302999999999998,-0.008805163130359988
0.3292999999999998,-0.008843360335456343
0.3282999999999998,-0.008897119364851215
0.3272999999999998,-0.008955122528145681
0.3262999999999998,-0.008980587331543255
0.3252999999999999,-0.009024443381839069
0.3242999999999999,-0.009071128854734614
0.3232999999999999,-0.009109326059830971
0.3222999999999999,-0.009197038160422603
0.3212999999999999,-0.009239479499418555
0.3202999999999999,-0.009246553055917879
0.3192999999999999,-0.009300312085312751
0.3182999999999999,-0.009344168135608568
0.3172999999999999,-0.009390853608504115
0.3162999999999999,-0.009441783215299255
0.3152999999999999,-0.009468662729996689
0.3142999999999999,-0.009499786378593722
0.3132999999999999,-0.009545057140189403
0.3122999999999999,-0.009586083767885488
0.3112999999999999,-0.009644086931179954
0.3102999999999999,-0.009652575198979146
0.3092999999999999,-0.009717651918772937
0.3082999999999999,-0.009753019701269563
0.3072999999999999,-0.009802534596764839
0.3062999999999999,-0.00985346420355998
0.3052999999999999,-0.009877514295657686
0.3042999999999999,-0.0099213703459535
0.3032999999999999,-0.009972299952748644
0.3022999999999999,-0.01002181484824392
0.3012999999999999,-0.01005010907424122
0.3002999999999999,-0.010089720990637442
0.2992999999999999,-0.010125088773134068
0.2982999999999999,-0.010174603668629344
0.2972999999999999,-0.010225533275424485
0.2962999999999999,-0.010265145191820707
0.2952999999999999,-0.010309001242116523
0.2942999999999999,-0.010321733643815306
0.2932999999999999,-0.010364174982811258
0.2922999999999999,-0.0104433988156037
0.2912999999999999,-0.01045754592860235
0.2902999999999999,-0.010487254865899517
0.2892999999999999,-0.010539599183994523
0.2882999999999999,-0.010562234564792364
0.2872999999999999,-0.010637214263685212
0.2862999999999999,-0.010658434933183185
0.2852999999999999,-0.010685314447880621
0.2842999999999999,-0.010741902899875222
0.2832999999999999,-0.010763123569373199
0.2822999999999999,-0.010833859134366451
0.2812999999999999,-0.010853665092564562
0.2802999999999999,-0.010870641628162942
0.2792999999999999,-0.010921571234958082
0.2782999999999999,-0.010968256707853629
0.2772999999999999,-0.011026259871148096
0.2762999999999999,-0.011063042364944587
0.2752999999999999,-0.011071530632743777
0.2742999999999999,-0.011125289662138648
0.2732999999999999,-0.011166316289834735
0.2722999999999999,-0.011200269361031495
0.2712999999999999,-0.011266760792125153
0.2702999999999999,-0.011287981461623128
0.2692999999999999,-0.011316275687620427
0.26829999999999987,-0.011375693562214758
0.26729999999999987,-0.01142096432381044
0.26629999999999987,-0.011459161528906798
0.26529999999999987,-0.011487455754904098
0.26429999999999987,-0.011528482382600184
0.26329999999999987,-0.011565264876396674
0.26229999999999987,-0.011619023905791547
0.26129999999999987,-0.011644488709189117
0.26029999999999986,-0.01169258889338453
0.25929999999999986,-0.011709565428982908
0.25829999999999986,-0.011759080324478184
0.25729999999999986,-0.011836889445970762
0.25629999999999986,-0.011860939538068467
0.25529999999999986,-0.011900551454464687
0.25429999999999986,-0.011934504525661449
0.25329999999999986,-0.011958554617759154
0.25229999999999986,-0.012025046048852812
0.25129999999999986,-0.012054754986149977
0.25029999999999986,-0.012101440459045524
0.24929999999999986,-0.012112758149444444
0.24829999999999985,-0.012155199488440394
0.24729999999999985,-0.012227349764733513
0.24629999999999985,-0.012234423321232837
0.24529999999999985,-0.012299500041026628
0.24429999999999985,-0.012347600225222041
0.24329999999999985,-0.01235891791562096
0.24229999999999985,-0.012425409346714619
0.24129999999999985,-0.012450874150112189
0.24029999999999985,-0.012484827221308949
0.23929999999999985,-0.012531512694204494
0.23829999999999985,-0.012566880476701122
0.23729999999999984,-0.012610736526996937
0.23629999999999984,-0.012657421999892483
0.23529999999999984,-0.012671569112891133
0.23429999999999984,-0.01271825458578668
0.23329999999999984,-0.012749378234383713
0.23229999999999984,-0.012832846201075748
0.23129999999999984,-0.012858311004473318
0.23029999999999984,-0.012882361096571024
0.22929999999999984,-0.01291489945646792
0.22829999999999984,-0.012964414351963197
0.22729999999999984,-0.012994123289260362
0.22629999999999983,-0.013046467607355368
0.22529999999999983,-0.013095982502850644
0.22429999999999983,-0.01310022663675024
0.22329999999999983,-0.013161059222644435
0.22229999999999983,-0.013204915272940251
0.22129999999999983,-0.013233209498937554
0.22029999999999983,-0.013279894971833099
0.21929999999999983,-0.013318092176929456
0.21829999999999983,-0.013357704093325677
0.21729999999999983,-0.013427024947019063
0.21629999999999983,-0.013444001482617443
0.21529999999999982,-0.0134821986877138
0.21429999999999982,-0.0134821986877138
0.21329999999999982,-0.01355010483010732
0.21229999999999982,-0.013612352127301384
0.21129999999999982,-0.013630743374199627
0.21029999999999982,-0.01367884355839504
0.20929999999999982,-0.013695820093993422
0.20829999999999982,-0.013742505566888965
0.20729999999999982,-0.013807582286682758
0.20629999999999982,-0.01383870593527979
0.20529999999999982,-0.013867000161277088
0.20429999999999982,-0.01391227092287277
0.20329999999999981,-0.013939150437570205
0.2022999999999998,-0.01400988600256346
0.2012999999999998,-0.014033936094661165
0.20029999999999992,-0.01405232734155941
0.19929999999999992,-0.014115989350053336
0.19829999999999992,-0.014134380596951582
0.19729999999999992,-0.014189554337646317
0.19629999999999992,-0.014203701450644968
0.19529999999999992,-0.014231995676642267
0.19429999999999992,-0.014345172580631472
0.19329999999999992,-0.014387613919627423
0.19229999999999992,-0.014415908145624722
0.19129999999999991,-0.014444202371622025
0.1902999999999999,-0.014472496597619325
0.1892999999999999,-0.014486643710617976
0.1882999999999999,-0.014543232162612576
0.1872999999999999,-0.014599820614607179
0.1862999999999999,-0.01461396772760583
0.1852999999999999,-0.01465640906660178
0.1842999999999999,-0.014670556179600431
0.1832999999999999,-0.014727144631595034
0.1822999999999999,-0.014769585970590984
0.1812999999999999,-0.014826174422585584
0.1802999999999999,-0.014854468648582884
0.1792999999999999,-0.014868615761581536
0.1782999999999999,-0.014925204213576137
0.1772999999999999,-0.014995939778569388
0.1762999999999999,-0.01501008689156804
0.1752999999999999,-0.015066675343562642
0.1742999999999999,-0.015066675343562642
0.1732999999999999,-0.015123263795557243
0.1722999999999999,-0.015193999360550494
0.1712999999999999,-0.015193999360550494
0.1702999999999999,-0.015236440699546445
0.1692999999999999,-0.015278882038542396
0.1682999999999999,-0.015335470490536997
0.1672999999999999,-0.015392058942531598
0.1662999999999999,-0.015406206055530251
0.1652999999999999,-0.01543450028152755
0.1642999999999999,-0.015476941620523503
0.1632999999999999,-0.015505235846520802
0.1622999999999999,-0.015561824298515404
0.1612999999999999,-0.015604265637511355
0.1602999999999999,-0.015618412750510005
0.1592999999999999,-0.015660854089505957
0.15829999999999989,-0.01568914831550326
0.15729999999999988,-0.01575988388049651
0.15629999999999988,-0.01580232521949246
0.15529999999999988,-0.01580232521949246
0.15429999999999988,-0.01584476655848841
0.15329999999999988,-0.01588720789748436
0.15229999999999988,-0.015929649236480315
0.15129999999999988,-0.01597209057547626
0.15029999999999988,-0.015986237688474913
0.14929999999999988,-0.016028679027470863
0.14829999999999988,-0.01608526747946547
0.14729999999999988,-0.016127708818461418
0.14629999999999987,-0.016170150157457368
0.14529999999999987,-0.01619844438345467
0.14429999999999987,-0.016226738609451972
0.14329999999999987,-0.016311621287443873
0.14229999999999987,-0.016368209739438477
0.14129999999999987,-0.016368209739438477
0.14029999999999987,-0.016410651078434424
0.13929999999999987,-0.016424798191433075
0.13829999999999987,-0.01648138664342768
0.13729999999999987,-0.016537975095422278
0.13629999999999987,-0.01656626932141958
0.13529999999999986,-0.01660871066041553
0.13429999999999986,-0.01662285777341418
0.13329999999999986,-0.016679446225408782
0.13229999999999986,-0.01673603467740338
0.13129999999999986,-0.016750181790402035
0.13029999999999986,-0.016820917355395284
0.12929999999999986,-0.016849211581392583
0.12829999999999986,-0.01687750580738989
0.12729999999999986,-0.016962388485381792
0.12629999999999986,-0.01697653559838044
0.12529999999999986,-0.017004829824377742
0.12429999999999986,-0.01706141827637234
0.12329999999999985,-0.017089712502369642
0.12229999999999985,-0.017146300954364244
0.12129999999999985,-0.017188742293360197
0.12029999999999985,-0.017217036519357496
0.11929999999999985,-0.0172453307453548
0.11829999999999985,-0.01728777208435075
0.11729999999999985,-0.017372654762342652
0.11629999999999985,-0.0173868018753413
0.11529999999999985,-0.0174150961013386
0.11429999999999985,-0.017443390327335904
0.11329999999999985,-0.017499978779330502
0.11229999999999984,-0.017556567231325104
0.11129999999999984,-0.017599008570321057
0.11029999999999984,-0.017627302796318356
0.10929999999999984,-0.01765559702231566
0.10829999999999984,-0.01771218547431026
0.10729999999999984,-0.017754626813306213
0.10629999999999984,-0.017797068152302163
0.10529999999999984,-0.017825362378299462
0.10429999999999984,-0.017867803717295416
0.10329999999999984,-0.017924392169290013
0.10229999999999984,-0.017980980621284618
0.10129999999999983,-0.017995127734283266
0.10029999999999983,-0.01803756907327922
0.09929999999999983,-0.018080010412275173
0.09829999999999983,-0.01813659886426977
0.09729999999999983,-0.01817904020326572
0.09629999999999983,-0.01820733442926302
0.09529999999999983,-0.018249775768258973
0.09429999999999983,-0.018278069994256275
0.09329999999999983,-0.018320511333252226
0.09229999999999983,-0.018391246898245478
0.09129999999999983,-0.018405394011244126
0.09029999999999982,-0.018461982463238727
0.08929999999999982,-0.01847612957623738
0.08829999999999982,-0.01851857091523333
0.08729999999999982,-0.018603453593225232
0.08629999999999982,-0.018603453593225232
0.08529999999999982,-0.018631747819222534
0.08429999999999982,-0.018702483384215783
0.08329999999999982,-0.018730777610213082
0.08229999999999982,-0.018787366062207687
0.08129999999999982,-0.01882980740120364
0.08029999999999982,-0.01885810162720094
0.07929999999999982,-0.01891469007919554
0.07829999999999981,-0.01897127853119014
0.07729999999999981,-0.019013719870186095
0.07629999999999981,-0.019070308322180696
0.07529999999999992,-0.019084455435179344
0.07429999999999992,-0.019112749661176646
0.07329999999999992,-0.019169338113171244
0.07229999999999992,-0.019240073678164497
0.07129999999999992,-0.0192683679041618
0.07029999999999992,-0.0192966621301591
0.06929999999999992,-0.01933910346915505
0.06829999999999992,-0.0194098390341483
0.06729999999999992,-0.019452280373144254
0.06629999999999991,-0.019494721712140204
0.06529999999999991,-0.019537163051136158
0.06429999999999991,-0.019537163051136158
0.06329999999999991,-0.019622045729128058
0.06229999999999991,-0.01967863418112266
0.06129999999999991,-0.01969278129412131
0.06029999999999991,-0.01973522263311726
0.05929999999999991,-0.019763516859114563
0.05829999999999991,-0.019820105311109164
0.05729999999999991,-0.019876693763103765
0.056299999999999906,-0.019904987989101064
0.055299999999999905,-0.019933282215098366
0.054299999999999904,-0.01997572355409432
0.0532999999999999,-0.02004645911908757
0.0522999999999999,-0.020103047571082173
0.0512999999999999,-0.02011719468408082
0.0502999999999999,-0.020173783136075422
0.0492999999999999,-0.02020207736207272
0.0482999999999999,-0.020244518701068675
0.0472999999999999,-0.020315254266061927
0.0462999999999999,-0.020343548492059226
0.045299999999999896,-0.020400136944053827
0.044299999999999895,-0.02042843117005113
0.043299999999999894,-0.020470872509047083
0.04229999999999989,-0.020541608074040336
0.04129999999999989,-0.020569902300037635
0.04029999999999989,-0.020640637865030884
0.03929999999999989,-0.020654784978029535
0.03829999999999989,-0.020697226317025485
0.03729999999999989,-0.02073966765602144
0.03629999999999989,-0.02078210899501739
0.03529999999999989,-0.020824550334013342
0.034299999999999886,-0.02086699167300929
0.033299999999999885,-0.020937727238002544
0.032299999999999884,-0.020980168576998495
0.031299999999999883,-0.021022609915994445
0.030299999999999883,-0.021079198367989046
0.02929999999999988,-0.021135786819983647
0.02829999999999988,-0.0212065223849769
0.02729999999999988,-0.0212348166109742
0.02629999999999988,-0.021277257949970152
0.025299999999999878,-0.021305552175967454
0.024299999999999877,-0.021333846401964753
0.023299999999999876,-0.021404581966958002
0.022299999999999875,-0.021461170418952607
0.021299999999999875,-0.02150361175794856
0.020299999999999874,-0.021546053096944507
0.019299999999999873,-0.02157434732294181
0.018299999999999872,-0.021645082887935062
0.01729999999999987,-0.021687524226931015
0.01629999999999987,-0.021715818452928314
0.01529999999999987,-0.021772406904922915
0.014299999999999868,-0.021828995356917517
0.013299999999999867,-0.021885583808912118
0.012299999999999978,-0.021956319373905367
0.011299999999999866,-0.02197046648690402
0.010299999999999976,-0.022027054938898623
0.009299999999999864,-0.022069496277894573
0.008299999999999974,-0.022126084729889174
0.007299999999999862,-0.02218267318188378
0.006299999999999972,-0.022225114520879725
0.00529999999999986,-0.02226755585987568
0.0042999999999999705,-0.02230999719887163
0.0032999999999998586,-0.022366585650866227
0.0022999999999999687,-0.022437321215859483
0.0012999999999998568,-0.022465615441856785
0.00029999999999996696,-0.022493909667854084
-0.000700000000000145,-0.022536351006850038
-0.0017000000000000348,-0.022592939458844635
-0.0027000000000001467,-0.022663675023837888
-0.0037000000000000366,-0.02270611636283384
-0.0047000000000001485,-0.02273441058883114
-0.005700000000000038,-0.02277685192782709
-0.00670000000000015,-0.022861734605818994
-0.00770000000000004,-0.022890028831816296
-0.008700000000000152,-0.022932470170812246
-0.009700000000000042,-0.022974911509808196
-0.010700000000000154,-0.023045647074801445
-0.011700000000000044,-0.023116382639794698
-0.012700000000000156,-0.023144676865792004
-0.013700000000000045,-0.02318711820478795
-0.014700000000000157,-0.02324370665678255
-0.015700000000000047,-0.023257853769781203
-0.01670000000000016,-0.023356883560771757
-0.01770000000000005,-0.02338517778676906
-0.01870000000000016,-0.023427619125765006
-0.01970000000000005,-0.023484207577759608
-0.020700000000000163,-0.023498354690758262
-0.021700000000000053,-0.02356909025575151
-0.022700000000000164,-0.023639825820744764
-0.023700000000000054,-0.023682267159740714
-0.024700000000000166,-0.02373885561173532
-0.025700000000000056,-0.023753002724733966
-0.026700000000000168,-0.023809591176728567
-0.027700000000000058,-0.02388032674172182
-0.02870000000000017,-0.02389447385472047
-0.02970000000000006,-0.02395106230671507
-0.03070000000000017,-0.02400765075870967
-0.03170000000000006,-0.024078386323702922
-0.03270000000000017,-0.024134974775697527
-0.03370000000000006,-0.024149121888696175
-0.034700000000000175,-0.024191563227692125
-0.035700000000000065,-0.02424815167968673
-0.03670000000000018,-0.024304740131681327
-0.03770000000000007,-0.02434718147067728
-0.03870000000000018,-0.024375475696674583
-0.03970000000000007,-0.024432064148669184
-0.04070000000000018,-0.02447450548766513
-0.04170000000000007,-0.02453109393965974
-0.04270000000000018,-0.024601829504652988
-0.04370000000000007,-0.02465841795664759
-0.044700000000000184,-0.02468671218264489
-0.045700000000000074,-0.02474330063463949
-0.046700000000000186,-0.02479988908663409
-0.047700000000000076,-0.024856477538628696
-0.04870000000000019,-0.024884771764625994
-0.04970000000000008,-0.0249413602166206
-0.05070000000000019,-0.024983801555616546
-0.05170000000000008,-0.0250545371206098
-0.05270000000000019,-0.0250828313466071
-0.05370000000000008,-0.025139419798601705
-0.05470000000000019,-0.025167714024599004
-0.05570000000000008,-0.025210155363594954
-0.056700000000000195,-0.025295038041586858
-0.057700000000000085,-0.025337479380582808
-0.058700000000000196,-0.025365773606580107
-0.059700000000000086,-0.02540821494557606
-0.0607000000000002,-0.02543650917157336
-0.06170000000000009,-0.02554968607556256
-0.0627000000000002,-0.025634568753554465
