Potential V vs RHE, Current mA cm-2
0.013299999999999867,6.975941419634496
0.012299999999999978,5.3631705377883545
0.011299999999999866,4.098418635709011
0.010299999999999976,2.8322520223298033
0.009299999999999864,1.3934906303670611
0.008299999999999974,0.04140859974704963
0.007299999999999862,-1.0490084288499246
0.006299999999999972,-1.92117794521672
0.00529999999999986,-2.8379108675292635
0.0042999999999999705,-4.014950669016974
0.0032999999999998586,-5.105693081212917
0.0022999999999999687,-5.890857852638012
0.0012999999999998568,-6.54445447317566
0.00029999999999996696,-7.329619244600755
-0.000700000000000145,-8.288793505909249
-0.0017000000000000348,-9.205526428221793
-0.0027000000000001467,-9.902979099055257
-0.0037000000000000366,-10.42642228000532
-0.0047000000000001485,-11.081433611842833
-0.005700000000000038,-11.909039722263879
-0.00670000000000015,-12.73806054398479
-0.00770000000000004,-13.349215825526485
-0.008700000000000152,-13.784946905884919
-0.009700000000000042,-14.30273124163552
-0.010700000000000154,-15.094969569559943
-0.011700000000000044,-15.830619445489761
-0.012700000000000156,-16.354062626439823
-0.013700000000000045,-16.70774045140608
-0.014700000000000157,-17.188742293360193
-0.015700000000000047,-17.881950830294063
-0.01670000000000016,-18.589306480226583
-0.01770000000000005,-19.112749661176647
-0.01870000000000016,-19.409839034148305
-0.01970000000000005,-19.848399537106463
-0.020700000000000163,-20.456725396048434
-0.021700000000000053,-21.149933932982297
-0.022700000000000164,-21.54605309694451
-0.023700000000000054,-21.814848243918867
-0.024700000000000166,-22.196820294882425
-0.025700000000000056,-22.861734605818995
-0.026700000000000168,-23.47006046476096
-0.027700000000000058,-23.908620967719123
-0.02870000000000017,-24.16326900169483
-0.02970000000000006,-24.559388165657033
-0.03070000000000017,-25.167714024599
-0.03170000000000006,-25.77603988354097
-0.03270000000000017,-26.17215904750318
-0.03370000000000006,-26.440954194477534
-0.034700000000000175,-26.780484906445146
-0.035700000000000065,-27.38881076538711
-0.03670000000000018,-28.011283737327723
-0.03770000000000007,-28.350814449295335
-0.03870000000000018,-28.619609596269694
-0.03970000000000007,-28.959140308237306
-0.04070000000000018,-29.62405461917387
-0.04170000000000007,-30.232380478115836
-0.04270000000000018,-30.670940981073993
-0.04370000000000007,-30.925589015049702
-0.044700000000000184,-31.321708179011907
-0.045700000000000074,-31.930034037953877
-0.046700000000000186,-32.49591855789989
-0.047700000000000076,-32.807155043870196
-0.04870000000000019,-33.01936173884996
-0.04970000000000008,-33.330598224820264
-0.05070000000000019,-33.89648274476628
-0.05170000000000008,-34.58969128170015
-0.05270000000000019,-35.02825178465831
-0.05370000000000008,-35.38192960962457
-0.05470000000000019,-35.763901660588125
-0.05570000000000008,-36.4288159715247
-0.056700000000000195,-37.037141830466666
-0.057700000000000085,-37.41911388143023
-0.058700000000000196,-37.645467689408626
-0.059700000000000086,-38.04158685337084
-0.0607000000000002,-38.6499127123128
-0.06170000000000009,-39.30067991025072
-0.0627000000000002,-39.654357735216976
-0.06370000000000009,-39.86656443019674
-0.0647000000000002,-40.220242255162994
-0.06570000000000009,-40.828568114104954
-0.0667000000000002,-41.39445263405098
-0.0677000000000001,-41.74813045901723
-0.0687000000000002,-41.96033715399699
-0.0697000000000001,-42.39889765695515
-0.07070000000000021,-43.007223515897124
-0.0717000000000001,-43.57310803584313
-0.07270000000000021,-44.011668538801295
-0.0737000000000001,-44.3229050247716
-0.07470000000000021,-44.74731841473111
-0.0757000000000001,-45.412232725667685
-0.07670000000000021,-45.97811724561369
-0.0777000000000001,-46.37423640957591
-0.07870000000000021,-46.67132578254756
-0.0797000000000001,-47.067444946509774
-0.08070000000000022,-47.71821214444768
-0.0817000000000001,-48.36897934238561
-0.08270000000000022,-48.76509850634781
-0.08370000000000011,-49.03389365332217
-0.08470000000000022,-49.458307043281685
-0.08570000000000011,-50.1656626932142
-0.08670000000000022,-50.81642989115212
-0.08770000000000011,-51.21254905511432
-0.08870000000000022,-51.509638428085985
-0.08970000000000011,-51.948198931044146
-0.09070000000000022,-52.69799591997262
-0.09170000000000011,-53.433645795902436
-0.09270000000000023,-53.872206298860604
-0.09370000000000012,-54.08441299384035
-0.09470000000000023,-54.52297349679851
-0.09570000000000012,-55.17374069473642
-0.09670000000000023,-55.881096344668954
-0.09770000000000012,-56.30550973462846
-0.09870000000000023,-56.53186354260687
-0.09970000000000012,-56.97042404556503
-0.10070000000000023,-57.66363258249889
-0.10170000000000012,-58.31439978043681
-0.10270000000000024,-58.75296028339497
-0.10370000000000013,-59.02175543036933
-0.10470000000000024,-59.403727481332886
-0.10570000000000013,-60.11108313126541
-0.10670000000000024,-60.761850329203334
-0.10770000000000013,-61.242852171157445
-0.10870000000000024,-61.49750020513315
-0.10970000000000013,-61.89361936909536
-0.11070000000000024,-62.58682790602922
-0.11170000000000013,-63.20930087796983
-0.11270000000000002,-63.6761556069253
-0.11370000000000013,-63.98739209289561
-0.11470000000000002,-64.38351125685783
-0.11570000000000014,-65.03427845479574
-0.11670000000000003,-65.7274869917296
-0.11770000000000014,-66.20848883368372
-0.11870000000000003,-66.51972531965401
-0.11970000000000014,-67.00072716160814
-0.12070000000000003,-67.65149435954605
-0.12170000000000014,-68.30226155748396
-0.12270000000000003,-68.69838072144618
-0.12370000000000014,-68.96717586842054
-0.12470000000000003,-69.39158925838004
-0.12570000000000014,-70.14138624730852
-0.12670000000000003,-70.87703612323833
-0.12770000000000015,-71.31559662619651
-0.12870000000000004,-71.52780332117625
-0.12970000000000015,-71.92392248513846
-0.13070000000000004,-72.67371947406694
-0.13170000000000015,-73.3669280110008
-0.13270000000000004,-73.80548851395896
-0.13370000000000015,-74.10257788693062
-0.13470000000000004,-74.54113838988879
-0.13570000000000015,-75.19190558782671
-0.13670000000000004,-75.85681989876326
-0.13770000000000016,-76.29538040172143
-0.13870000000000005,-76.63491111368903
-0.13970000000000016,-77.0734716166472
-0.14070000000000005,-77.7242388145851
-0.14170000000000016,-78.43159446451764
-0.14270000000000005,-78.91259630647174
-0.14370000000000016,-79.20968567944341
-0.14470000000000005,-79.64824618240156
-0.14570000000000016,-80.34145471933543
-0.14670000000000005,-80.99222191727335
-0.14770000000000016,-81.47322375922747
-0.14870000000000005,-81.78446024519776
-0.14970000000000017,-82.22302074815593
-0.15070000000000006,-82.87378794609386
-0.15170000000000017,-83.56699648302772
-0.15270000000000006,-84.09043966397778
-0.15370000000000017,-84.48655882793999
-0.15470000000000006,-84.92511933089816
-0.15570000000000017,-85.49100385084417
-0.15670000000000006,-86.09932970978613
-0.15770000000000017,-86.5378902127443
-0.15870000000000006,-86.80668535971866
-0.15970000000000018,-87.18865741068221
-0.16070000000000007,-87.85357172161878
-0.16170000000000018,-88.63166293654454
-0.16270000000000007,-89.15510611749461
-0.16370000000000018,-89.42390126446898
-0.16470000000000007,-89.89075599342443
-0.16570000000000018,-90.6405529823529
-0.16670000000000007,-91.37620285828272
-0.16770000000000018,-91.81476336124088
-0.16870000000000007,-92.16844118620713
-0.16970000000000018,-92.6070016891653
-0.17070000000000007,-93.34265156509512
-0.17170000000000019,-94.03586010202899
-0.17270000000000008,-94.5168619439831
-0.1737000000000002,-94.78565709095746
-0.17470000000000008,-95.08274646392913
-0.1757000000000002,-95.64863098387512
-0.17670000000000008,-96.27110395581576
-0.1777000000000002,-96.69551734577524
-0.17870000000000008,-96.96431249274961
-0.1797000000000002,-97.44531433470372
-0.18070000000000008,-98.18096421063355
-0.1817000000000002,-98.93076119956201
-0.18270000000000008,-99.35517458952152
-0.1837000000000002,-99.58152839749994
-0.1847000000000001,-100.06253023945405
-0.1857000000000002,-100.75573877638791
-0.1867000000000001,-101.44894731332178
-0.1877000000000002,-101.88750781627995
-0.1887000000000001,-102.1563029632543
-0.1897000000000002,-102.5524221272165
-0.1907000000000001,-103.28807200314633
-0.1917000000000001,-103.93883920108425
-0.19269999999999998,-104.46228238203432
-0.1937000000000001,-104.77351886800463
-0.19469999999999998,-105.21207937096277
-0.1957000000000001,-105.94772924689259
-0.19669999999999999,-106.68337912282242
-0.1977000000000001,-107.12193962578058
-0.1987,-107.39073477275493
-0.1997000000000001,-107.73026548472255
-0.2007,-108.3102971176672
-0.2017000000000001,-108.91862297660917
-0.2027,-109.25815368857677
-0.2037000000000001,-109.61183151354304
-0.2047,-110.05039201650122
-0.2057000000000001,-110.78604189243102
-0.2067,-111.5358388813595
-0.2077000000000001,-111.96025227131899
-0.2087,-112.22904741829338
-0.2097000000000001,-112.66760792125153
-0.2107,-113.36081645818538
-0.2117000000000001,-114.0115836561233
-0.2127,-114.40770282008553
-0.2137000000000001,-114.57746817606933
-0.2147,-114.88870466203963
-0.2157000000000001,-115.4970305209816
-0.2167,-116.20438617091412
-0.21770000000000012,-116.67124089986959
-0.2187,-117.02491872483584
-0.21970000000000012,-117.50592056678994
-0.2207,-118.15668776472786
-0.22170000000000012,-118.90648475365633
-0.2227,-119.51481061259831
-0.22370000000000012,-119.86848843756455
-0.2247,-120.25046048852812
-0.22570000000000012,-120.85878634747009
-0.2267,-121.52370065840667
-0.22770000000000012,-121.96226116136481
-0.22870000000000001,-122.1320265173486
-0.22970000000000013,-122.48570434231489
-0.23070000000000002,-123.2213542182447
-0.23170000000000013,-123.95700409417452
-0.23270000000000002,-124.48044727512458
-0.23370000000000013,-124.74924242209892
-0.23470000000000002,-125.10292024706521
-0.23570000000000013,-125.71124610600715
-0.23670000000000002,-126.40445464294103
-0.2376999999999999,-126.84301514589919
-0.23870000000000002,-127.09766317987489
-0.2396999999999999,-127.45134100484115
-0.24070000000000003,-128.05966686378312
-0.24169999999999991,-128.89434653070347
-0.24270000000000003,-129.5451137286414
-0.24369999999999992,-129.9412328926036
-0.24470000000000003,-130.32320494356716
-0.24569999999999992,-130.98811925450374
-0.24670000000000003,-131.68132779143764
-0.24769999999999992,-131.99256427740792
-0.24870000000000003,-132.16232963339172
-0.24969999999999992,-132.516007458358
-0.25070000000000003,-133.03945063930803
-0.2516999999999999,-133.64777649825
-0.25270000000000004,-134.08633700120816
-0.2536999999999999,-134.42586771317576
-0.25470000000000004,-135.03419357211774
-0.2556999999999999,-135.82643190004217
-0.25670000000000004,-136.60452311496792
-0.25769999999999993,-137.04308361792607
-0.25870000000000004,-137.22699608690854
-0.25969999999999993,-137.48164412088425
-0.26070000000000004,-137.9626459628384
-0.26169999999999993,-138.57097182178035
-0.26270000000000004,-139.0095323247385
-0.26369999999999993,-139.3207688107088
-0.26470000000000005,-139.9290946696508
-0.26569999999999994,-140.74962722357247
-0.26670000000000005,-141.41454153450906
-0.26769999999999994,-141.89554337646317
-0.26870000000000005,-142.03701450644968
-0.26969999999999994,-142.4614278964092
-0.27070000000000005,-143.0273124163552
-0.27169999999999994,-143.5931969363012
-0.27270000000000005,-143.87613919627424
-0.27369999999999994,-144.30055258623375
-0.27470000000000006,-144.72496597619326
-0.27569999999999995,-145.57379275611228
-0.27670000000000006,-146.1396772760583
-0.27769999999999995,-146.5640906660178
-0.27870000000000006,-146.7055617960043
-0.27969999999999995,-147.1299751859638
-0.28070000000000006,-147.6958597059098
-0.28169999999999995,-148.40321535584232
-0.28270000000000006,-148.68615761581535
-0.28369999999999995,-148.82762874580186
-0.28470000000000006,-149.1105710057749
-0.28569999999999995,-149.6764555257209
-0.28670000000000007,-150.24234004566688
-0.28769999999999996,-150.66675343562642
-0.28870000000000007,-150.8082245656129
-0.28969999999999996,-151.09116682558593
-0.29070000000000007,-151.65705134553193
-0.29169999999999996,-152.36440699546444
-0.29270000000000007,-152.78882038542397
-0.29369999999999996,-152.93029151541046
-0.2947000000000001,-153.21323377538346
-0.29569999999999996,-153.77911829532948
-0.2967000000000001,-154.486473945262
-0.29769999999999996,-154.9108873352215
-0.2987000000000001,-155.05235846520802
-0.29969999999999997,-155.33530072518104
-0.3007000000000001,-155.90118524512707
-0.30169999999999997,-156.32559863508658
-0.3027000000000001,-156.60854089505958
-0.30369999999999997,-156.75001202504606
-0.3047000000000001,-157.03295428501906
-0.30569999999999997,-157.45736767497857
-0.3067000000000001,-158.02325219492457
-0.3077,-158.3061944548976
-0.3087000000000001,-158.3061944548976
-0.3097,-158.5891367148706
-0.3107000000000001,-159.29649236480313
-0.3117,-160.00384801473567
-0.3127000000000001,-160.28679027470866
-0.3137,-160.42826140469515
-0.3147000000000001,-160.8526747946547
-0.3157,-161.5600304445872
-0.3167000000000001,-161.84297270456022
-0.3177,-162.12591496453322
-0.3187000000000001,-162.2673860945197
-0.3197,-162.40885722450622
-0.3207000000000001,-162.8332706144657
-0.3217,-163.25768400442522
-0.3227000000000001,-163.54062626439824
-0.3237,-163.68209739438475
-0.3247000000000001,-163.82356852437124
-0.3257,-164.81386643427678
-0.3267000000000001,-165.5212220842093
-0.3277,-165.8041643441823
-0.3287000000000001,-165.94563547416882
-0.3297,-165.94563547416882
-0.3307000000000001,-166.51151999411482
-0.3317,-166.79446225408785
-0.3327000000000001,-166.93593338407433
-0.3337,-166.93593338407433
-0.3347000000000001,-167.07740451406085
-0.3357,-167.36034677403384
-0.3367000000000001,-167.6432890340068
-0.3377,-167.78476016399335
-0.3387000000000001,-167.78476016399335
-0.3397,-168.20917355395284
-0.3407000000000001,-168.77505807389886
-0.3417,-169.48241372383137
-0.3427000000000001,-169.7653559838044
-0.3437,-169.6238848538179
-0.3447000000000001,-169.7653559838044
-0.3457,-170.0482982437774
-0.3467000000000001,-170.0482982437774
-0.3477,-170.0482982437774
-0.3487000000000001,-169.9068271137909
-0.3497,-170.0482982437774
-0.3507000000000001,-170.61418276372342
-0.3517,-171.18006728366944
-0.3527000000000001,-171.18006728366944
-0.3537,-171.03859615368293
-0.3547000000000001,-170.89712502369645
-0.3557,-171.03859615368293
-0.35670000000000013,-171.32153841365593
-0.3577,-171.60448067362896
-0.35870000000000013,-171.88742293360195
-0.3597,-172.17036519357498
-0.36070000000000013,-172.45330745354798
-0.3617,-172.59477858353446
-0.3626999999999999,-172.59477858353446
-0.3637,-172.45330745354798
-0.3646999999999999,-172.73624971352098
-0.3657,-173.16066310348046
-0.3666999999999999,-173.58507649344
-0.3677,-173.72654762342648
-0.3686999999999999,-173.72654762342648
-0.36970000000000003,-173.58507649344
-0.3706999999999999,-173.58507649344
-0.37170000000000003,-173.86801875341303
-0.3726999999999999,-173.86801875341303
-0.37370000000000003,-173.72654762342648
-0.3746999999999999,-174.0094898833995
-0.37570000000000003,-174.43390327335902
-0.3766999999999999,-174.71684553333202
-0.37770000000000004,-174.85831666331853
-0.3786999999999999,-174.71684553333202
-0.37970000000000004,-174.71684553333202
-0.3806999999999999,-174.99978779330505
-0.38170000000000004,-175.28273005327804
-0.38269999999999993,-175.56567231325104
-0.38370000000000004,-175.56567231325104
-0.38469999999999993,-175.84861457322407
-0.38570000000000004,-176.4144990931701
-0.38669999999999993,-175.28273005327804
-0.38570000000000004,-171.60448067362896
-0.38469999999999993,-167.92623129397984
-0.38370000000000004,-164.53092417430375
-0.38269999999999993,-161.5600304445872
-0.38170000000000004,-158.87207897484362
-0.3806999999999999,-155.90118524512707
-0.37970000000000004,-152.93029151541046
-0.3786999999999999,-150.24234004566688
-0.37770000000000004,-147.83733083589632
-0.3766999999999999,-145.43232162612577
-0.37570000000000003,-142.7443701563822
-0.3746999999999999,-139.9290946696508
-0.37370000000000003,-137.2694374259045
-0.3726999999999999,-135.03419357211774
-0.37170000000000003,-132.81309683132966
-0.3706999999999999,-130.42223473455772
-0.36970000000000003,-127.93234284679528
-0.3686999999999999,-125.62636342801528
-0.3677,-123.4760022522204
-0.3666999999999999,-121.2549055114323
-0.3657,-118.82160207566443
-0.3646999999999999,-116.33171018790196
-0.3637,-114.1530547861098
-0.3626999999999999,-112.31393009628526
-0.3617,-110.48895251945936
-0.36070000000000013,-108.39517979565912
-0.3597,-106.21652439386696
-0.35870000000000013,-104.25007568705455
-0.3577,-102.5524221272165
-0.35670000000000013,-100.75573877638791
-0.3557,-98.7044073915836
-0.3547000000000001,-96.44086931179956
-0.3537,-94.47442060498715
-0.3527000000000001,-92.81920838414506
-0.3517,-91.20643750229891
-0.3507000000000001,-89.42390126446898
-0.3497,-87.45745255765657
-0.3487000000000001,-85.97200569279828
-0.3477,-84.75535397491434
-0.3467000000000001,-83.22746577106011
-0.3457,-81.51566509822342
-0.3447000000000001,-79.56336350440966
-0.3437,-77.80912149257702
-0.3427000000000001,-76.33782174071737
-0.3417,-74.89481621485504
-0.3407000000000001,-73.23960399401295
-0.3397,-71.44292064318435
-0.3387000000000001,-69.87259110033416
-0.3377,-68.52861536546239
-0.3367000000000001,-67.25537519558385
-0.3357,-65.7274869917296
-0.3347000000000001,-64.0722747708875
-0.3337,-62.58682790602922
-0.3327000000000001,-61.28529351015339
-0.3317,-60.06864179226946
-0.3307000000000001,-58.54075358841522
-0.3297,-56.88554136757313
-0.3287000000000001,-55.442535841710786
-0.3277,-54.26832546282281
-0.3267000000000001,-53.12240930993213
-0.3257,-51.82087491405629
-0.3247000000000001,-50.335428049198
-0.3237,-48.97730520132757
-0.3227000000000001,-47.93041883942744
-0.3217,-46.79864979953541
-0.3207000000000001,-45.45467406466363
-0.3197,-44.011668538801295
-0.3187000000000001,-42.752575481921404
-0.3177,-41.74813045901723
-0.3167000000000001,-40.743685436113054
-0.3157,-39.51288660523048
-0.3147000000000001,-38.12646953136274
-0.3137,-36.89567070048016
-0.3127000000000001,-35.94781412957058
-0.3117,-34.98581044566235
-0.3107000000000001,-33.81160006677438
-0.3097,-32.53835989689585
-0.3087000000000001,-31.40659085700382
-0.3077,-30.487028512091538
-0.3067000000000001,-29.62405461917387
-0.30569999999999997,-28.435697127287238
-0.3047000000000001,-27.176604070407354
-0.30369999999999997,-26.044835030515326
-0.3027000000000001,-25.210155363594954
-0.30169999999999997,-24.389622809673234
-0.3007000000000001,-23.342736447773106
-0.29969999999999997,-22.111937616890522
-0.2987000000000001,-21.107492593986347
-0.29769999999999996,-20.286960040064624
-0.2967000000000001,-19.537163051136158
-0.29569999999999996,-18.53271802823198
-0.2947000000000001,-17.358507649344002
-0.29369999999999996,-16.396503965435777
-0.29270000000000007,-15.70329542850191
-0.29169999999999996,-14.925204213576137
-0.29070000000000007,-13.960371107068182
-0.28969999999999996,-12.869628694872238
-0.28870000000000007,-11.909039722263879
-0.28769999999999996,-11.211587051430415
-0.28670000000000007,-10.514134380596953
-0.28569999999999995,-9.59740145828441
-0.28470000000000006,-8.55051509638428
-0.28369999999999995,-7.679052935667419
-0.28270000000000006,-7.024041603829907
-0.28169999999999995,-6.37044498329226
-0.28070000000000006,-5.497568111275533
-0.27969999999999995,-4.494537799671222
-0.27870000000000006,-3.623075638954359
-0.27769999999999995,-3.0119203574126634
-0.27670000000000006,-2.4007650758709675
-0.27569999999999995,-1.5717442541500557
-0.27470000000000006,-0.6128529351015338
-0.27369999999999994,0.21588494435940458
-0.27270000000000005,0.8264743413811545
-0.27169999999999994,1.3934906303670611
-0.27070000000000005,2.178655401792157
-0.26969999999999994,3.1378296631006513
-0.26870000000000005,3.8791383842299307
-0.26769999999999994,4.44643761547581
