Jan. 14, 2025   12:46:02
Cyclic Voltammetry
File: c:/users/guazh/data/banditlqround7_x0exp772_r5/2025-01-10-exp843\exp843-2025-01-14t12_38_37-arkoh\exp843_cv_sr_500mvs_efin_-1400mv.bin
Data Source:  Experiment
Instrument Model:  CHI760E
Header: CV ran at 500 mVs
Note: 

Init E (V) = -1
High E (V) = -1
Low E (V) = -1.4
Final E (V) = -1
Init P/N = N
Scan Rate (V/s) = 0.5
Segment = 3
Sample Interval (V) = 0.001
Quiet Time (sec) = 2
Sensitivity (A/V) = 0.01
Comp R (ohm) = 1.6

Results:

Channel 1:
Segment 1:

Segment 2:

Segment 3:

Potential/V, Current/A

-1.000, -4.716e-4
-1.001, -3.390e-4
-1.002, -2.126e-4
-1.003, -9.850e-5
-1.004, 3.239e-6
-1.005, 9.573e-5
-1.006, 1.790e-4
-1.007, 2.622e-4
-1.008, 3.455e-4
-1.009, 4.349e-4
-1.010, 5.212e-4
-1.011, 6.075e-4
-1.012, 6.877e-4
-1.013, 7.555e-4
-1.014, 8.203e-4
-1.015, 8.788e-4
-1.016, 9.405e-4
-1.017, 1.011e-3
-1.018, 1.082e-3
-1.019, 1.153e-3
-1.020, 1.218e-3
-1.021, 1.270e-3
-1.022, 1.323e-3
-1.023, 1.369e-3
-1.024, 1.421e-3
-1.025, 1.480e-3
-1.026, 1.539e-3
-1.027, 1.600e-3
-1.028, 1.659e-3
-1.029, 1.708e-3
-1.030, 1.754e-3
-1.031, 1.795e-3
-1.032, 1.835e-3
-1.033, 1.884e-3
-1.034, 1.933e-3
-1.035, 1.989e-3
-1.036, 2.041e-3
-1.037, 2.091e-3
-1.038, 2.131e-3
-1.039, 2.168e-3
-1.040, 2.205e-3
-1.041, 2.245e-3
-1.042, 2.288e-3
-1.043, 2.340e-3
-1.044, 2.390e-3
-1.045, 2.436e-3
-1.046, 2.479e-3
-1.047, 2.513e-3
-1.048, 2.547e-3
-1.049, 2.584e-3
-1.050, 2.627e-3
-1.051, 2.673e-3
-1.052, 2.719e-3
-1.053, 2.766e-3
-1.054, 2.806e-3
-1.055, 2.837e-3
-1.056, 2.867e-3
-1.057, 2.901e-3
-1.058, 2.935e-3
-1.059, 2.978e-3
-1.060, 3.025e-3
-1.061, 3.074e-3
-1.062, 3.120e-3
-1.063, 3.157e-3
-1.064, 3.185e-3
-1.065, 3.219e-3
-1.066, 3.253e-3
-1.067, 3.296e-3
-1.068, 3.345e-3
-1.069, 3.395e-3
-1.070, 3.441e-3
-1.071, 3.478e-3
-1.072, 3.512e-3
-1.073, 3.543e-3
-1.074, 3.573e-3
-1.075, 3.617e-3
-1.076, 3.663e-3
-1.077, 3.712e-3
-1.078, 3.762e-3
-1.079, 3.799e-3
-1.080, 3.836e-3
-1.081, 3.869e-3
-1.082, 3.903e-3
-1.083, 3.943e-3
-1.084, 3.990e-3
-1.085, 4.039e-3
-1.086, 4.088e-3
-1.087, 4.135e-3
-1.088, 4.172e-3
-1.089, 4.202e-3
-1.090, 4.230e-3
-1.091, 4.267e-3
-1.092, 4.310e-3
-1.093, 4.363e-3
-1.094, 4.412e-3
-1.095, 4.461e-3
-1.096, 4.505e-3
-1.097, 4.542e-3
-1.098, 4.572e-3
-1.099, 4.612e-3
-1.100, 4.656e-3
-1.101, 4.705e-3
-1.102, 4.760e-3
-1.103, 4.810e-3
-1.104, 4.853e-3
-1.105, 4.893e-3
-1.106, 4.927e-3
-1.107, 4.964e-3
-1.108, 5.007e-3
-1.109, 5.056e-3
-1.110, 5.109e-3
-1.111, 5.155e-3
-1.112, 5.201e-3
-1.113, 5.241e-3
-1.114, 5.275e-3
-1.115, 5.312e-3
-1.116, 5.349e-3
-1.117, 5.393e-3
-1.118, 5.448e-3
-1.119, 5.500e-3
-1.120, 5.553e-3
-1.121, 5.596e-3
-1.122, 5.636e-3
-1.123, 5.673e-3
-1.124, 5.710e-3
-1.125, 5.759e-3
-1.126, 5.812e-3
-1.127, 5.870e-3
-1.128, 5.923e-3
-1.129, 5.969e-3
-1.130, 6.015e-3
-1.131, 6.049e-3
-1.132, 6.086e-3
-1.133, 6.129e-3
-1.134, 6.179e-3
-1.135, 6.231e-3
-1.136, 6.287e-3
-1.137, 6.333e-3
-1.138, 6.376e-3
-1.139, 6.416e-3
-1.140, 6.453e-3
-1.141, 6.496e-3
-1.142, 6.546e-3
-1.143, 6.601e-3
-1.144, 6.657e-3
-1.145, 6.706e-3
-1.146, 6.749e-3
-1.147, 6.789e-3
-1.148, 6.826e-3
-1.149, 6.863e-3
-1.150, 6.912e-3
-1.151, 6.962e-3
-1.152, 7.017e-3
-1.153, 7.067e-3
-1.154, 7.113e-3
-1.155, 7.156e-3
-1.156, 7.190e-3
-1.157, 7.230e-3
-1.158, 7.273e-3
-1.159, 7.326e-3
-1.160, 7.384e-3
-1.161, 7.440e-3
-1.162, 7.492e-3
-1.163, 7.535e-3
-1.164, 7.572e-3
-1.165, 7.606e-3
-1.166, 7.649e-3
-1.167, 7.702e-3
-1.168, 7.754e-3
-1.169, 7.810e-3
-1.170, 7.859e-3
-1.171, 7.902e-3
-1.172, 7.939e-3
-1.173, 7.979e-3
-1.174, 8.022e-3
-1.175, 8.075e-3
-1.176, 8.133e-3
-1.177, 8.192e-3
-1.178, 8.251e-3
-1.179, 8.294e-3
-1.180, 8.337e-3
-1.181, 8.377e-3
-1.182, 8.420e-3
-1.183, 8.463e-3
-1.184, 8.510e-3
-1.185, 8.562e-3
-1.186, 8.608e-3
-1.187, 8.661e-3
-1.188, 8.710e-3
-1.189, 8.756e-3
-1.190, 8.809e-3
-1.191, 8.858e-3
-1.192, 8.910e-3
-1.193, 8.960e-3
-1.194, 9.000e-3
-1.195, 9.040e-3
-1.196, 9.080e-3
-1.197, 9.111e-3
-1.198, 9.148e-3
-1.199, 9.191e-3
-1.200, 9.243e-3
-1.201, 9.296e-3
-1.202, 9.360e-3
-1.203, 9.419e-3
-1.204, 9.468e-3
-1.205, 9.512e-3
-1.206, 9.549e-3
-1.207, 9.589e-3
-1.208, 9.635e-3
-1.209, 9.690e-3
-1.210, 9.746e-3
-1.211, 9.801e-3
-1.212, 9.857e-3
-1.213, 9.900e-3
-1.214, 9.937e-3
-1.215, 9.971e-3
-1.216, 1.000e-2
-1.217, 1.005e-2
-1.218, 1.011e-2
-1.219, 1.017e-2
-1.220, 1.023e-2
-1.221, 1.027e-2
-1.222, 1.032e-2
-1.223, 1.035e-2
-1.224, 1.038e-2
-1.225, 1.043e-2
-1.226, 1.048e-2
-1.227, 1.054e-2
-1.228, 1.059e-2
-1.229, 1.064e-2
-1.230, 1.068e-2
-1.231, 1.072e-2
-1.232, 1.076e-2
-1.233, 1.080e-2
-1.234, 1.086e-2
-1.235, 1.091e-2
-1.236, 1.097e-2
-1.237, 1.102e-2
-1.238, 1.106e-2
-1.239, 1.109e-2
-1.240, 1.113e-2
-1.241, 1.117e-2
-1.242, 1.123e-2
-1.243, 1.129e-2
-1.244, 1.135e-2
-1.245, 1.140e-2
-1.246, 1.144e-2
-1.247, 1.147e-2
-1.248, 1.150e-2
-1.249, 1.154e-2
-1.250, 1.159e-2
-1.251, 1.164e-2
-1.252, 1.170e-2
-1.253, 1.174e-2
-1.254, 1.178e-2
-1.255, 1.182e-2
-1.256, 1.185e-2
-1.257, 1.188e-2
-1.258, 1.192e-2
-1.259, 1.197e-2
-1.260, 1.203e-2
-1.261, 1.208e-2
-1.262, 1.213e-2
-1.263, 1.217e-2
-1.264, 1.220e-2
-1.265, 1.224e-2
-1.266, 1.228e-2
-1.267, 1.233e-2
-1.268, 1.239e-2
-1.269, 1.244e-2
-1.270, 1.249e-2
-1.271, 1.253e-2
-1.272, 1.255e-2
-1.273, 1.258e-2
-1.274, 1.261e-2
-1.275, 1.266e-2
-1.276, 1.272e-2
-1.277, 1.279e-2
-1.278, 1.286e-2
-1.279, 1.290e-2
-1.280, 1.294e-2
-1.281, 1.296e-2
-1.282, 1.299e-2
-1.283, 1.303e-2
-1.284, 1.308e-2
-1.285, 1.314e-2
-1.286, 1.318e-2
-1.287, 1.322e-2
-1.288, 1.325e-2
-1.289, 1.327e-2
-1.290, 1.330e-2
-1.291, 1.333e-2
-1.292, 1.339e-2
-1.293, 1.345e-2
-1.294, 1.352e-2
-1.295, 1.358e-2
-1.296, 1.363e-2
-1.297, 1.367e-2
-1.298, 1.372e-2
-1.299, 1.376e-2
-1.300, 1.382e-2
-1.301, 1.387e-2
-1.302, 1.391e-2
-1.303, 1.395e-2
-1.304, 1.399e-2
-1.305, 1.402e-2
-1.306, 1.405e-2
-1.307, 1.409e-2
-1.308, 1.413e-2
-1.309, 1.418e-2
-1.310, 1.423e-2
-1.311, 1.428e-2
-1.312, 1.433e-2
-1.313, 1.437e-2
-1.314, 1.441e-2
-1.315, 1.444e-2
-1.316, 1.448e-2
-1.317, 1.453e-2
-1.318, 1.459e-2
-1.319, 1.464e-2
-1.320, 1.469e-2
-1.321, 1.474e-2
-1.322, 1.476e-2
-1.323, 1.479e-2
-1.324, 1.482e-2
-1.325, 1.485e-2
-1.326, 1.490e-2
-1.327, 1.495e-2
-1.328, 1.500e-2
-1.329, 1.504e-2
-1.330, 1.506e-2
-1.331, 1.509e-2
-1.332, 1.512e-2
-1.333, 1.516e-2
-1.334, 1.521e-2
-1.335, 1.525e-2
-1.336, 1.528e-2
-1.337, 1.532e-2
-1.338, 1.536e-2
-1.339, 1.539e-2
-1.340, 1.543e-2
-1.341, 1.547e-2
-1.342, 1.551e-2
-1.343, 1.555e-2
-1.344, 1.560e-2
-1.345, 1.565e-2
-1.346, 1.568e-2
-1.347, 1.570e-2
-1.348, 1.572e-2
-1.349, 1.574e-2
-1.350, 1.577e-2
-1.351, 1.581e-2
-1.352, 1.585e-2
-1.353, 1.589e-2
-1.354, 1.592e-2
-1.355, 1.594e-2
-1.356, 1.597e-2
-1.357, 1.600e-2
-1.358, 1.604e-2
-1.359, 1.608e-2
-1.360, 1.612e-2
-1.361, 1.616e-2
-1.362, 1.619e-2
-1.363, 1.621e-2
-1.364, 1.624e-2
-1.365, 1.626e-2
-1.366, 1.629e-2
-1.367, 1.633e-2
-1.368, 1.638e-2
-1.369, 1.643e-2
-1.370, 1.646e-2
-1.371, 1.648e-2
-1.372, 1.649e-2
-1.373, 1.650e-2
-1.374, 1.652e-2
-1.375, 1.655e-2
-1.376, 1.659e-2
-1.377, 1.664e-2
-1.378, 1.668e-2
-1.379, 1.672e-2
-1.380, 1.674e-2
-1.381, 1.676e-2
-1.382, 1.678e-2
-1.383, 1.681e-2
-1.384, 1.686e-2
-1.385, 1.690e-2
-1.386, 1.693e-2
-1.387, 1.695e-2
-1.388, 1.696e-2
-1.389, 1.697e-2
-1.390, 1.698e-2
-1.391, 1.700e-2
-1.392, 1.702e-2
-1.393, 1.706e-2
-1.394, 1.709e-2
-1.395, 1.712e-2
-1.396, 1.715e-2
-1.397, 1.716e-2
-1.398, 1.718e-2
-1.399, 1.719e-2
-1.400, 1.711e-2
-1.399, 1.686e-2
-1.398, 1.663e-2
-1.397, 1.641e-2
-1.396, 1.619e-2
-1.395, 1.596e-2
-1.394, 1.574e-2
-1.393, 1.552e-2
-1.392, 1.530e-2
-1.391, 1.509e-2
-1.390, 1.488e-2
-1.389, 1.468e-2
-1.388, 1.448e-2
-1.387, 1.428e-2
-1.386, 1.408e-2
-1.385, 1.389e-2
-1.384, 1.370e-2
-1.383, 1.351e-2
-1.382, 1.333e-2
-1.381, 1.315e-2
-1.380, 1.296e-2
-1.379, 1.278e-2
-1.378, 1.258e-2
-1.377, 1.238e-2
-1.376, 1.220e-2
-1.375, 1.202e-2
-1.374, 1.184e-2
-1.373, 1.167e-2
-1.372, 1.149e-2
-1.371, 1.131e-2
-1.370, 1.112e-2
-1.369, 1.094e-2
-1.368, 1.077e-2
-1.367, 1.061e-2
-1.366, 1.045e-2
-1.365, 1.030e-2
-1.364, 1.014e-2
-1.363, 9.986e-3
-1.362, 9.823e-3
-1.361, 9.660e-3
-1.360, 9.499e-3
-1.359, 9.345e-3
-1.358, 9.197e-3
-1.357, 9.055e-3
-1.356, 8.910e-3
-1.355, 8.765e-3
-1.354, 8.614e-3
-1.353, 8.457e-3
-1.352, 8.300e-3
-1.351, 8.146e-3
-1.350, 8.004e-3
-1.349, 7.865e-3
-1.348, 7.733e-3
-1.347, 7.603e-3
-1.346, 7.464e-3
-1.345, 7.316e-3
-1.344, 7.168e-3
-1.343, 7.023e-3
-1.342, 6.891e-3
-1.341, 6.768e-3
-1.340, 6.644e-3
-1.339, 6.521e-3
-1.338, 6.395e-3
-1.337, 6.259e-3
-1.336, 6.123e-3
-1.335, 5.988e-3
-1.334, 5.858e-3
-1.333, 5.735e-3
-1.332, 5.614e-3
-1.331, 5.500e-3
-1.330, 5.383e-3
-1.329, 5.257e-3
-1.328, 5.130e-3
-1.327, 5.004e-3
-1.326, 4.884e-3
-1.325, 4.770e-3
-1.324, 4.659e-3
-1.323, 4.554e-3
-1.322, 4.446e-3
-1.321, 4.332e-3
-1.320, 4.212e-3
-1.319, 4.088e-3
-1.318, 3.971e-3
-1.317, 3.860e-3
-1.316, 3.755e-3
-1.315, 3.660e-3
-1.314, 3.561e-3
-1.313, 3.462e-3
-1.312, 3.355e-3
-1.311, 3.244e-3
-1.310, 3.136e-3
-1.309, 3.034e-3
-1.308, 2.932e-3
-1.307, 2.840e-3
-1.306, 2.750e-3
-1.305, 2.655e-3
-1.304, 2.559e-3
-1.303, 2.451e-3
-1.302, 2.346e-3
-1.301, 2.248e-3
-1.300, 2.155e-3
-1.299, 2.072e-3
-1.298, 1.989e-3
-1.297, 1.906e-3
-1.296, 1.813e-3
-1.295, 1.714e-3
-1.294, 1.616e-3
-1.293, 1.517e-3
-1.292, 1.428e-3
-1.291, 1.344e-3
-1.290, 1.267e-3
-1.289, 1.190e-3
-1.288, 1.110e-3
-1.287, 1.021e-3
-1.286, 9.313e-4
-1.285, 8.418e-4
-1.284, 7.555e-4
-1.283, 6.784e-4
-1.282, 6.075e-4
-1.281, 5.366e-4
-1.280, 4.626e-4
-1.279, 3.794e-4
-1.278, 2.961e-4
-1.277, 2.067e-4
-1.276, 1.235e-4
-1.275, 4.949e-5
-1.274, -1.834e-5
-1.273, -8.309e-5
-1.272, -1.509e-4
-1.271, -2.249e-4
-1.270, -3.051e-4
-1.269, -3.852e-4
-1.268, -4.654e-4
-1.267, -5.363e-4
-1.266, -6.011e-4
-1.265, -6.627e-4
-1.264, -7.213e-4
-1.263, -7.891e-4
-1.262, -8.631e-4
-1.261, -9.371e-4
-1.260, -1.014e-3
-1.259, -1.082e-3
-1.258, -1.147e-3
-1.257, -1.202e-3
-1.256, -1.255e-3
-1.255, -1.316e-3
-1.254, -1.381e-3
-1.253, -1.455e-3
-1.252, -1.529e-3
-1.251, -1.597e-3
-1.250, -1.655e-3
-1.249, -1.711e-3
-1.248, -1.763e-3
-1.247, -1.819e-3
-1.246, -1.881e-3
-1.245, -1.945e-3
-1.244, -2.013e-3
-1.243, -2.078e-3
-1.242, -2.136e-3
-1.241, -2.189e-3
-1.240, -2.235e-3
-1.239, -2.284e-3
-1.238, -2.337e-3
-1.237, -2.399e-3
-1.236, -2.463e-3
-1.235, -2.528e-3
-1.234, -2.587e-3
-1.233, -2.639e-3
-1.232, -2.685e-3
-1.231, -2.731e-3
-1.230, -2.781e-3
-1.229, -2.839e-3
-1.228, -2.904e-3
-1.227, -2.966e-3
-1.226, -3.024e-3
-1.225, -3.077e-3
-1.224, -3.123e-3
-1.223, -3.169e-3
-1.222, -3.212e-3
-1.221, -3.265e-3
-1.220, -3.323e-3
-1.219, -3.382e-3
-1.218, -3.444e-3
-1.217, -3.496e-3
-1.216, -3.542e-3
-1.215, -3.582e-3
-1.214, -3.622e-3
-1.213, -3.672e-3
-1.212, -3.724e-3
-1.211, -3.783e-3
-1.210, -3.841e-3
-1.209, -3.891e-3
-1.208, -3.937e-3
-1.207, -3.977e-3
-1.206, -4.014e-3
-1.205, -4.057e-3
-1.204, -4.107e-3
-1.203, -4.162e-3
-1.202, -4.224e-3
-1.201, -4.279e-3
-1.200, -4.325e-3
-1.199, -4.366e-3
-1.198, -4.403e-3
-1.197, -4.443e-3
-1.196, -4.492e-3
-1.195, -4.541e-3
-1.194, -4.597e-3
-1.193, -4.649e-3
-1.192, -4.695e-3
-1.191, -4.736e-3
-1.190, -4.766e-3
-1.189, -4.800e-3
-1.188, -4.840e-3
-1.187, -4.887e-3
-1.186, -4.939e-3
-1.185, -4.991e-3
-1.184, -5.038e-3
-1.183, -5.078e-3
-1.182, -5.109e-3
-1.181, -5.139e-3
-1.180, -5.179e-3
-1.179, -5.223e-3
-1.178, -5.275e-3
-1.177, -5.331e-3
-1.176, -5.383e-3
-1.175, -5.429e-3
-1.174, -5.469e-3
-1.173, -5.512e-3
-1.172, -5.559e-3
-1.171, -5.605e-3
-1.170, -5.651e-3
-1.169, -5.701e-3
-1.168, -5.750e-3
-1.167, -5.793e-3
-1.166, -5.830e-3
-1.165, -5.867e-3
-1.164, -5.904e-3
-1.163, -5.947e-3
-1.162, -6.000e-3
-1.161, -6.058e-3
-1.160, -6.117e-3
-1.159, -6.166e-3
-1.158, -6.203e-3
-1.157, -6.234e-3
-1.156, -6.262e-3
-1.155, -6.296e-3
-1.154, -6.336e-3
-1.153, -6.379e-3
-1.152, -6.431e-3
-1.151, -6.481e-3
-1.150, -6.524e-3
-1.149, -6.558e-3
-1.148, -6.592e-3
-1.147, -6.625e-3
-1.146, -6.669e-3
-1.145, -6.712e-3
-1.144, -6.758e-3
-1.143, -6.801e-3
-1.142, -6.841e-3
-1.141, -6.875e-3
-1.140, -6.909e-3
-1.139, -6.943e-3
-1.138, -6.983e-3
-1.137, -7.029e-3
-1.136, -7.076e-3
-1.135, -7.128e-3
-1.134, -7.171e-3
-1.133, -7.208e-3
-1.132, -7.239e-3
-1.131, -7.267e-3
-1.130, -7.298e-3
-1.129, -7.341e-3
-1.128, -7.390e-3
-1.127, -7.439e-3
-1.126, -7.486e-3
-1.125, -7.523e-3
-1.124, -7.557e-3
-1.123, -7.590e-3
-1.122, -7.631e-3
-1.121, -7.674e-3
-1.120, -7.720e-3
-1.119, -7.772e-3
-1.118, -7.825e-3
-1.117, -7.874e-3
-1.116, -7.917e-3
-1.115, -7.964e-3
-1.114, -8.007e-3
-1.113, -8.050e-3
-1.112, -8.081e-3
-1.111, -8.127e-3
-1.110, -8.176e-3
-1.109, -8.216e-3
-1.108, -8.244e-3
-1.107, -8.256e-3
-1.106, -8.272e-3
-1.105, -8.296e-3
-1.104, -8.327e-3
-1.103, -8.367e-3
-1.102, -8.411e-3
-1.101, -8.454e-3
-1.100, -8.491e-3
-1.099, -8.522e-3
-1.098, -8.555e-3
-1.097, -8.596e-3
-1.096, -8.651e-3
-1.095, -8.707e-3
-1.094, -8.759e-3
-1.093, -8.811e-3
-1.092, -8.855e-3
-1.091, -8.895e-3
-1.090, -8.925e-3
-1.089, -8.959e-3
-1.088, -8.993e-3
-1.087, -9.036e-3
-1.086, -9.080e-3
-1.085, -9.126e-3
-1.084, -9.163e-3
-1.083, -9.188e-3
-1.082, -9.209e-3
-1.081, -9.234e-3
-1.080, -9.265e-3
-1.079, -9.308e-3
-1.078, -9.354e-3
-1.077, -9.406e-3
-1.076, -9.456e-3
-1.075, -9.496e-3
-1.074, -9.524e-3
-1.073, -9.548e-3
-1.072, -9.579e-3
-1.071, -9.622e-3
-1.070, -9.668e-3
-1.069, -9.715e-3
-1.068, -9.761e-3
-1.067, -9.798e-3
-1.066, -9.826e-3
-1.065, -9.853e-3
-1.064, -9.884e-3
-1.063, -9.918e-3
-1.062, -9.964e-3
-1.061, -1.001e-2
-1.060, -1.006e-2
-1.059, -1.010e-2
-1.058, -1.012e-2
-1.057, -1.015e-2
-1.056, -1.017e-2
-1.055, -1.020e-2
-1.054, -1.022e-2
-1.053, -1.026e-2
-1.052, -1.030e-2
-1.051, -1.033e-2
-1.050, -1.036e-2
-1.049, -1.038e-2
-1.048, -1.040e-2
-1.047, -1.042e-2
-1.046, -1.045e-2
-1.045, -1.049e-2
-1.044, -1.054e-2
-1.043, -1.058e-2
-1.042, -1.062e-2
-1.041, -1.066e-2
-1.040, -1.068e-2
-1.039, -1.070e-2
-1.038, -1.074e-2
-1.037, -1.078e-2
-1.036, -1.082e-2
-1.035, -1.086e-2
-1.034, -1.090e-2
-1.033, -1.093e-2
-1.032, -1.095e-2
-1.031, -1.097e-2
-1.030, -1.100e-2
-1.029, -1.103e-2
-1.028, -1.107e-2
-1.027, -1.111e-2
-1.026, -1.115e-2
-1.025, -1.119e-2
-1.024, -1.121e-2
-1.023, -1.123e-2
-1.022, -1.125e-2
-1.021, -1.129e-2
-1.020, -1.133e-2
-1.019, -1.137e-2
-1.018, -1.141e-2
-1.017, -1.144e-2
-1.016, -1.146e-2
-1.015, -1.148e-2
-1.014, -1.150e-2
-1.013, -1.153e-2
-1.012, -1.156e-2
-1.011, -1.160e-2
-1.010, -1.164e-2
-1.009, -1.168e-2
-1.008, -1.170e-2
-1.007, -1.172e-2
-1.006, -1.174e-2
-1.005, -1.176e-2
-1.004, -1.180e-2
-1.003, -1.184e-2
-1.002, -1.187e-2
-1.001, -1.191e-2
