Apr. 25, 2025   23:50:48
Cyclic Voltammetry
File: c:/users/guazh/data/banditlqround7_x0exp590_r20/2025-04-16-exp1190\exp1190-2025-04-25t23_36_21-h2koh\exp1190_cv_sr_200mvs_efin_-1700mv.bin
Data Source:  Experiment
Instrument Model:  CHI760E
Header: CV ran at 200 mVs
Note: 

Init E (V) = -1
High E (V) = -1
Low E (V) = -1.7
Final E (V) = -1
Init P/N = N
Scan Rate (V/s) = 0.2
Segment = 3
Sample Interval (V) = 0.001
Quiet Time (sec) = 2
Sensitivity (A/V) = 0.01
Comp R (ohm) = 1.6

Results:

Channel 1:
Segment 1:
Ep = -1.216V
ip = 1.267e-5A
Ah = 4.309e-6C

Segment 2:

Segment 3:

Potential/V, Current/A

-1.000, 8.700e-6
-1.001, 1.043e-5
-1.002, 1.228e-5
-1.003, 1.301e-5
-1.004, 1.190e-5
-1.005, 1.258e-5
-1.006, 1.422e-5
-1.007, 1.327e-5
-1.008, 1.268e-5
-1.009, 1.457e-5
-1.010, 1.424e-5
-1.011, 1.311e-5
-1.012, 1.459e-5
-1.013, 1.518e-5
-1.014, 1.372e-5
-1.015, 1.417e-5
-1.016, 1.562e-5
-1.017, 1.449e-5
-1.018, 1.432e-5
-1.019, 1.588e-5
-1.020, 1.519e-5
-1.021, 1.435e-5
-1.022, 1.548e-5
-1.023, 1.635e-5
-1.024, 1.483e-5
-1.025, 1.530e-5
-1.026, 1.664e-5
-1.027, 1.563e-5
-1.028, 1.509e-5
-1.029, 1.697e-5
-1.030, 1.605e-5
-1.031, 1.541e-5
-1.032, 1.660e-5
-1.033, 1.683e-5
-1.034, 1.570e-5
-1.035, 1.611e-5
-1.036, 1.759e-5
-1.037, 1.637e-5
-1.038, 1.594e-5
-1.039, 1.755e-5
-1.040, 1.696e-5
-1.041, 1.587e-5
-1.042, 1.745e-5
-1.043, 1.776e-5
-1.044, 1.639e-5
-1.045, 1.691e-5
-1.046, 1.827e-5
-1.047, 1.715e-5
-1.048, 1.645e-5
-1.049, 1.812e-5
-1.050, 1.780e-5
-1.051, 1.666e-5
-1.052, 1.797e-5
-1.053, 1.836e-5
-1.054, 1.700e-5
-1.055, 1.746e-5
-1.056, 1.895e-5
-1.057, 1.754e-5
-1.058, 1.734e-5
-1.059, 1.903e-5
-1.060, 1.841e-5
-1.061, 1.734e-5
-1.062, 1.852e-5
-1.063, 1.938e-5
-1.064, 1.768e-5
-1.065, 1.804e-5
-1.066, 1.995e-5
-1.067, 1.844e-5
-1.068, 1.790e-5
-1.069, 1.991e-5
-1.070, 1.910e-5
-1.071, 1.830e-5
-1.072, 1.933e-5
-1.073, 1.998e-5
-1.074, 1.883e-5
-1.075, 1.936e-5
-1.076, 2.046e-5
-1.077, 1.937e-5
-1.078, 1.890e-5
-1.079, 2.071e-5
-1.080, 1.994e-5
-1.081, 1.903e-5
-1.082, 2.062e-5
-1.083, 2.110e-5
-1.084, 1.929e-5
-1.085, 1.986e-5
-1.086, 2.145e-5
-1.087, 2.014e-5
-1.088, 1.966e-5
-1.089, 2.154e-5
-1.090, 2.118e-5
-1.091, 1.980e-5
-1.092, 2.134e-5
-1.093, 2.168e-5
-1.094, 2.046e-5
-1.095, 2.107e-5
-1.096, 2.230e-5
-1.097, 2.116e-5
-1.098, 2.083e-5
-1.099, 2.244e-5
-1.100, 2.207e-5
-1.101, 2.115e-5
-1.102, 2.238e-5
-1.103, 2.292e-5
-1.104, 2.156e-5
-1.105, 2.200e-5
-1.106, 2.349e-5
-1.107, 2.236e-5
-1.108, 2.196e-5
-1.109, 2.383e-5
-1.110, 2.287e-5
-1.111, 2.240e-5
-1.112, 2.364e-5
-1.113, 2.406e-5
-1.114, 2.298e-5
-1.115, 2.307e-5
-1.116, 2.497e-5
-1.117, 2.356e-5
-1.118, 2.328e-5
-1.119, 2.505e-5
-1.120, 2.442e-5
-1.121, 2.352e-5
-1.122, 2.504e-5
-1.123, 2.537e-5
-1.124, 2.423e-5
-1.125, 2.453e-5
-1.126, 2.617e-5
-1.127, 2.527e-5
-1.128, 2.485e-5
-1.129, 2.648e-5
-1.130, 2.626e-5
-1.131, 2.525e-5
-1.132, 2.668e-5
-1.133, 2.700e-5
-1.134, 2.592e-5
-1.135, 2.659e-5
-1.136, 2.782e-5
-1.137, 2.675e-5
-1.138, 2.655e-5
-1.139, 2.854e-5
-1.140, 2.795e-5
-1.141, 2.725e-5
-1.142, 2.816e-5
-1.143, 2.931e-5
-1.144, 2.776e-5
-1.145, 2.828e-5
-1.146, 3.010e-5
-1.147, 2.888e-5
-1.148, 2.868e-5
-1.149, 3.036e-5
-1.150, 3.000e-5
-1.151, 2.915e-5
-1.152, 3.055e-5
-1.153, 3.113e-5
-1.154, 3.001e-5
-1.155, 3.049e-5
-1.156, 3.218e-5
-1.157, 3.136e-5
-1.158, 3.096e-5
-1.159, 3.297e-5
-1.160, 3.224e-5
-1.161, 3.147e-5
-1.162, 3.285e-5
-1.163, 3.333e-5
-1.164, 3.230e-5
-1.165, 3.284e-5
-1.166, 3.460e-5
-1.167, 3.366e-5
-1.168, 3.296e-5
-1.169, 3.488e-5
-1.170, 3.464e-5
-1.171, 3.357e-5
-1.172, 3.528e-5
-1.173, 3.586e-5
-1.174, 3.459e-5
-1.175, 3.515e-5
-1.176, 3.646e-5
-1.177, 3.550e-5
-1.178, 3.538e-5
-1.179, 3.714e-5
-1.180, 3.682e-5
-1.181, 3.591e-5
-1.182, 3.714e-5
-1.183, 3.777e-5
-1.184, 3.654e-5
-1.185, 3.708e-5
-1.186, 3.875e-5
-1.187, 3.770e-5
-1.188, 3.723e-5
-1.189, 3.885e-5
-1.190, 3.867e-5
-1.191, 3.784e-5
-1.192, 3.883e-5
-1.193, 3.949e-5
-1.194, 3.845e-5
-1.195, 3.854e-5
-1.196, 4.022e-5
-1.197, 3.914e-5
-1.198, 3.863e-5
-1.199, 4.023e-5
-1.200, 3.974e-5
-1.201, 3.883e-5
-1.202, 3.991e-5
-1.203, 4.056e-5
-1.204, 3.941e-5
-1.205, 3.949e-5
-1.206, 4.104e-5
-1.207, 3.994e-5
-1.208, 3.947e-5
-1.209, 4.093e-5
-1.210, 4.059e-5
-1.211, 3.935e-5
-1.212, 4.064e-5
-1.213, 4.082e-5
-1.214, 3.951e-5
-1.215, 4.005e-5
-1.216, 4.119e-5
-1.217, 4.011e-5
-1.218, 3.935e-5
-1.219, 4.108e-5
-1.220, 4.041e-5
-1.221, 3.941e-5
-1.222, 4.044e-5
-1.223, 4.109e-5
-1.224, 3.951e-5
-1.225, 3.974e-5
-1.226, 4.107e-5
-1.227, 3.982e-5
-1.228, 3.912e-5
-1.229, 4.089e-5
-1.230, 4.004e-5
-1.231, 3.919e-5
-1.232, 3.995e-5
-1.233, 4.046e-5
-1.234, 3.914e-5
-1.235, 3.903e-5
-1.236, 4.070e-5
-1.237, 3.924e-5
-1.238, 3.866e-5
-1.239, 4.006e-5
-1.240, 3.933e-5
-1.241, 3.825e-5
-1.242, 3.937e-5
-1.243, 3.971e-5
-1.244, 3.831e-5
-1.245, 3.824e-5
-1.246, 3.961e-5
-1.247, 3.863e-5
-1.248, 3.786e-5
-1.249, 3.911e-5
-1.250, 3.884e-5
-1.251, 3.744e-5
-1.252, 3.855e-5
-1.253, 3.873e-5
-1.254, 3.732e-5
-1.255, 3.744e-5
-1.256, 3.893e-5
-1.257, 3.750e-5
-1.258, 3.702e-5
-1.259, 3.820e-5
-1.260, 3.798e-5
-1.261, 3.682e-5
-1.262, 3.763e-5
-1.263, 3.813e-5
-1.264, 3.688e-5
-1.265, 3.684e-5
-1.266, 3.827e-5
-1.267, 3.699e-5
-1.268, 3.653e-5
-1.269, 3.801e-5
-1.270, 3.706e-5
-1.271, 3.625e-5
-1.272, 3.716e-5
-1.273, 3.751e-5
-1.274, 3.640e-5
-1.275, 3.626e-5
-1.276, 3.788e-5
-1.277, 3.659e-5
-1.278, 3.572e-5
-1.279, 3.735e-5
-1.280, 3.702e-5
-1.281, 3.581e-5
-1.282, 3.672e-5
-1.283, 3.714e-5
-1.284, 3.581e-5
-1.285, 3.612e-5
-1.286, 3.758e-5
-1.287, 3.648e-5
-1.288, 3.587e-5
-1.289, 3.726e-5
-1.290, 3.694e-5
-1.291, 3.563e-5
-1.292, 3.675e-5
-1.293, 3.729e-5
-1.294, 3.599e-5
-1.295, 3.589e-5
-1.296, 3.719e-5
-1.297, 3.631e-5
-1.298, 3.566e-5
-1.299, 3.702e-5
-1.300, 3.675e-5
-1.301, 3.556e-5
-1.302, 3.667e-5
-1.303, 3.730e-5
-1.304, 3.587e-5
-1.305, 3.621e-5
-1.306, 3.763e-5
-1.307, 3.618e-5
-1.308, 3.562e-5
-1.309, 3.738e-5
-1.310, 3.693e-5
-1.311, 3.588e-5
-1.312, 3.678e-5
-1.313, 3.725e-5
-1.314, 3.615e-5
-1.315, 3.635e-5
-1.316, 3.763e-5
-1.317, 3.665e-5
-1.318, 3.601e-5
-1.319, 3.764e-5
-1.320, 3.702e-5
-1.321, 3.608e-5
-1.322, 3.726e-5
-1.323, 3.772e-5
-1.324, 3.636e-5
-1.325, 3.670e-5
-1.326, 3.806e-5
-1.327, 3.692e-5
-1.328, 3.647e-5
-1.329, 3.797e-5
-1.330, 3.739e-5
-1.331, 3.647e-5
-1.332, 3.750e-5
-1.333, 3.801e-5
-1.334, 3.698e-5
-1.335, 3.683e-5
-1.336, 3.834e-5
-1.337, 3.721e-5
-1.338, 3.701e-5
-1.339, 3.823e-5
-1.340, 3.788e-5
-1.341, 3.693e-5
-1.342, 3.792e-5
-1.343, 3.862e-5
-1.344, 3.721e-5
-1.345, 3.742e-5
-1.346, 3.884e-5
-1.347, 3.773e-5
-1.348, 3.745e-5
-1.349, 3.891e-5
-1.350, 3.855e-5
-1.351, 3.754e-5
-1.352, 3.845e-5
-1.353, 3.898e-5
-1.354, 3.785e-5
-1.355, 3.821e-5
-1.356, 3.963e-5
-1.357, 3.886e-5
-1.358, 3.826e-5
-1.359, 3.984e-5
-1.360, 3.930e-5
-1.361, 3.854e-5
-1.362, 3.971e-5
-1.363, 4.020e-5
-1.364, 3.893e-5
-1.365, 3.940e-5
-1.366, 4.076e-5
-1.367, 3.988e-5
-1.368, 3.926e-5
-1.369, 4.103e-5
-1.370, 4.068e-5
-1.371, 3.967e-5
-1.372, 4.095e-5
-1.373, 4.166e-5
-1.374, 4.044e-5
-1.375, 4.081e-5
-1.376, 4.239e-5
-1.377, 4.162e-5
-1.378, 4.117e-5
-1.379, 4.253e-5
-1.380, 4.225e-5
-1.381, 4.178e-5
-1.382, 4.279e-5
-1.383, 4.359e-5
-1.384, 4.240e-5
-1.385, 4.290e-5
-1.386, 4.456e-5
-1.387, 4.351e-5
-1.388, 4.312e-5
-1.389, 4.493e-5
-1.390, 4.464e-5
-1.391, 4.392e-5
-1.392, 4.505e-5
-1.393, 4.575e-5
-1.394, 4.470e-5
-1.395, 4.522e-5
-1.396, 4.689e-5
-1.397, 4.582e-5
-1.398, 4.563e-5
-1.399, 4.743e-5
-1.400, 4.692e-5
-1.401, 4.619e-5
-1.402, 4.783e-5
-1.403, 4.856e-5
-1.404, 4.740e-5
-1.405, 4.761e-5
-1.406, 4.930e-5
-1.407, 4.846e-5
-1.408, 4.814e-5
-1.409, 5.008e-5
-1.410, 4.997e-5
-1.411, 4.909e-5
-1.412, 5.036e-5
-1.413, 5.125e-5
-1.414, 5.010e-5
-1.415, 5.076e-5
-1.416, 5.230e-5
-1.417, 5.148e-5
-1.418, 5.136e-5
-1.419, 5.291e-5
-1.420, 5.265e-5
-1.421, 5.218e-5
-1.422, 5.351e-5
-1.423, 5.468e-5
-1.424, 5.312e-5
-1.425, 5.365e-5
-1.426, 5.549e-5
-1.427, 5.474e-5
-1.428, 5.437e-5
-1.429, 5.632e-5
-1.430, 5.616e-5
-1.431, 5.557e-5
-1.432, 5.676e-5
-1.433, 5.776e-5
-1.434, 5.695e-5
-1.435, 5.744e-5
-1.436, 5.914e-5
-1.437, 5.867e-5
-1.438, 5.835e-5
-1.439, 6.033e-5
-1.440, 6.023e-5
-1.441, 5.985e-5
-1.442, 6.120e-5
-1.443, 6.212e-5
-1.444, 6.111e-5
-1.445, 6.193e-5
-1.446, 6.369e-5
-1.447, 6.335e-5
-1.448, 6.310e-5
-1.449, 6.525e-5
-1.450, 6.533e-5
-1.451, 6.483e-5
-1.452, 6.639e-5
-1.453, 6.761e-5
-1.454, 6.708e-5
-1.455, 6.781e-5
-1.456, 6.962e-5
-1.457, 6.952e-5
-1.458, 6.983e-5
-1.459, 7.175e-5
-1.460, 7.215e-5
-1.461, 7.201e-5
-1.462, 7.384e-5
-1.463, 7.517e-5
-1.464, 7.486e-5
-1.465, 7.593e-5
-1.466, 7.828e-5
-1.467, 7.823e-5
-1.468, 7.880e-5
-1.469, 8.150e-5
-1.470, 8.228e-5
-1.471, 8.267e-5
-1.472, 8.465e-5
-1.473, 8.677e-5
-1.474, 8.710e-5
-1.475, 8.852e-5
-1.476, 9.137e-5
-1.477, 9.226e-5
-1.478, 9.344e-5
-1.479, 9.662e-5
-1.480, 9.799e-5
-1.481, 9.903e-5
-1.482, 1.020e-4
-1.483, 1.044e-4
-1.484, 1.058e-4
-1.485, 1.084e-4
-1.486, 1.118e-4
-1.487, 1.138e-4
-1.488, 1.159e-4
-1.489, 1.198e-4
-1.490, 1.228e-4
-1.491, 1.250e-4
-1.492, 1.289e-4
-1.493, 1.331e-4
-1.494, 1.358e-4
-1.495, 1.396e-4
-1.496, 1.448e-4
-1.497, 1.483e-4
-1.498, 1.523e-4
-1.499, 1.578e-4
-1.500, 1.625e-4
-1.501, 1.669e-4
-1.502, 1.726e-4
-1.503, 1.788e-4
-1.504, 1.837e-4
-1.505, 1.892e-4
-1.506, 1.969e-4
-1.507, 2.028e-4
-1.508, 2.089e-4
-1.509, 2.170e-4
-1.510, 2.239e-4
-1.511, 2.307e-4
-1.512, 2.386e-4
-1.513, 2.473e-4
-1.514, 2.547e-4
-1.515, 2.632e-4
-1.516, 2.734e-4
-1.517, 2.820e-4
-1.518, 2.907e-4
-1.519, 3.016e-4
-1.520, 3.113e-4
-1.521, 3.211e-4
-1.522, 3.319e-4
-1.523, 3.439e-4
-1.524, 3.542e-4
-1.525, 3.651e-4
-1.526, 3.779e-4
-1.527, 3.898e-4
-1.528, 4.011e-4
-1.529, 4.145e-4
-1.530, 4.272e-4
-1.531, 4.395e-4
-1.532, 4.534e-4
-1.533, 4.680e-4
-1.534, 4.813e-4
-1.535, 4.948e-4
-1.536, 5.111e-4
-1.537, 5.257e-4
-1.538, 5.397e-4
-1.539, 5.567e-4
-1.540, 5.729e-4
-1.541, 5.874e-4
-1.542, 6.038e-4
-1.543, 6.220e-4
-1.544, 6.376e-4
-1.545, 6.540e-4
-1.546, 6.734e-4
-1.547, 6.906e-4
-1.548, 7.068e-4
-1.549, 7.257e-4
-1.550, 7.444e-4
-1.551, 7.621e-4
-1.552, 7.805e-4
-1.553, 8.010e-4
-1.554, 8.199e-4
-1.555, 8.384e-4
-1.556, 8.601e-4
-1.557, 8.805e-4
-1.558, 8.988e-4
-1.559, 9.203e-4
-1.560, 9.416e-4
-1.561, 9.615e-4
-1.562, 9.834e-4
-1.563, 1.006e-3
-1.564, 1.027e-3
-1.565, 1.048e-3
-1.566, 1.072e-3
-1.567, 1.094e-3
-1.568, 1.115e-3
-1.569, 1.138e-3
-1.570, 1.161e-3
-1.571, 1.183e-3
-1.572, 1.205e-3
-1.573, 1.229e-3
-1.574, 1.251e-3
-1.575, 1.274e-3
-1.576, 1.300e-3
-1.577, 1.324e-3
-1.578, 1.347e-3
-1.579, 1.372e-3
-1.580, 1.398e-3
-1.581, 1.421e-3
-1.582, 1.445e-3
-1.583, 1.473e-3
-1.584, 1.497e-3
-1.585, 1.521e-3
-1.586, 1.549e-3
-1.587, 1.576e-3
-1.588, 1.600e-3
-1.589, 1.628e-3
-1.590, 1.656e-3
-1.591, 1.681e-3
-1.592, 1.707e-3
-1.593, 1.736e-3
-1.594, 1.763e-3
-1.595, 1.789e-3
-1.596, 1.818e-3
-1.597, 1.846e-3
-1.598, 1.872e-3
-1.599, 1.901e-3
-1.600, 1.931e-3
-1.601, 1.957e-3
-1.602, 1.985e-3
-1.603, 2.015e-3
-1.604, 2.043e-3
-1.605, 2.070e-3
-1.606, 2.102e-3
-1.607, 2.133e-3
-1.608, 2.161e-3
-1.609, 2.192e-3
-1.610, 2.225e-3
-1.611, 2.254e-3
-1.612, 2.284e-3
-1.613, 2.317e-3
-1.614, 2.349e-3
-1.615, 2.379e-3
-1.616, 2.414e-3
-1.617, 2.447e-3
-1.618, 2.477e-3
-1.619, 2.509e-3
-1.620, 2.544e-3
-1.621, 2.574e-3
-1.622, 2.606e-3
-1.623, 2.642e-3
-1.624, 2.674e-3
-1.625, 2.705e-3
-1.626, 2.741e-3
-1.627, 2.775e-3
-1.628, 2.804e-3
-1.629, 2.836e-3
-1.630, 2.872e-3
-1.631, 2.903e-3
-1.632, 2.937e-3
-1.633, 2.978e-3
-1.634, 3.014e-3
-1.635, 3.049e-3
-1.636, 3.088e-3
-1.637, 3.126e-3
-1.638, 3.160e-3
-1.639, 3.199e-3
-1.640, 3.239e-3
-1.641, 3.275e-3
-1.642, 3.311e-3
-1.643, 3.353e-3
-1.644, 3.390e-3
-1.645, 3.425e-3
-1.646, 3.467e-3
-1.647, 3.507e-3
-1.648, 3.542e-3
-1.649, 3.581e-3
-1.650, 3.623e-3
-1.651, 3.661e-3
-1.652, 3.701e-3
-1.653, 3.747e-3
-1.654, 3.790e-3
-1.655, 3.829e-3
-1.656, 3.875e-3
-1.657, 3.919e-3
-1.658, 3.959e-3
-1.659, 4.003e-3
-1.660, 4.049e-3
-1.661, 4.090e-3
-1.662, 4.132e-3
-1.663, 4.181e-3
-1.664, 4.227e-3
-1.665, 4.270e-3
-1.666, 4.321e-3
-1.667, 4.368e-3
-1.668, 4.411e-3
-1.669, 4.461e-3
-1.670, 4.514e-3
-1.671, 4.562e-3
-1.672, 4.611e-3
-1.673, 4.667e-3
-1.674, 4.719e-3
-1.675, 4.767e-3
-1.676, 4.820e-3
-1.677, 4.869e-3
-1.678, 4.909e-3
-1.679, 4.960e-3
-1.680, 5.019e-3
-1.681, 5.075e-3
-1.682, 5.130e-3
-1.683, 5.189e-3
-1.684, 5.243e-3
-1.685, 5.293e-3
-1.686, 5.351e-3
-1.687, 5.412e-3
-1.688, 5.464e-3
-1.689, 5.525e-3
-1.690, 5.591e-3
-1.691, 5.647e-3
-1.692, 5.703e-3
-1.693, 5.764e-3
-1.694, 5.822e-3
-1.695, 5.877e-3
-1.696, 5.940e-3
-1.697, 6.001e-3
-1.698, 6.055e-3
-1.699, 6.113e-3
-1.700, 6.123e-3
-1.699, 6.070e-3
-1.698, 6.018e-3
-1.697, 5.972e-3
-1.696, 5.920e-3
-1.695, 5.861e-3
-1.694, 5.810e-3
-1.693, 5.759e-3
-1.692, 5.700e-3
-1.691, 5.644e-3
-1.690, 5.589e-3
-1.689, 5.523e-3
-1.688, 5.459e-3
-1.687, 5.408e-3
-1.686, 5.356e-3
-1.685, 5.297e-3
-1.684, 5.244e-3
-1.683, 5.193e-3
-1.682, 5.138e-3
-1.681, 5.084e-3
-1.680, 5.033e-3
-1.679, 4.977e-3
-1.678, 4.919e-3
-1.677, 4.873e-3
-1.676, 4.823e-3
-1.675, 4.767e-3
-1.674, 4.716e-3
-1.673, 4.666e-3
-1.672, 4.612e-3
-1.671, 4.561e-3
-1.670, 4.512e-3
-1.669, 4.459e-3
-1.668, 4.407e-3
-1.667, 4.362e-3
-1.666, 4.313e-3
-1.665, 4.261e-3
-1.664, 4.214e-3
-1.663, 4.167e-3
-1.662, 4.115e-3
-1.661, 4.067e-3
-1.660, 4.022e-3
-1.659, 3.971e-3
-1.658, 3.920e-3
-1.657, 3.875e-3
-1.656, 3.827e-3
-1.655, 3.777e-3
-1.654, 3.732e-3
-1.653, 3.687e-3
-1.652, 3.638e-3
-1.651, 3.594e-3
-1.650, 3.554e-3
-1.649, 3.510e-3
-1.648, 3.465e-3
-1.647, 3.425e-3
-1.646, 3.383e-3
-1.645, 3.339e-3
-1.644, 3.299e-3
-1.643, 3.258e-3
-1.642, 3.213e-3
-1.641, 3.171e-3
-1.640, 3.133e-3
-1.639, 3.090e-3
-1.638, 3.048e-3
-1.637, 3.011e-3
-1.636, 2.973e-3
-1.635, 2.932e-3
-1.634, 2.895e-3
-1.633, 2.859e-3
-1.632, 2.819e-3
-1.631, 2.783e-3
-1.630, 2.750e-3
-1.629, 2.712e-3
-1.628, 2.674e-3
-1.627, 2.641e-3
-1.626, 2.606e-3
-1.625, 2.569e-3
-1.624, 2.536e-3
-1.623, 2.503e-3
-1.622, 2.465e-3
-1.621, 2.433e-3
-1.620, 2.401e-3
-1.619, 2.367e-3
-1.618, 2.333e-3
-1.617, 2.303e-3
-1.616, 2.271e-3
-1.615, 2.238e-3
-1.614, 2.208e-3
-1.613, 2.179e-3
-1.612, 2.146e-3
-1.611, 2.116e-3
-1.610, 2.088e-3
-1.609, 2.056e-3
-1.608, 2.026e-3
-1.607, 2.000e-3
-1.606, 1.972e-3
-1.605, 1.942e-3
-1.604, 1.916e-3
-1.603, 1.890e-3
-1.602, 1.860e-3
-1.601, 1.834e-3
-1.600, 1.810e-3
-1.599, 1.783e-3
-1.598, 1.756e-3
-1.597, 1.732e-3
-1.596, 1.706e-3
-1.595, 1.680e-3
-1.594, 1.657e-3
-1.593, 1.633e-3
-1.592, 1.606e-3
-1.591, 1.583e-3
-1.590, 1.561e-3
-1.589, 1.536e-3
-1.588, 1.513e-3
-1.587, 1.491e-3
-1.586, 1.468e-3
-1.585, 1.444e-3
-1.584, 1.424e-3
-1.583, 1.402e-3
-1.582, 1.379e-3
-1.581, 1.358e-3
-1.580, 1.338e-3
-1.579, 1.316e-3
-1.578, 1.295e-3
-1.577, 1.277e-3
-1.576, 1.256e-3
-1.575, 1.234e-3
-1.574, 1.216e-3
-1.573, 1.199e-3
-1.572, 1.178e-3
-1.571, 1.160e-3
-1.570, 1.142e-3
-1.569, 1.123e-3
-1.568, 1.104e-3
-1.567, 1.088e-3
-1.566, 1.070e-3
-1.565, 1.051e-3
-1.564, 1.035e-3
-1.563, 1.018e-3
-1.562, 1.001e-3
-1.561, 9.848e-4
-1.560, 9.693e-4
-1.559, 9.521e-4
-1.558, 9.355e-4
-1.557, 9.213e-4
-1.556, 9.049e-4
-1.555, 8.882e-4
-1.554, 8.745e-4
-1.553, 8.596e-4
-1.552, 8.433e-4
-1.551, 8.295e-4
-1.550, 8.151e-4
-1.549, 7.996e-4
-1.548, 7.852e-4
-1.547, 7.725e-4
-1.546, 7.581e-4
-1.545, 7.436e-4
-1.544, 7.318e-4
-1.543, 7.188e-4
-1.542, 7.047e-4
-1.541, 6.929e-4
-1.540, 6.810e-4
-1.539, 6.676e-4
-1.538, 6.552e-4
-1.537, 6.443e-4
-1.536, 6.317e-4
-1.535, 6.194e-4
-1.534, 6.093e-4
-1.533, 5.980e-4
-1.532, 5.861e-4
-1.531, 5.759e-4
-1.530, 5.653e-4
-1.529, 5.534e-4
-1.528, 5.430e-4
-1.527, 5.337e-4
-1.526, 5.226e-4
-1.525, 5.117e-4
-1.524, 5.027e-4
-1.523, 4.928e-4
-1.522, 4.824e-4
-1.521, 4.737e-4
-1.520, 4.646e-4
-1.519, 4.547e-4
-1.518, 4.453e-4
-1.517, 4.374e-4
-1.516, 4.279e-4
-1.515, 4.189e-4
-1.514, 4.116e-4
-1.513, 4.033e-4
-1.512, 3.944e-4
-1.511, 3.870e-4
-1.510, 3.792e-4
-1.509, 3.706e-4
-1.508, 3.630e-4
-1.507, 3.563e-4
-1.506, 3.483e-4
-1.505, 3.404e-4
-1.504, 3.345e-4
-1.503, 3.270e-4
-1.502, 3.194e-4
-1.501, 3.135e-4
-1.500, 3.070e-4
-1.499, 2.995e-4
-1.498, 2.932e-4
-1.497, 2.876e-4
-1.496, 2.809e-4
-1.495, 2.745e-4
-1.494, 2.693e-4
-1.493, 2.632e-4
-1.492, 2.567e-4
-1.491, 2.515e-4
-1.490, 2.462e-4
-1.489, 2.403e-4
-1.488, 2.348e-4
-1.487, 2.307e-4
-1.486, 2.246e-4
-1.485, 2.190e-4
-1.484, 2.154e-4
-1.483, 2.098e-4
-1.482, 2.044e-4
-1.481, 2.005e-4
-1.480, 1.959e-4
-1.479, 1.907e-4
-1.478, 1.862e-4
-1.477, 1.826e-4
-1.476, 1.775e-4
-1.475, 1.728e-4
-1.474, 1.701e-4
-1.473, 1.654e-4
-1.472, 1.609e-4
-1.471, 1.578e-4
-1.470, 1.540e-4
-1.469, 1.497e-4
-1.468, 1.462e-4
-1.467, 1.435e-4
-1.466, 1.390e-4
-1.465, 1.356e-4
-1.464, 1.332e-4
-1.463, 1.296e-4
-1.462, 1.257e-4
-1.461, 1.238e-4
-1.460, 1.204e-4
-1.459, 1.167e-4
-1.458, 1.142e-4
-1.457, 1.121e-4
-1.456, 1.085e-4
-1.455, 1.056e-4
-1.454, 1.037e-4
-1.453, 1.005e-4
-1.452, 9.756e-5
-1.451, 9.589e-5
-1.450, 9.332e-5
-1.449, 8.998e-5
-1.448, 8.801e-5
-1.447, 8.647e-5
-1.446, 8.315e-5
-1.445, 8.075e-5
-1.444, 7.971e-5
-1.443, 7.727e-5
-1.442, 7.454e-5
-1.441, 7.344e-5
-1.440, 7.117e-5
-1.439, 6.858e-5
-1.438, 6.684e-5
-1.437, 6.601e-5
-1.436, 6.329e-5
-1.435, 6.131e-5
-1.434, 6.055e-5
-1.433, 5.812e-5
-1.432, 5.604e-5
-1.431, 5.548e-5
-1.430, 5.356e-5
-1.429, 5.164e-5
-1.428, 5.042e-5
-1.427, 4.941e-5
-1.426, 4.729e-5
-1.425, 4.568e-5
-1.424, 4.522e-5
-1.423, 4.342e-5
-1.422, 4.160e-5
-1.421, 4.121e-5
-1.420, 3.996e-5
-1.419, 3.785e-5
-1.418, 3.700e-5
-1.417, 3.661e-5
-1.416, 3.456e-5
-1.415, 3.326e-5
-1.414, 3.322e-5
-1.413, 3.146e-5
-1.412, 2.981e-5
-1.411, 2.982e-5
-1.410, 2.878e-5
-1.409, 2.713e-5
-1.408, 2.652e-5
-1.407, 2.633e-5
-1.406, 2.431e-5
-1.405, 2.350e-5
-1.404, 2.377e-5
-1.403, 2.208e-5
-1.402, 2.091e-5
-1.401, 2.093e-5
-1.400, 2.024e-5
-1.399, 1.868e-5
-1.398, 1.802e-5
-1.397, 1.838e-5
-1.396, 1.671e-5
-1.395, 1.592e-5
-1.394, 1.647e-5
-1.393, 1.498e-5
-1.392, 1.388e-5
-1.391, 1.406e-5
-1.390, 1.346e-5
-1.389, 1.232e-5
-1.388, 1.182e-5
-1.387, 1.196e-5
-1.386, 1.080e-5
-1.385, 9.894e-6
-1.384, 1.072e-5
-1.383, 9.321e-6
-1.382, 8.611e-6
-1.381, 8.986e-6
-1.380, 8.374e-6
-1.379, 7.111e-6
-1.378, 7.102e-6
-1.377, 7.476e-6
-1.376, 6.302e-6
-1.375, 5.701e-6
-1.374, 6.450e-6
-1.373, 5.513e-6
-1.372, 4.546e-6
-1.371, 5.020e-6
-1.370, 4.793e-6
-1.369, 3.412e-6
-1.368, 3.619e-6
-1.367, 4.023e-6
-1.366, 2.711e-6
-1.365, 2.336e-6
-1.364, 3.175e-6
-1.363, 2.060e-6
-1.362, 1.409e-6
-1.361, 1.764e-6
-1.360, 1.774e-6
-1.359, 8.268e-7
-1.358, 7.182e-7
-1.357, 1.310e-6
-1.356, 1.263e-7
-1.355, -6.235e-7
-1.354, 5.900e-7
-1.353, -2.486e-7
-1.352, -1.077e-6
-1.351, -4.163e-7
-1.350, -6.827e-7
-1.349, -1.472e-6
-1.348, -1.363e-6
-1.347, -7.617e-7
-1.346, -2.133e-6
-1.345, -2.459e-6
-1.344, -1.452e-6
-1.343, -2.320e-6
-1.342, -2.952e-6
-1.341, -2.251e-6
-1.340, -2.419e-6
-1.339, -3.534e-6
-1.338, -3.307e-6
-1.337, -2.814e-6
-1.336, -3.692e-6
-1.335, -4.126e-6
-1.334, -3.090e-6
-1.333, -3.919e-6
-1.332, -4.511e-6
-1.331, -4.057e-6
-1.330, -3.800e-6
-1.329, -4.965e-6
-1.328, -4.777e-6
-1.327, -4.008e-6
-1.326, -5.142e-6
-1.325, -5.409e-6
-1.324, -4.412e-6
-1.323, -5.280e-6
-1.322, -5.961e-6
-1.321, -5.182e-6
-1.320, -5.113e-6
-1.319, -6.484e-6
-1.318, -6.366e-6
-1.317, -5.270e-6
-1.316, -6.366e-6
-1.315, -6.879e-6
-1.314, -5.596e-6
-1.313, -6.494e-6
-1.312, -7.293e-6
-1.311, -6.316e-6
-1.310, -6.523e-6
-1.309, -7.441e-6
-1.308, -7.105e-6
-1.307, -6.444e-6
-1.306, -7.609e-6
-1.305, -7.914e-6
-1.304, -6.997e-6
-1.303, -7.766e-6
-1.302, -8.418e-6
-1.301, -7.451e-6
-1.300, -7.500e-6
-1.299, -8.891e-6
-1.298, -8.368e-6
-1.297, -7.697e-6
-1.296, -8.664e-6
-1.295, -9.167e-6
-1.294, -8.033e-6
-1.293, -8.871e-6
-1.292, -9.444e-6
-1.291, -8.674e-6
-1.290, -8.871e-6
-1.289, -9.888e-6
-1.288, -9.542e-6
-1.287, -8.477e-6
-1.286, -9.838e-6
-1.285, -1.016e-5
-1.284, -9.000e-6
-1.283, -9.848e-6
-1.282, -1.049e-5
-1.281, -9.730e-6
-1.280, -9.641e-6
-1.279, -1.072e-5
-1.278, -1.051e-5
-1.277, -9.641e-6
-1.276, -1.070e-5
-1.275, -1.117e-5
-1.274, -9.967e-6
-1.273, -1.081e-5
-1.272, -1.140e-5
-1.271, -1.061e-5
-1.270, -1.045e-5
-1.269, -1.182e-5
-1.268, -1.136e-5
-1.267, -1.058e-5
-1.266, -1.165e-5
-1.265, -1.224e-5
-1.264, -1.093e-5
-1.263, -1.164e-5
-1.262, -1.244e-5
-1.261, -1.165e-5
-1.260, -1.140e-5
-1.259, -1.277e-5
-1.258, -1.221e-5
-1.257, -1.157e-5
-1.256, -1.251e-5
-1.255, -1.321e-5
-1.254, -1.202e-5
-1.253, -1.247e-5
-1.252, -1.336e-5
-1.251, -1.253e-5
-1.250, -1.235e-5
-1.249, -1.347e-5
-1.248, -1.337e-5
-1.247, -1.229e-5
-1.246, -1.345e-5
-1.245, -1.398e-5
-1.244, -1.251e-5
-1.243, -1.340e-5
-1.242, -1.408e-5
-1.241, -1.341e-5
-1.240, -1.288e-5
-1.239, -1.424e-5
-1.238, -1.406e-5
-1.237, -1.295e-5
-1.236, -1.412e-5
-1.235, -1.476e-5
-1.234, -1.316e-5
-1.233, -1.402e-5
-1.232, -1.475e-5
-1.231, -1.372e-5
-1.230, -1.368e-5
-1.229, -1.527e-5
-1.228, -1.468e-5
-1.227, -1.352e-5
-1.226, -1.484e-5
-1.225, -1.542e-5
-1.224, -1.394e-5
-1.223, -1.471e-5
-1.222, -1.569e-5
-1.221, -1.481e-5
-1.220, -1.431e-5
-1.219, -1.566e-5
-1.218, -1.540e-5
-1.217, -1.432e-5
-1.216, -1.546e-5
-1.215, -1.600e-5
-1.214, -1.474e-5
-1.213, -1.534e-5
-1.212, -1.624e-5
-1.211, -1.544e-5
-1.210, -1.524e-5
-1.209, -1.638e-5
-1.208, -1.608e-5
-1.207, -1.489e-5
-1.206, -1.647e-5
-1.205, -1.683e-5
-1.204, -1.534e-5
-1.203, -1.631e-5
-1.202, -1.701e-5
-1.201, -1.620e-5
-1.200, -1.583e-5
-1.199, -1.739e-5
-1.198, -1.693e-5
-1.197, -1.577e-5
-1.196, -1.707e-5
-1.195, -1.777e-5
-1.194, -1.628e-5
-1.193, -1.712e-5
-1.192, -1.807e-5
-1.191, -1.699e-5
-1.190, -1.686e-5
-1.189, -1.801e-5
-1.188, -1.789e-5
-1.187, -1.682e-5
-1.186, -1.807e-5
-1.185, -1.890e-5
-1.184, -1.713e-5
-1.183, -1.791e-5
-1.182, -1.897e-5
-1.181, -1.793e-5
-1.180, -1.752e-5
-1.179, -1.906e-5
-1.178, -1.899e-5
-1.177, -1.772e-5
-1.176, -1.915e-5
-1.175, -1.959e-5
-1.174, -1.821e-5
-1.173, -1.893e-5
-1.172, -1.991e-5
-1.171, -1.910e-5
-1.170, -1.880e-5
-1.169, -2.020e-5
-1.168, -1.961e-5
-1.167, -1.883e-5
-1.166, -2.010e-5
-1.165, -2.057e-5
-1.164, -1.924e-5
-1.163, -1.998e-5
-1.162, -2.109e-5
-1.161, -2.026e-5
-1.160, -1.977e-5
-1.159, -2.113e-5
-1.158, -2.107e-5
-1.157, -2.000e-5
-1.156, -2.110e-5
-1.155, -2.189e-5
-1.154, -2.047e-5
-1.153, -2.122e-5
-1.152, -2.220e-5
-1.151, -2.146e-5
-1.150, -2.109e-5
-1.149, -2.251e-5
-1.148, -2.223e-5
-1.147, -2.124e-5
-1.146, -2.254e-5
-1.145, -2.306e-5
-1.144, -2.156e-5
-1.143, -2.244e-5
-1.142, -2.341e-5
-1.141, -2.261e-5
-1.140, -2.221e-5
-1.139, -2.371e-5
-1.138, -2.366e-5
-1.137, -2.239e-5
-1.136, -2.360e-5
-1.135, -2.416e-5
-1.134, -2.308e-5
-1.133, -2.375e-5
-1.132, -2.468e-5
-1.131, -2.376e-5
-1.130, -2.348e-5
-1.129, -2.507e-5
-1.128, -2.478e-5
-1.127, -2.341e-5
-1.126, -2.494e-5
-1.125, -2.575e-5
-1.124, -2.411e-5
-1.123, -2.493e-5
-1.122, -2.598e-5
-1.121, -2.512e-5
-1.120, -2.447e-5
-1.119, -2.608e-5
-1.118, -2.601e-5
-1.117, -2.478e-5
-1.116, -2.614e-5
-1.115, -2.680e-5
-1.114, -2.527e-5
-1.113, -2.608e-5
-1.112, -2.702e-5
-1.111, -2.628e-5
-1.110, -2.595e-5
-1.109, -2.722e-5
-1.108, -2.715e-5
-1.107, -2.604e-5
-1.106, -2.717e-5
-1.105, -2.806e-5
-1.104, -2.647e-5
-1.103, -2.709e-5
-1.102, -2.843e-5
-1.101, -2.742e-5
-1.100, -2.699e-5
-1.099, -2.863e-5
-1.098, -2.839e-5
-1.097, -2.702e-5
-1.096, -2.842e-5
-1.095, -2.911e-5
-1.094, -2.759e-5
-1.093, -2.839e-5
-1.092, -2.946e-5
-1.091, -2.855e-5
-1.090, -2.806e-5
-1.089, -2.971e-5
-1.088, -2.963e-5
-1.087, -2.796e-5
-1.086, -2.955e-5
-1.085, -3.012e-5
-1.084, -2.865e-5
-1.083, -2.937e-5
-1.082, -3.052e-5
-1.081, -2.968e-5
-1.080, -2.896e-5
-1.079, -3.062e-5
-1.078, -3.061e-5
-1.077, -2.895e-5
-1.076, -3.059e-5
-1.075, -3.125e-5
-1.074, -2.981e-5
-1.073, -3.011e-5
-1.072, -3.143e-5
-1.071, -3.065e-5
-1.070, -2.997e-5
-1.069, -3.147e-5
-1.068, -3.144e-5
-1.067, -3.026e-5
-1.066, -3.125e-5
-1.065, -3.239e-5
-1.064, -3.058e-5
-1.063, -3.113e-5
-1.062, -3.270e-5
-1.061, -3.158e-5
-1.060, -3.069e-5
-1.059, -3.253e-5
-1.058, -3.235e-5
-1.057, -3.080e-5
-1.056, -3.237e-5
-1.055, -3.302e-5
-1.054, -3.152e-5
-1.053, -3.178e-5
-1.052, -3.326e-5
-1.051, -3.225e-5
-1.050, -3.164e-5
-1.049, -3.349e-5
-1.048, -3.317e-5
-1.047, -3.166e-5
-1.046, -3.306e-5
-1.045, -3.373e-5
-1.044, -3.210e-5
-1.043, -3.272e-5
-1.042, -3.393e-5
-1.041, -3.295e-5
-1.040, -3.222e-5
-1.039, -3.385e-5
-1.038, -3.380e-5
-1.037, -3.228e-5
-1.036, -3.363e-5
-1.035, -3.450e-5
-1.034, -3.280e-5
-1.033, -3.315e-5
-1.032, -3.449e-5
-1.031, -3.359e-5
-1.030, -3.294e-5
-1.029, -3.447e-5
-1.028, -3.423e-5
-1.027, -3.301e-5
-1.026, -3.396e-5
-1.025, -3.479e-5
-1.024, -3.326e-5
-1.023, -3.372e-5
-1.022, -3.519e-5
-1.021, -3.405e-5
-1.020, -3.342e-5
-1.019, -3.503e-5
-1.018, -3.480e-5
-1.017, -3.334e-5
-1.016, -3.455e-5
-1.015, -3.528e-5
-1.014, -3.372e-5
-1.013, -3.407e-5
-1.012, -3.527e-5
-1.011, -3.451e-5
-1.010, -3.370e-5
-1.009, -3.531e-5
-1.008, -3.511e-5
-1.007, -3.368e-5
-1.006, -3.485e-5
-1.005, -3.559e-5
-1.004, -3.394e-5
-1.003, -3.430e-5
-1.002, -3.565e-5
-1.001, -3.463e-5
