Apr. 25, 2025   23:49:06
Cyclic Voltammetry
File: c:/users/guazh/data/banditlqround7_x0exp590_r20/2025-04-16-exp1190\exp1190-2025-04-25t23_36_21-h2koh\exp1190_cv_50mvs_efin_-1700mv.bin
Data Source:  Experiment
Instrument Model:  CHI760E
Header: CV ran at 50 mVs
Note: 

Init E (V) = -1
High E (V) = -1
Low E (V) = -1.7
Final E (V) = -1
Init P/N = N
Scan Rate (V/s) = 0.05
Segment = 7
Sample Interval (V) = 0.001
Quiet Time (sec) = 60
Sensitivity (A/V) = 0.001
Comp R (ohm) = 1.6

Results:

Channel 1:
Segment 1:
Ep = -1.206V
ip = 3.386e-6A
Ah = 4.588e-6C

Segment 2:

Segment 3:

Segment 4:

Segment 5:

Segment 6:

Segment 7:

Potential/V, Current/A

-1.000, 2.581e-6
-1.001, 2.719e-6
-1.002, 2.674e-6
-1.003, 2.753e-6
-1.004, 2.937e-6
-1.005, 3.033e-6
-1.006, 2.882e-6
-1.007, 2.853e-6
-1.008, 2.851e-6
-1.009, 3.019e-6
-1.010, 3.107e-6
-1.011, 2.976e-6
-1.012, 2.870e-6
-1.013, 2.942e-6
-1.014, 3.105e-6
-1.015, 3.208e-6
-1.016, 3.066e-6
-1.017, 2.924e-6
-1.018, 2.994e-6
-1.019, 3.134e-6
-1.020, 3.173e-6
-1.021, 3.107e-6
-1.022, 3.008e-6
-1.023, 3.059e-6
-1.024, 3.187e-6
-1.025, 3.291e-6
-1.026, 3.190e-6
-1.027, 3.054e-6
-1.028, 3.115e-6
-1.029, 3.251e-6
-1.030, 3.338e-6
-1.031, 3.238e-6
-1.032, 3.076e-6
-1.033, 3.187e-6
-1.034, 3.311e-6
-1.035, 3.402e-6
-1.036, 3.311e-6
-1.037, 3.186e-6
-1.038, 3.203e-6
-1.039, 3.338e-6
-1.040, 3.412e-6
-1.041, 3.313e-6
-1.042, 3.201e-6
-1.043, 3.227e-6
-1.044, 3.379e-6
-1.045, 3.502e-6
-1.046, 3.425e-6
-1.047, 3.321e-6
-1.048, 3.322e-6
-1.049, 3.443e-6
-1.050, 3.613e-6
-1.051, 3.500e-6
-1.052, 3.345e-6
-1.053, 3.404e-6
-1.054, 3.512e-6
-1.055, 3.652e-6
-1.056, 3.556e-6
-1.057, 3.432e-6
-1.058, 3.447e-6
-1.059, 3.627e-6
-1.060, 3.720e-6
-1.061, 3.670e-6
-1.062, 3.510e-6
-1.063, 3.520e-6
-1.064, 3.702e-6
-1.065, 3.785e-6
-1.066, 3.741e-6
-1.067, 3.599e-6
-1.068, 3.565e-6
-1.069, 3.800e-6
-1.070, 3.860e-6
-1.071, 3.813e-6
-1.072, 3.680e-6
-1.073, 3.669e-6
-1.074, 3.890e-6
-1.075, 3.988e-6
-1.076, 3.887e-6
-1.077, 3.776e-6
-1.078, 3.789e-6
-1.079, 3.946e-6
-1.080, 4.016e-6
-1.081, 3.982e-6
-1.082, 3.885e-6
-1.083, 3.842e-6
-1.084, 4.021e-6
-1.085, 4.163e-6
-1.086, 4.110e-6
-1.087, 4.014e-6
-1.088, 3.947e-6
-1.089, 4.128e-6
-1.090, 4.290e-6
-1.091, 4.219e-6
-1.092, 4.113e-6
-1.093, 4.090e-6
-1.094, 4.231e-6
-1.095, 4.420e-6
-1.096, 4.335e-6
-1.097, 4.210e-6
-1.098, 4.209e-6
-1.099, 4.372e-6
-1.100, 4.520e-6
-1.101, 4.457e-6
-1.102, 4.350e-6
-1.103, 4.323e-6
-1.104, 4.470e-6
-1.105, 4.602e-6
-1.106, 4.607e-6
-1.107, 4.496e-6
-1.108, 4.492e-6
-1.109, 4.617e-6
-1.110, 4.749e-6
-1.111, 4.760e-6
-1.112, 4.622e-6
-1.113, 4.589e-6
-1.114, 4.740e-6
-1.115, 4.935e-6
-1.116, 4.880e-6
-1.117, 4.849e-6
-1.118, 4.782e-6
-1.119, 4.934e-6
-1.120, 5.070e-6
-1.121, 5.072e-6
-1.122, 5.044e-6
-1.123, 4.952e-6
-1.124, 5.088e-6
-1.125, 5.284e-6
-1.126, 5.249e-6
-1.127, 5.200e-6
-1.128, 5.169e-6
-1.129, 5.263e-6
-1.130, 5.505e-6
-1.131, 5.463e-6
-1.132, 5.423e-6
-1.133, 5.422e-6
-1.134, 5.514e-6
-1.135, 5.704e-6
-1.136, 5.737e-6
-1.137, 5.684e-6
-1.138, 5.648e-6
-1.139, 5.768e-6
-1.140, 6.004e-6
-1.141, 6.024e-6
-1.142, 5.976e-6
-1.143, 5.922e-6
-1.144, 6.045e-6
-1.145, 6.279e-6
-1.146, 6.327e-6
-1.147, 6.278e-6
-1.148, 6.242e-6
-1.149, 6.418e-6
-1.150, 6.669e-6
-1.151, 6.693e-6
-1.152, 6.607e-6
-1.153, 6.585e-6
-1.154, 6.764e-6
-1.155, 6.995e-6
-1.156, 7.079e-6
-1.157, 7.010e-6
-1.158, 6.987e-6
-1.159, 7.159e-6
-1.160, 7.366e-6
-1.161, 7.407e-6
-1.162, 7.340e-6
-1.163, 7.286e-6
-1.164, 7.368e-6
-1.165, 7.656e-6
-1.166, 7.710e-6
-1.167, 7.624e-6
-1.168, 7.571e-6
-1.169, 7.683e-6
-1.170, 7.892e-6
-1.171, 7.935e-6
-1.172, 7.798e-6
-1.173, 7.779e-6
-1.174, 7.842e-6
-1.175, 8.032e-6
-1.176, 8.108e-6
-1.177, 7.998e-6
-1.178, 7.975e-6
-1.179, 8.011e-6
-1.180, 8.193e-6
-1.181, 8.269e-6
-1.182, 8.110e-6
-1.183, 8.054e-6
-1.184, 8.117e-6
-1.185, 8.288e-6
-1.186, 8.382e-6
-1.187, 8.232e-6
-1.188, 8.192e-6
-1.189, 8.233e-6
-1.190, 8.373e-6
-1.191, 8.412e-6
-1.192, 8.278e-6
-1.193, 8.195e-6
-1.194, 8.283e-6
-1.195, 8.373e-6
-1.196, 8.463e-6
-1.197, 8.364e-6
-1.198, 8.280e-6
-1.199, 8.295e-6
-1.200, 8.426e-6
-1.201, 8.473e-6
-1.202, 8.370e-6
-1.203, 8.255e-6
-1.204, 8.269e-6
-1.205, 8.424e-6
-1.206, 8.487e-6
-1.207, 8.402e-6
-1.208, 8.222e-6
-1.209, 8.279e-6
-1.210, 8.434e-6
-1.211, 8.465e-6
-1.212, 8.334e-6
-1.213, 8.217e-6
-1.214, 8.250e-6
-1.215, 8.390e-6
-1.216, 8.461e-6
-1.217, 8.330e-6
-1.218, 8.235e-6
-1.219, 8.242e-6
-1.220, 8.343e-6
-1.221, 8.399e-6
-1.222, 8.270e-6
-1.223, 8.159e-6
-1.224, 8.170e-6
-1.225, 8.265e-6
-1.226, 8.368e-6
-1.227, 8.194e-6
-1.228, 8.104e-6
-1.229, 8.127e-6
-1.230, 8.170e-6
-1.231, 8.270e-6
-1.232, 8.146e-6
-1.233, 7.993e-6
-1.234, 8.026e-6
-1.235, 8.109e-6
-1.236, 8.185e-6
-1.237, 8.020e-6
-1.238, 7.912e-6
-1.239, 7.898e-6
-1.240, 7.948e-6
-1.241, 8.016e-6
-1.242, 7.933e-6
-1.243, 7.756e-6
-1.244, 7.756e-6
-1.245, 7.863e-6
-1.246, 7.882e-6
-1.247, 7.773e-6
-1.248, 7.621e-6
-1.249, 7.619e-6
-1.250, 7.695e-6
-1.251, 7.745e-6
-1.252, 7.601e-6
-1.253, 7.360e-6
-1.254, 7.369e-6
-1.255, 7.497e-6
-1.256, 7.498e-6
-1.257, 7.392e-6
-1.258, 7.242e-6
-1.259, 7.199e-6
-1.260, 7.312e-6
-1.261, 7.339e-6
-1.262, 7.239e-6
-1.263, 7.011e-6
-1.264, 6.961e-6
-1.265, 7.103e-6
-1.266, 7.129e-6
-1.267, 6.999e-6
-1.268, 6.872e-6
-1.269, 6.794e-6
-1.270, 6.875e-6
-1.271, 6.984e-6
-1.272, 6.860e-6
-1.273, 6.686e-6
-1.274, 6.647e-6
-1.275, 6.782e-6
-1.276, 6.848e-6
-1.277, 6.750e-6
-1.278, 6.601e-6
-1.279, 6.578e-6
-1.280, 6.706e-6
-1.281, 6.761e-6
-1.282, 6.668e-6
-1.283, 6.524e-6
-1.284, 6.494e-6
-1.285, 6.650e-6
-1.286, 6.687e-6
-1.287, 6.627e-6
-1.288, 6.407e-6
-1.289, 6.416e-6
-1.290, 6.603e-6
-1.291, 6.643e-6
-1.292, 6.569e-6
-1.293, 6.472e-6
-1.294, 6.412e-6
-1.295, 6.559e-6
-1.296, 6.638e-6
-1.297, 6.566e-6
-1.298, 6.494e-6
-1.299, 6.370e-6
-1.300, 6.524e-6
-1.301, 6.642e-6
-1.302, 6.583e-6
-1.303, 6.487e-6
-1.304, 6.384e-6
-1.305, 6.520e-6
-1.306, 6.642e-6
-1.307, 6.591e-6
-1.308, 6.438e-6
-1.309, 6.428e-6
-1.310, 6.572e-6
-1.311, 6.710e-6
-1.312, 6.646e-6
-1.313, 6.493e-6
-1.314, 6.509e-6
-1.315, 6.592e-6
-1.316, 6.695e-6
-1.317, 6.698e-6
-1.318, 6.503e-6
-1.319, 6.552e-6
-1.320, 6.662e-6
-1.321, 6.770e-6
-1.322, 6.746e-6
-1.323, 6.597e-6
-1.324, 6.576e-6
-1.325, 6.719e-6
-1.326, 6.812e-6
-1.327, 6.807e-6
-1.328, 6.689e-6
-1.329, 6.655e-6
-1.330, 6.777e-6
-1.331, 6.906e-6
-1.332, 6.878e-6
-1.333, 6.802e-6
-1.334, 6.745e-6
-1.335, 6.859e-6
-1.336, 7.011e-6
-1.337, 7.008e-6
-1.338, 6.942e-6
-1.339, 6.889e-6
-1.340, 6.997e-6
-1.341, 7.126e-6
-1.342, 7.078e-6
-1.343, 7.009e-6
-1.344, 6.958e-6
-1.345, 7.123e-6
-1.346, 7.285e-6
-1.347, 7.273e-6
-1.348, 7.172e-6
-1.349, 7.163e-6
-1.350, 7.276e-6
-1.351, 7.531e-6
-1.352, 7.412e-6
-1.353, 7.338e-6
-1.354, 7.315e-6
-1.355, 7.402e-6
-1.356, 7.621e-6
-1.357, 7.571e-6
-1.358, 7.525e-6
-1.359, 7.459e-6
-1.360, 7.592e-6
-1.361, 7.722e-6
-1.362, 7.803e-6
-1.363, 7.673e-6
-1.364, 7.649e-6
-1.365, 7.750e-6
-1.366, 7.942e-6
-1.367, 7.966e-6
-1.368, 7.896e-6
-1.369, 7.889e-6
-1.370, 8.048e-6
-1.371, 8.166e-6
-1.372, 8.228e-6
-1.373, 8.141e-6
-1.374, 8.144e-6
-1.375, 8.247e-6
-1.376, 8.413e-6
-1.377, 8.470e-6
-1.378, 8.410e-6
-1.379, 8.384e-6
-1.380, 8.528e-6
-1.381, 8.732e-6
-1.382, 8.799e-6
-1.383, 8.727e-6
-1.384, 8.758e-6
-1.385, 9.088e-6
-1.386, 9.223e-6
-1.387, 9.167e-6
-1.388, 9.108e-6
-1.389, 9.091e-6
-1.390, 9.209e-6
-1.391, 9.462e-6
-1.392, 9.445e-6
-1.393, 9.383e-6
-1.394, 9.409e-6
-1.395, 9.516e-6
-1.396, 9.763e-6
-1.397, 9.827e-6
-1.398, 9.760e-6
-1.399, 9.785e-6
-1.400, 9.916e-6
-1.401, 1.013e-5
-1.402, 1.025e-5
-1.403, 1.019e-5
-1.404, 1.019e-5
-1.405, 1.039e-5
-1.406, 1.061e-5
-1.407, 1.076e-5
-1.408, 1.068e-5
-1.409, 1.070e-5
-1.410, 1.089e-5
-1.411, 1.116e-5
-1.412, 1.133e-5
-1.413, 1.123e-5
-1.414, 1.122e-5
-1.415, 1.145e-5
-1.416, 1.164e-5
-1.417, 1.177e-5
-1.418, 1.179e-5
-1.419, 1.174e-5
-1.420, 1.198e-5
-1.421, 1.222e-5
-1.422, 1.242e-5
-1.423, 1.241e-5
-1.424, 1.247e-5
-1.425, 1.262e-5
-1.426, 1.290e-5
-1.427, 1.307e-5
-1.428, 1.308e-5
-1.429, 1.315e-5
-1.430, 1.334e-5
-1.431, 1.369e-5
-1.432, 1.387e-5
-1.433, 1.389e-5
-1.434, 1.397e-5
-1.435, 1.416e-5
-1.436, 1.450e-5
-1.437, 1.475e-5
-1.438, 1.477e-5
-1.439, 1.490e-5
-1.440, 1.510e-5
-1.441, 1.542e-5
-1.442, 1.568e-5
-1.443, 1.575e-5
-1.444, 1.587e-5
-1.445, 1.618e-5
-1.446, 1.651e-5
-1.447, 1.677e-5
-1.448, 1.687e-5
-1.449, 1.703e-5
-1.450, 1.735e-5
-1.451, 1.775e-5
-1.452, 1.807e-5
-1.453, 1.822e-5
-1.454, 1.836e-5
-1.455, 1.863e-5
-1.456, 1.907e-5
-1.457, 1.944e-5
-1.458, 1.963e-5
-1.459, 1.983e-5
-1.460, 2.020e-5
-1.461, 2.074e-5
-1.462, 2.102e-5
-1.463, 2.131e-5
-1.464, 2.150e-5
-1.465, 2.184e-5
-1.466, 2.239e-5
-1.467, 2.275e-5
-1.468, 2.309e-5
-1.469, 2.338e-5
-1.470, 2.379e-5
-1.471, 2.435e-5
-1.472, 2.485e-5
-1.473, 2.518e-5
-1.474, 2.548e-5
-1.475, 2.598e-5
-1.476, 2.658e-5
-1.477, 2.715e-5
-1.478, 2.772e-5
-1.479, 2.808e-5
-1.480, 2.855e-5
-1.481, 2.912e-5
-1.482, 2.979e-5
-1.483, 3.024e-5
-1.484, 3.075e-5
-1.485, 3.134e-5
-1.486, 3.213e-5
-1.487, 3.287e-5
-1.488, 3.340e-5
-1.489, 3.386e-5
-1.490, 3.467e-5
-1.491, 3.549e-5
-1.492, 3.624e-5
-1.493, 3.689e-5
-1.494, 3.752e-5
-1.495, 3.835e-5
-1.496, 3.919e-5
-1.497, 4.011e-5
-1.498, 4.090e-5
-1.499, 4.159e-5
-1.500, 4.253e-5
-1.501, 4.351e-5
-1.502, 4.458e-5
-1.503, 4.543e-5
-1.504, 4.634e-5
-1.505, 4.737e-5
-1.506, 4.856e-5
-1.507, 4.962e-5
-1.508, 5.061e-5
-1.509, 5.157e-5
-1.510, 5.278e-5
-1.511, 5.409e-5
-1.512, 5.630e-5
-1.513, 5.645e-5
-1.514, 5.763e-5
-1.515, 5.888e-5
-1.516, 6.023e-5
-1.517, 6.161e-5
-1.518, 6.272e-5
-1.519, 6.396e-5
-1.520, 6.533e-5
-1.521, 6.690e-5
-1.522, 6.842e-5
-1.523, 6.982e-5
-1.524, 7.115e-5
-1.525, 7.270e-5
-1.526, 7.441e-5
-1.527, 7.620e-5
-1.528, 7.749e-5
-1.529, 7.899e-5
-1.530, 8.091e-5
-1.531, 8.279e-5
-1.532, 8.476e-5
-1.533, 8.619e-5
-1.534, 8.785e-5
-1.535, 8.977e-5
-1.536, 9.182e-5
-1.537, 9.394e-5
-1.538, 9.590e-5
-1.539, 9.785e-5
-1.540, 1.000e-4
-1.541, 1.023e-4
-1.542, 1.048e-4
-1.543, 1.070e-4
-1.544, 1.092e-4
-1.545, 1.116e-4
-1.546, 1.143e-4
-1.547, 1.170e-4
-1.548, 1.195e-4
-1.549, 1.222e-4
-1.550, 1.250e-4
-1.551, 1.280e-4
-1.552, 1.310e-4
-1.553, 1.340e-4
-1.554, 1.370e-4
-1.555, 1.402e-4
-1.556, 1.436e-4
-1.557, 1.471e-4
-1.558, 1.507e-4
-1.559, 1.540e-4
-1.560, 1.576e-4
-1.561, 1.616e-4
-1.562, 1.656e-4
-1.563, 1.695e-4
-1.564, 1.736e-4
-1.565, 1.778e-4
-1.566, 1.823e-4
-1.567, 1.869e-4
-1.568, 1.916e-4
-1.569, 1.962e-4
-1.570, 2.011e-4
-1.571, 2.062e-4
-1.572, 2.115e-4
-1.573, 2.168e-4
-1.574, 2.222e-4
-1.575, 2.278e-4
-1.576, 2.339e-4
-1.577, 2.400e-4
-1.578, 2.463e-4
-1.579, 2.524e-4
-1.580, 2.589e-4
-1.581, 2.657e-4
-1.582, 2.728e-4
-1.583, 2.800e-4
-1.584, 2.872e-4
-1.585, 2.945e-4
-1.586, 3.024e-4
-1.587, 3.107e-4
-1.588, 3.190e-4
-1.589, 3.273e-4
-1.590, 3.361e-4
-1.591, 3.453e-4
-1.592, 3.548e-4
-1.593, 3.644e-4
-1.594, 3.742e-4
-1.595, 3.842e-4
-1.596, 3.949e-4
-1.597, 4.060e-4
-1.598, 4.171e-4
-1.599, 4.283e-4
-1.600, 4.401e-4
-1.601, 4.524e-4
-1.602, 4.652e-4
-1.603, 4.782e-4
-1.604, 4.914e-4
-1.605, 5.050e-4
-1.606, 5.194e-4
-1.607, 5.341e-4
-1.608, 5.489e-4
-1.609, 5.643e-4
-1.610, 5.799e-4
-1.611, 5.961e-4
-1.612, 6.129e-4
-1.613, 6.298e-4
-1.614, 6.481e-4
-1.615, 6.656e-4
-1.616, 6.840e-4
-1.617, 7.033e-4
-1.618, 7.229e-4
-1.619, 7.421e-4
-1.620, 7.620e-4
-1.621, 7.824e-4
-1.622, 8.036e-4
-1.623, 8.253e-4
-1.624, 8.468e-4
-1.625, 8.689e-4
-1.626, 8.917e-4
-1.627, 9.150e-4
-1.628, 9.385e-4
-1.629, 9.626e-4
-1.630, 9.868e-4
-1.631, 1.012e-3
-1.632, 1.038e-3
-1.633, 1.065e-3
-1.634, 1.090e-3
-1.635, 1.117e-3
-1.636, 1.145e-3
-1.637, 1.173e-3
-1.638, 1.202e-3
-1.639, 1.231e-3
-1.640, 1.260e-3
-1.641, 1.290e-3
-1.642, 1.321e-3
-1.643, 1.353e-3
-1.644, 1.385e-3
-1.645, 1.417e-3
-1.646, 1.450e-3
-1.647, 1.484e-3
-1.648, 1.519e-3
-1.649, 1.553e-3
-1.650, 1.587e-3
-1.651, 1.624e-3
-1.652, 1.661e-3
-1.653, 1.699e-3
-1.654, 1.737e-3
-1.655, 1.777e-3
-1.656, 1.815e-3
-1.657, 1.854e-3
-1.658, 1.896e-3
-1.659, 1.938e-3
-1.660, 1.980e-3
-1.661, 2.023e-3
-1.662, 2.069e-3
-1.663, 2.116e-3
-1.664, 2.159e-3
-1.665, 2.204e-3
-1.666, 2.252e-3
-1.667, 2.299e-3
-1.668, 2.347e-3
-1.669, 2.395e-3
-1.670, 2.444e-3
-1.671, 2.496e-3
-1.672, 2.546e-3
-1.673, 2.601e-3
-1.674, 2.658e-3
-1.675, 2.714e-3
-1.676, 2.768e-3
-1.677, 2.824e-3
-1.678, 2.880e-3
-1.679, 2.932e-3
-1.680, 2.988e-3
-1.681, 3.049e-3
-1.682, 3.109e-3
-1.683, 3.169e-3
-1.684, 3.229e-3
-1.685, 3.293e-3
-1.686, 3.357e-3
-1.687, 3.419e-3
-1.688, 3.482e-3
-1.689, 3.547e-3
-1.690, 3.611e-3
-1.691, 3.677e-3
-1.692, 3.747e-3
-1.693, 3.814e-3
-1.694, 3.881e-3
-1.695, 3.951e-3
-1.696, 4.018e-3
-1.697, 4.087e-3
-1.698, 4.160e-3
-1.699, 4.236e-3
-1.700, 4.263e-3
-1.699, 4.230e-3
-1.698, 4.196e-3
-1.697, 4.160e-3
-1.696, 4.125e-3
-1.695, 4.091e-3
-1.694, 4.053e-3
-1.693, 4.016e-3
-1.692, 3.976e-3
-1.691, 3.940e-3
-1.690, 3.902e-3
-1.689, 3.858e-3
-1.688, 3.826e-3
-1.687, 3.787e-3
-1.686, 3.746e-3
-1.685, 3.695e-3
-1.684, 3.642e-3
-1.683, 3.599e-3
-1.682, 3.554e-3
-1.681, 3.508e-3
-1.680, 3.468e-3
-1.679, 3.428e-3
-1.678, 3.387e-3
-1.677, 3.348e-3
-1.676, 3.309e-3
-1.675, 3.270e-3
-1.674, 3.231e-3
-1.673, 3.188e-3
-1.672, 3.146e-3
-1.671, 3.107e-3
-1.670, 3.068e-3
-1.669, 3.027e-3
-1.668, 2.988e-3
-1.667, 2.952e-3
-1.666, 2.915e-3
-1.665, 2.876e-3
-1.664, 2.837e-3
-1.663, 2.799e-3
-1.662, 2.761e-3
-1.661, 2.723e-3
-1.660, 2.686e-3
-1.659, 2.648e-3
-1.658, 2.610e-3
-1.657, 2.577e-3
-1.656, 2.541e-3
-1.655, 2.504e-3
-1.654, 2.468e-3
-1.653, 2.434e-3
-1.652, 2.398e-3
-1.651, 2.366e-3
-1.650, 2.333e-3
-1.649, 2.299e-3
-1.648, 2.266e-3
-1.647, 2.233e-3
-1.646, 2.199e-3
-1.645, 2.166e-3
-1.644, 2.133e-3
-1.643, 2.101e-3
-1.642, 2.071e-3
-1.641, 2.042e-3
-1.640, 2.011e-3
-1.639, 1.980e-3
-1.638, 1.950e-3
-1.637, 1.923e-3
-1.636, 1.893e-3
-1.635, 1.862e-3
-1.634, 1.832e-3
-1.633, 1.804e-3
-1.632, 1.777e-3
-1.631, 1.749e-3
-1.630, 1.721e-3
-1.629, 1.696e-3
-1.628, 1.671e-3
-1.627, 1.644e-3
-1.626, 1.619e-3
-1.625, 1.593e-3
-1.624, 1.566e-3
-1.623, 1.540e-3
-1.622, 1.516e-3
-1.621, 1.493e-3
-1.620, 1.469e-3
-1.619, 1.445e-3
-1.618, 1.422e-3
-1.617, 1.399e-3
-1.616, 1.377e-3
-1.615, 1.354e-3
-1.614, 1.332e-3
-1.613, 1.310e-3
-1.612, 1.289e-3
-1.611, 1.267e-3
-1.610, 1.245e-3
-1.609, 1.225e-3
-1.608, 1.206e-3
-1.607, 1.187e-3
-1.606, 1.166e-3
-1.605, 1.147e-3
-1.604, 1.128e-3
-1.603, 1.109e-3
-1.602, 1.090e-3
-1.601, 1.073e-3
-1.600, 1.055e-3
-1.599, 1.037e-3
-1.598, 1.019e-3
-1.597, 1.002e-3
-1.596, 9.856e-4
-1.595, 9.689e-4
-1.594, 9.517e-4
-1.593, 9.351e-4
-1.592, 9.195e-4
-1.591, 9.039e-4
-1.590, 8.887e-4
-1.589, 8.734e-4
-1.588, 8.580e-4
-1.587, 8.430e-4
-1.586, 8.281e-4
-1.585, 8.132e-4
-1.584, 7.989e-4
-1.583, 7.850e-4
-1.582, 7.713e-4
-1.581, 7.578e-4
-1.580, 7.439e-4
-1.579, 7.307e-4
-1.578, 7.175e-4
-1.577, 7.043e-4
-1.576, 6.913e-4
-1.575, 6.785e-4
-1.574, 6.658e-4
-1.573, 6.539e-4
-1.572, 6.418e-4
-1.571, 6.298e-4
-1.570, 6.178e-4
-1.569, 6.060e-4
-1.568, 5.945e-4
-1.567, 5.827e-4
-1.566, 5.712e-4
-1.565, 5.598e-4
-1.564, 5.488e-4
-1.563, 5.384e-4
-1.562, 5.282e-4
-1.561, 5.179e-4
-1.560, 5.077e-4
-1.559, 4.976e-4
-1.558, 4.878e-4
-1.557, 4.780e-4
-1.556, 4.682e-4
-1.555, 4.585e-4
-1.554, 4.490e-4
-1.553, 4.400e-4
-1.552, 4.311e-4
-1.551, 4.222e-4
-1.550, 4.133e-4
-1.549, 4.044e-4
-1.548, 3.960e-4
-1.547, 3.879e-4
-1.546, 3.799e-4
-1.545, 3.717e-4
-1.544, 3.639e-4
-1.543, 3.561e-4
-1.542, 3.484e-4
-1.541, 3.409e-4
-1.540, 3.335e-4
-1.539, 3.263e-4
-1.538, 3.192e-4
-1.537, 3.122e-4
-1.536, 3.052e-4
-1.535, 2.983e-4
-1.534, 2.916e-4
-1.533, 2.852e-4
-1.532, 2.789e-4
-1.531, 2.727e-4
-1.530, 2.665e-4
-1.529, 2.603e-4
-1.528, 2.545e-4
-1.527, 2.487e-4
-1.526, 2.430e-4
-1.525, 2.372e-4
-1.524, 2.315e-4
-1.523, 2.262e-4
-1.522, 2.210e-4
-1.521, 2.158e-4
-1.520, 2.105e-4
-1.519, 2.054e-4
-1.518, 2.007e-4
-1.517, 1.961e-4
-1.516, 1.915e-4
-1.515, 1.869e-4
-1.514, 1.824e-4
-1.513, 1.781e-4
-1.512, 1.738e-4
-1.511, 1.695e-4
-1.510, 1.652e-4
-1.509, 1.611e-4
-1.508, 1.575e-4
-1.507, 1.538e-4
-1.506, 1.502e-4
-1.505, 1.464e-4
-1.504, 1.428e-4
-1.503, 1.394e-4
-1.502, 1.361e-4
-1.501, 1.328e-4
-1.500, 1.294e-4
-1.499, 1.262e-4
-1.498, 1.233e-4
-1.497, 1.204e-4
-1.496, 1.175e-4
-1.495, 1.145e-4
-1.494, 1.116e-4
-1.493, 1.090e-4
-1.492, 1.064e-4
-1.491, 1.036e-4
-1.490, 1.009e-4
-1.489, 9.835e-5
-1.488, 9.606e-5
-1.487, 9.380e-5
-1.486, 9.141e-5
-1.485, 8.904e-5
-1.484, 8.675e-5
-1.483, 8.466e-5
-1.482, 8.263e-5
-1.481, 8.056e-5
-1.480, 7.842e-5
-1.479, 7.645e-5
-1.478, 7.462e-5
-1.477, 7.298e-5
-1.476, 7.118e-5
-1.475, 6.923e-5
-1.474, 6.745e-5
-1.473, 6.596e-5
-1.472, 6.447e-5
-1.471, 6.290e-5
-1.470, 6.124e-5
-1.469, 5.965e-5
-1.468, 5.828e-5
-1.467, 5.698e-5
-1.466, 5.550e-5
-1.465, 5.421e-5
-1.464, 5.268e-5
-1.463, 5.148e-5
-1.462, 5.033e-5
-1.461, 4.911e-5
-1.460, 4.787e-5
-1.459, 4.661e-5
-1.458, 4.552e-5
-1.457, 4.457e-5
-1.456, 4.350e-5
-1.455, 4.239e-5
-1.454, 4.127e-5
-1.453, 4.039e-5
-1.452, 3.955e-5
-1.451, 3.855e-5
-1.450, 3.760e-5
-1.449, 3.663e-5
-1.448, 3.590e-5
-1.447, 3.516e-5
-1.446, 3.429e-5
-1.445, 3.345e-5
-1.444, 3.259e-5
-1.443, 3.189e-5
-1.442, 3.131e-5
-1.441, 3.056e-5
-1.440, 2.976e-5
-1.439, 2.905e-5
-1.438, 2.846e-5
-1.437, 2.798e-5
-1.436, 2.735e-5
-1.435, 2.661e-5
-1.434, 2.594e-5
-1.433, 2.546e-5
-1.432, 2.503e-5
-1.431, 2.448e-5
-1.430, 2.383e-5
-1.429, 2.328e-5
-1.428, 2.286e-5
-1.427, 2.245e-5
-1.426, 2.199e-5
-1.425, 2.144e-5
-1.424, 2.095e-5
-1.423, 2.057e-5
-1.422, 2.023e-5
-1.421, 1.988e-5
-1.420, 1.936e-5
-1.419, 1.887e-5
-1.418, 1.859e-5
-1.417, 1.838e-5
-1.416, 1.804e-5
-1.415, 1.757e-5
-1.414, 1.715e-5
-1.413, 1.691e-5
-1.412, 1.667e-5
-1.411, 1.642e-5
-1.410, 1.605e-5
-1.409, 1.566e-5
-1.408, 1.549e-5
-1.407, 1.536e-5
-1.406, 1.515e-5
-1.405, 1.474e-5
-1.404, 1.442e-5
-1.403, 1.421e-5
-1.402, 1.416e-5
-1.401, 1.395e-5
-1.400, 1.362e-5
-1.399, 1.334e-5
-1.398, 1.317e-5
-1.397, 1.313e-5
-1.396, 1.298e-5
-1.395, 1.262e-5
-1.394, 1.235e-5
-1.393, 1.225e-5
-1.392, 1.223e-5
-1.391, 1.212e-5
-1.390, 1.185e-5
-1.389, 1.159e-5
-1.388, 1.154e-5
-1.387, 1.147e-5
-1.386, 1.143e-5
-1.385, 1.111e-5
-1.384, 1.090e-5
-1.383, 1.075e-5
-1.382, 1.080e-5
-1.381, 1.074e-5
-1.380, 1.048e-5
-1.379, 1.021e-5
-1.378, 1.016e-5
-1.377, 1.018e-5
-1.376, 1.013e-5
-1.375, 9.946e-6
-1.374, 9.692e-6
-1.373, 9.676e-6
-1.372, 9.702e-6
-1.371, 9.646e-6
-1.370, 9.395e-6
-1.369, 9.154e-6
-1.368, 9.129e-6
-1.367, 9.175e-6
-1.366, 9.139e-6
-1.365, 8.942e-6
-1.364, 8.687e-6
-1.363, 8.640e-6
-1.362, 8.666e-6
-1.361, 8.693e-6
-1.360, 8.447e-6
-1.359, 8.242e-6
-1.358, 8.225e-6
-1.357, 8.309e-6
-1.356, 8.337e-6
-1.355, 8.101e-6
-1.354, 7.914e-6
-1.353, 7.843e-6
-1.352, 7.881e-6
-1.351, 7.877e-6
-1.350, 7.610e-6
-1.349, 7.356e-6
-1.348, 7.358e-6
-1.347, 7.394e-6
-1.346, 7.453e-6
-1.345, 7.260e-6
-1.344, 7.006e-6
-1.343, 7.002e-6
-1.342, 7.077e-6
-1.341, 7.051e-6
-1.340, 6.831e-6
-1.339, 6.647e-6
-1.338, 6.556e-6
-1.337, 6.677e-6
-1.336, 6.710e-6
-1.335, 6.501e-6
-1.334, 6.266e-6
-1.333, 6.292e-6
-1.332, 6.342e-6
-1.331, 6.315e-6
-1.330, 6.178e-6
-1.329, 5.923e-6
-1.328, 5.902e-6
-1.327, 5.980e-6
-1.326, 5.987e-6
-1.325, 5.838e-6
-1.324, 5.654e-6
-1.323, 5.624e-6
-1.322, 5.706e-6
-1.321, 5.733e-6
-1.320, 5.585e-6
-1.319, 5.339e-6
-1.318, 5.335e-6
-1.317, 5.378e-6
-1.316, 5.426e-6
-1.315, 5.248e-6
-1.314, 5.035e-6
-1.313, 4.981e-6
-1.312, 5.074e-6
-1.311, 5.112e-6
-1.310, 4.919e-6
-1.309, 4.712e-6
-1.308, 4.689e-6
-1.307, 4.713e-6
-1.306, 4.778e-6
-1.305, 4.621e-6
-1.304, 4.354e-6
-1.303, 4.310e-6
-1.302, 4.403e-6
-1.301, 4.438e-6
-1.300, 4.295e-6
-1.299, 4.055e-6
-1.298, 4.028e-6
-1.297, 4.122e-6
-1.296, 4.137e-6
-1.295, 4.000e-6
-1.294, 3.780e-6
-1.293, 3.762e-6
-1.292, 3.822e-6
-1.291, 3.805e-6
-1.290, 3.766e-6
-1.289, 3.473e-6
-1.288, 3.464e-6
-1.287, 3.592e-6
-1.286, 3.614e-6
-1.285, 3.475e-6
-1.284, 3.295e-6
-1.283, 3.168e-6
-1.282, 3.339e-6
-1.281, 3.373e-6
-1.280, 3.216e-6
-1.279, 3.030e-6
-1.278, 2.940e-6
-1.277, 3.061e-6
-1.276, 3.127e-6
-1.275, 2.980e-6
-1.274, 2.748e-6
-1.273, 2.682e-6
-1.272, 2.839e-6
-1.271, 2.903e-6
-1.270, 2.745e-6
-1.269, 2.564e-6
-1.268, 2.465e-6
-1.267, 2.527e-6
-1.266, 2.622e-6
-1.265, 2.464e-6
-1.264, 2.268e-6
-1.263, 2.210e-6
-1.262, 2.305e-6
-1.261, 2.423e-6
-1.260, 2.367e-6
-1.259, 2.070e-6
-1.258, 1.988e-6
-1.257, 2.082e-6
-1.256, 2.182e-6
-1.255, 2.044e-6
-1.254, 1.794e-6
-1.253, 1.727e-6
-1.252, 1.869e-6
-1.251, 1.922e-6
-1.250, 1.847e-6
-1.249, 1.613e-6
-1.248, 1.550e-6
-1.247, 1.624e-6
-1.246, 1.715e-6
-1.245, 1.631e-6
-1.244, 1.398e-6
-1.243, 1.254e-6
-1.242, 1.369e-6
-1.241, 1.459e-6
-1.240, 1.412e-6
-1.239, 1.142e-6
-1.238, 1.024e-6
-1.237, 1.136e-6
-1.236, 1.249e-6
-1.235, 1.122e-6
-1.234, 9.114e-7
-1.233, 7.970e-7
-1.232, 9.114e-7
-1.231, 1.017e-6
-1.230, 8.739e-7
-1.229, 6.145e-7
-1.228, 4.980e-7
-1.227, 6.075e-7
-1.226, 7.092e-7
-1.225, 5.681e-7
-1.224, 4.112e-7
-1.223, 3.007e-7
-1.222, 3.461e-7
-1.221, 4.931e-7
-1.220, 4.013e-7
-1.219, 1.379e-7
-1.218, -8.090e-9
-1.217, 3.631e-8
-1.216, 1.715e-7
-1.215, 1.034e-7
-1.214, -1.196e-7
-1.213, -2.587e-7
-1.212, -1.551e-7
-1.211, -8.208e-8
-1.210, -1.511e-7
-1.209, -3.869e-7
-1.208, -5.813e-7
-1.207, -4.629e-7
-1.206, -3.435e-7
-1.205, -3.800e-7
-1.204, -6.267e-7
-1.203, -7.618e-7
-1.202, -6.188e-7
-1.201, -5.231e-7
-1.200, -6.139e-7
-1.199, -8.427e-7
-1.198, -1.047e-6
-1.197, -9.079e-7
-1.196, -8.309e-7
-1.195, -8.990e-7
-1.194, -1.022e-6
-1.193, -1.244e-6
-1.192, -1.094e-6
-1.191, -9.542e-7
-1.190, -1.091e-6
-1.189, -1.289e-6
-1.188, -1.489e-6
-1.187, -1.491e-6
-1.186, -1.350e-6
-1.185, -1.377e-6
-1.184, -1.584e-6
-1.183, -1.757e-6
-1.182, -1.764e-6
-1.181, -1.576e-6
-1.180, -1.641e-6
-1.179, -1.857e-6
-1.178, -2.106e-6
-1.177, -2.017e-6
-1.176, -1.925e-6
-1.175, -1.863e-6
-1.174, -2.232e-6
-1.173, -2.381e-6
-1.172, -2.313e-6
-1.171, -2.225e-6
-1.170, -2.139e-6
-1.169, -2.462e-6
-1.168, -2.618e-6
-1.167, -2.606e-6
-1.166, -2.462e-6
-1.165, -2.409e-6
-1.164, -2.700e-6
-1.163, -2.923e-6
-1.162, -2.824e-6
-1.161, -2.736e-6
-1.160, -2.734e-6
-1.159, -2.931e-6
-1.158, -3.216e-6
-1.157, -3.124e-6
-1.156, -2.961e-6
-1.155, -2.978e-6
-1.154, -3.250e-6
-1.153, -3.458e-6
-1.152, -3.411e-6
-1.151, -3.219e-6
-1.150, -3.235e-6
-1.149, -3.464e-6
-1.148, -3.715e-6
-1.147, -3.700e-6
-1.146, -3.494e-6
-1.145, -3.454e-6
-1.144, -3.686e-6
-1.143, -3.902e-6
-1.142, -3.950e-6
-1.141, -3.804e-6
-1.140, -3.710e-6
-1.139, -3.969e-6
-1.138, -4.138e-6
-1.137, -4.179e-6
-1.136, -3.999e-6
-1.135, -3.963e-6
-1.134, -4.212e-6
-1.133, -4.430e-6
-1.132, -4.408e-6
-1.131, -4.317e-6
-1.130, -4.211e-6
-1.129, -4.422e-6
-1.128, -4.653e-6
-1.127, -4.615e-6
-1.126, -4.494e-6
-1.125, -4.389e-6
-1.124, -4.640e-6
-1.123, -4.857e-6
-1.122, -4.859e-6
-1.121, -4.680e-6
-1.120, -4.630e-6
-1.119, -4.851e-6
-1.118, -5.110e-6
-1.117, -5.079e-6
-1.116, -4.853e-6
-1.115, -4.869e-6
-1.114, -5.050e-6
-1.113, -5.266e-6
-1.112, -5.241e-6
-1.111, -5.083e-6
-1.110, -5.039e-6
-1.109, -5.214e-6
-1.108, -5.438e-6
-1.107, -5.489e-6
-1.106, -5.305e-6
-1.105, -5.220e-6
-1.104, -5.346e-6
-1.103, -5.607e-6
-1.102, -5.622e-6
-1.101, -5.483e-6
-1.100, -5.391e-6
-1.099, -5.601e-6
-1.098, -5.827e-6
-1.097, -5.865e-6
-1.096, -5.609e-6
-1.095, -5.567e-6
-1.094, -5.741e-6
-1.093, -5.981e-6
-1.092, -5.972e-6
-1.091, -5.878e-6
-1.090, -5.745e-6
-1.089, -5.941e-6
-1.088, -6.198e-6
-1.087, -6.152e-6
-1.086, -6.064e-6
-1.085, -5.874e-6
-1.084, -6.109e-6
-1.083, -6.359e-6
-1.082, -6.399e-6
-1.081, -6.262e-6
-1.080, -6.107e-6
-1.079, -6.262e-6
-1.078, -6.548e-6
-1.077, -6.544e-6
-1.076, -6.376e-6
-1.075, -6.289e-6
-1.074, -6.444e-6
-1.073, -6.701e-6
-1.072, -6.710e-6
-1.071, -6.528e-6
-1.070, -6.490e-6
-1.069, -6.592e-6
-1.068, -6.848e-6
-1.067, -6.936e-6
-1.066, -6.682e-6
-1.065, -6.604e-6
-1.064, -6.690e-6
-1.063, -6.896e-6
-1.062, -7.048e-6
-1.061, -6.821e-6
-1.060, -6.708e-6
-1.059, -6.883e-6
-1.058, -7.117e-6
-1.057, -7.255e-6
-1.056, -7.036e-6
-1.055, -6.890e-6
-1.054, -7.071e-6
-1.053, -7.270e-6
-1.052, -7.344e-6
-1.051, -7.220e-6
-1.050, -7.067e-6
-1.049, -7.216e-6
-1.048, -7.423e-6
-1.047, -7.533e-6
-1.046, -7.397e-6
-1.045, -7.217e-6
-1.044, -7.296e-6
-1.043, -7.593e-6
-1.042, -7.704e-6
-1.041, -7.491e-6
-1.040, -7.319e-6
-1.039, -7.456e-6
-1.038, -7.723e-6
-1.037, -7.839e-6
-1.036, -7.624e-6
-1.035, -7.457e-6
-1.034, -7.587e-6
-1.033, -7.872e-6
-1.032, -7.874e-6
-1.031, -7.755e-6
-1.030, -7.632e-6
-1.029, -7.675e-6
-1.028, -7.966e-6
-1.027, -8.071e-6
-1.026, -7.894e-6
-1.025, -7.701e-6
-1.024, -7.843e-6
-1.023, -8.067e-6
-1.022, -8.152e-6
-1.021, -7.947e-6
-1.020, -7.828e-6
-1.019, -7.897e-6
-1.018, -8.152e-6
-1.017, -8.315e-6
-1.016, -8.103e-6
-1.015, -7.959e-6
-1.014, -8.022e-6
-1.013, -8.270e-6
-1.012, -8.342e-6
-1.011, -8.251e-6
-1.010, -8.043e-6
-1.009, -8.174e-6
-1.008, -8.360e-6
-1.007, -8.491e-6
-1.006, -8.405e-6
-1.005, -8.138e-6
-1.004, -8.263e-6
-1.003, -8.467e-6
-1.002, -8.597e-6
-1.001, -8.408e-6
-1.000, -3.034e-6
-1.001, -1.364e-6
-1.002, -8.053e-7
-1.003, -4.442e-7
-1.004, 1.103e-7
-1.005, 7.111e-7
-1.006, 9.736e-7
-1.007, 1.067e-6
-1.008, 1.126e-6
-1.009, 1.471e-6
-1.010, 1.984e-6
-1.011, 2.058e-6
-1.012, 2.063e-6
-1.013, 2.157e-6
-1.014, 2.361e-6
-1.015, 2.752e-6
-1.016, 2.835e-6
-1.017, 2.764e-6
-1.018, 2.778e-6
-1.019, 2.988e-6
-1.020, 3.348e-6
-1.021, 3.414e-6
-1.022, 3.301e-6
-1.023, 3.288e-6
-1.024, 3.488e-6
-1.025, 3.773e-6
-1.026, 3.839e-6
-1.027, 3.718e-6
-1.028, 3.636e-6
-1.029, 3.897e-6
-1.030, 4.177e-6
-1.031, 4.207e-6
-1.032, 4.081e-6
-1.033, 4.000e-6
-1.034, 4.186e-6
-1.035, 4.428e-6
-1.036, 4.469e-6
-1.037, 4.365e-6
-1.038, 4.270e-6
-1.039, 4.476e-6
-1.040, 4.655e-6
-1.041, 4.704e-6
-1.042, 4.607e-6
-1.043, 4.503e-6
-1.044, 4.650e-6
-1.045, 4.905e-6
-1.046, 4.970e-6
-1.047, 4.836e-6
-1.048, 4.684e-6
-1.049, 4.821e-6
-1.050, 5.126e-6
-1.051, 5.191e-6
-1.052, 4.986e-6
-1.053, 4.928e-6
-1.054, 5.027e-6
-1.055, 5.330e-6
-1.056, 5.375e-6
-1.057, 5.180e-6
-1.058, 5.071e-6
-1.059, 5.176e-6
-1.060, 5.479e-6
-1.061, 5.557e-6
-1.062, 5.359e-6
-1.063, 5.289e-6
-1.064, 5.370e-6
-1.065, 5.661e-6
-1.066, 5.772e-6
-1.067, 5.526e-6
-1.068, 5.438e-6
-1.069, 5.574e-6
-1.070, 5.814e-6
-1.071, 5.899e-6
-1.072, 5.754e-6
-1.073, 5.575e-6
-1.074, 5.751e-6
-1.075, 5.956e-6
-1.076, 6.056e-6
-1.077, 5.905e-6
-1.078, 5.744e-6
-1.079, 5.887e-6
-1.080, 6.075e-6
-1.081, 6.224e-6
-1.082, 6.057e-6
-1.083, 5.909e-6
-1.084, 6.011e-6
-1.085, 6.261e-6
-1.086, 6.412e-6
-1.087, 6.230e-6
-1.088, 6.102e-6
-1.089, 6.170e-6
-1.090, 6.410e-6
-1.091, 6.507e-6
-1.092, 6.347e-6
-1.093, 6.297e-6
-1.094, 6.298e-6
-1.095, 6.593e-6
-1.096, 6.650e-6
-1.097, 6.504e-6
-1.098, 6.438e-6
-1.099, 6.458e-6
-1.100, 6.683e-6
-1.101, 6.828e-6
-1.102, 6.707e-6
-1.103, 6.652e-6
-1.104, 6.658e-6
-1.105, 6.877e-6
-1.106, 7.054e-6
-1.107, 6.947e-6
-1.108, 6.806e-6
-1.109, 6.838e-6
-1.110, 7.139e-6
-1.111, 7.276e-6
-1.112, 7.093e-6
-1.113, 6.999e-6
-1.114, 7.120e-6
-1.115, 7.306e-6
-1.116, 7.432e-6
-1.117, 7.374e-6
-1.118, 7.197e-6
-1.119, 7.312e-6
-1.120, 7.505e-6
-1.121, 7.662e-6
-1.122, 7.589e-6
-1.123, 7.388e-6
-1.124, 7.496e-6
-1.125, 7.661e-6
-1.126, 7.839e-6
-1.127, 7.786e-6
-1.128, 7.622e-6
-1.129, 7.686e-6
-1.130, 7.944e-6
-1.131, 8.047e-6
-1.132, 7.978e-6
-1.133, 7.832e-6
-1.134, 7.906e-6
-1.135, 8.120e-6
-1.136, 8.256e-6
-1.137, 8.155e-6
-1.138, 8.085e-6
-1.139, 8.149e-6
-1.140, 8.322e-6
-1.141, 8.565e-6
-1.142, 8.473e-6
-1.143, 8.339e-6
-1.144, 8.338e-6
-1.145, 8.561e-6
-1.146, 8.731e-6
-1.147, 8.644e-6
-1.148, 8.569e-6
-1.149, 8.575e-6
-1.150, 8.758e-6
-1.151, 8.944e-6
-1.152, 8.899e-6
-1.153, 8.747e-6
-1.154, 8.814e-6
-1.155, 8.980e-6
-1.156, 9.130e-6
-1.157, 9.093e-6
-1.158, 8.902e-6
-1.159, 8.987e-6
-1.160, 9.159e-6
-1.161, 9.317e-6
-1.162, 9.266e-6
-1.163, 9.083e-6
-1.164, 9.117e-6
-1.165, 9.349e-6
-1.166, 9.470e-6
-1.167, 9.391e-6
-1.168, 9.159e-6
-1.169, 9.168e-6
-1.170, 9.447e-6
-1.171, 9.567e-6
-1.172, 9.521e-6
-1.173, 9.358e-6
-1.174, 9.339e-6
-1.175, 9.544e-6
-1.176, 9.643e-6
-1.177, 9.633e-6
-1.178, 9.494e-6
-1.179, 9.375e-6
-1.180, 9.626e-6
-1.181, 9.780e-6
-1.182, 9.642e-6
-1.183, 9.511e-6
-1.184, 9.512e-6
-1.185, 9.620e-6
-1.186, 9.767e-6
-1.187, 9.724e-6
-1.188, 9.510e-6
-1.189, 9.515e-6
-1.190, 9.672e-6
-1.191, 9.860e-6
-1.192, 9.754e-6
-1.193, 9.555e-6
-1.194, 9.522e-6
-1.195, 9.687e-6
-1.196, 9.842e-6
-1.197, 9.781e-6
-1.198, 9.574e-6
-1.199, 9.542e-6
-1.200, 9.681e-6
-1.201, 9.798e-6
-1.202, 9.843e-6
-1.203, 9.637e-6
-1.204, 9.547e-6
-1.205, 9.733e-6
-1.206, 9.865e-6
-1.207, 9.747e-6
-1.208, 9.618e-6
-1.209, 9.547e-6
-1.210, 9.717e-6
-1.211, 9.824e-6
-1.212, 9.772e-6
-1.213, 9.575e-6
-1.214, 9.549e-6
-1.215, 9.737e-6
-1.216, 9.862e-6
-1.217, 9.809e-6
-1.218, 9.675e-6
-1.219, 9.571e-6
-1.220, 9.684e-6
-1.221, 9.857e-6
-1.222, 9.807e-6
-1.223, 9.640e-6
-1.224, 9.580e-6
-1.225, 9.720e-6
-1.226, 9.933e-6
-1.227, 9.876e-6
-1.228, 9.798e-6
-1.229, 9.714e-6
-1.230, 9.822e-6
-1.231, 1.001e-5
-1.232, 9.934e-6
-1.233, 9.757e-6
-1.234, 9.769e-6
-1.235, 9.810e-6
-1.236, 1.003e-5
-1.237, 1.003e-5
-1.238, 9.899e-6
-1.239, 9.812e-6
-1.240, 9.901e-6
-1.241, 1.009e-5
-1.242, 1.005e-5
-1.243, 9.938e-6
-1.244, 9.880e-6
-1.245, 9.963e-6
-1.246, 1.018e-5
-1.247, 1.015e-5
-1.248, 1.008e-5
-1.249, 9.983e-6
-1.250, 1.013e-5
-1.251, 1.027e-5
-1.252, 1.027e-5
-1.253, 1.017e-5
-1.254, 1.004e-5
-1.255, 1.013e-5
-1.256, 1.033e-5
-1.257, 1.027e-5
-1.258, 1.018e-5
-1.259, 1.011e-5
-1.260, 1.024e-5
-1.261, 1.042e-5
-1.262, 1.034e-5
-1.263, 1.026e-5
-1.264, 1.014e-5
-1.265, 1.023e-5
-1.266, 1.047e-5
-1.267, 1.042e-5
-1.268, 1.031e-5
-1.269, 1.030e-5
-1.270, 1.046e-5
-1.271, 1.069e-5
-1.272, 1.066e-5
-1.273, 1.056e-5
-1.274, 1.045e-5
-1.275, 1.053e-5
-1.276, 1.072e-5
-1.277, 1.076e-5
-1.278, 1.062e-5
-1.279, 1.057e-5
-1.280, 1.072e-5
-1.281, 1.090e-5
-1.282, 1.091e-5
-1.283, 1.076e-5
-1.284, 1.072e-5
-1.285, 1.079e-5
-1.286, 1.099e-5
-1.287, 1.103e-5
-1.288, 1.091e-5
-1.289, 1.086e-5
-1.290, 1.098e-5
-1.291, 1.118e-5
-1.292, 1.121e-5
-1.293, 1.109e-5
-1.294, 1.100e-5
-1.295, 1.111e-5
-1.296, 1.133e-5
-1.297, 1.136e-5
-1.298, 1.129e-5
-1.299, 1.122e-5
-1.300, 1.132e-5
-1.301, 1.151e-5
-1.302, 1.158e-5
-1.303, 1.145e-5
-1.304, 1.137e-5
-1.305, 1.145e-5
-1.306, 1.175e-5
-1.307, 1.183e-5
-1.308, 1.168e-5
-1.309, 1.160e-5
-1.310, 1.170e-5
-1.311, 1.184e-5
-1.312, 1.191e-5
-1.313, 1.186e-5
-1.314, 1.184e-5
-1.315, 1.188e-5
-1.316, 1.210e-5
-1.317, 1.224e-5
-1.318, 1.210e-5
-1.319, 1.202e-5
-1.320, 1.211e-5
-1.321, 1.231e-5
-1.322, 1.241e-5
-1.323, 1.234e-5
-1.324, 1.226e-5
-1.325, 1.240e-5
-1.326, 1.260e-5
-1.327, 1.272e-5
-1.328, 1.258e-5
-1.329, 1.247e-5
-1.330, 1.260e-5
-1.331, 1.282e-5
-1.332, 1.293e-5
-1.333, 1.292e-5
-1.334, 1.278e-5
-1.335, 1.290e-5
-1.336, 1.313e-5
-1.337, 1.322e-5
-1.338, 1.316e-5
-1.339, 1.308e-5
-1.340, 1.319e-5
-1.341, 1.342e-5
-1.342, 1.352e-5
-1.343, 1.348e-5
-1.344, 1.340e-5
-1.345, 1.349e-5
-1.346, 1.374e-5
-1.347, 1.388e-5
-1.348, 1.383e-5
-1.349, 1.376e-5
-1.350, 1.388e-5
-1.351, 1.407e-5
-1.352, 1.422e-5
-1.353, 1.419e-5
-1.354, 1.415e-5
-1.355, 1.426e-5
-1.356, 1.444e-5
-1.357, 1.468e-5
-1.358, 1.463e-5
-1.359, 1.459e-5
-1.360, 1.472e-5
-1.361, 1.491e-5
-1.362, 1.515e-5
-1.363, 1.507e-5
-1.364, 1.504e-5
-1.365, 1.514e-5
-1.366, 1.540e-5
-1.367, 1.562e-5
-1.368, 1.559e-5
-1.369, 1.552e-5
-1.370, 1.568e-5
-1.371, 1.592e-5
-1.372, 1.613e-5
-1.373, 1.611e-5
-1.374, 1.608e-5
-1.375, 1.622e-5
-1.376, 1.648e-5
-1.377, 1.672e-5
-1.378, 1.672e-5
-1.379, 1.672e-5
-1.380, 1.687e-5
-1.381, 1.718e-5
-1.382, 1.741e-5
-1.383, 1.740e-5
-1.384, 1.735e-5
-1.385, 1.744e-5
-1.386, 1.775e-5
-1.387, 1.799e-5
-1.388, 1.799e-5
-1.389, 1.807e-5
-1.390, 1.822e-5
-1.391, 1.850e-5
-1.392, 1.866e-5
-1.393, 1.870e-5
-1.394, 1.874e-5
-1.395, 1.879e-5
-1.396, 1.914e-5
-1.397, 1.943e-5
-1.398, 1.948e-5
-1.399, 1.950e-5
-1.400, 1.959e-5
-1.401, 1.992e-5
-1.402, 2.023e-5
-1.403, 2.028e-5
-1.404, 2.031e-5
-1.405, 2.048e-5
-1.406, 2.089e-5
-1.407, 2.113e-5
-1.408, 2.128e-5
-1.409, 2.128e-5
-1.410, 2.143e-5
-1.411, 2.176e-5
-1.412, 2.207e-5
-1.413, 2.219e-5
-1.414, 2.225e-5
-1.415, 2.245e-5
-1.416, 2.282e-5
-1.417, 2.316e-5
-1.418, 2.334e-5
-1.419, 2.337e-5
-1.420, 2.354e-5
-1.421, 2.397e-5
-1.422, 2.428e-5
-1.423, 2.449e-5
-1.424, 2.452e-5
-1.425, 2.479e-5
-1.426, 2.523e-5
-1.427, 2.565e-5
-1.428, 2.589e-5
-1.429, 2.598e-5
-1.430, 2.626e-5
-1.431, 2.680e-5
-1.432, 2.713e-5
-1.433, 2.743e-5
-1.434, 2.760e-5
-1.435, 2.792e-5
-1.436, 2.837e-5
-1.437, 2.889e-5
-1.438, 2.919e-5
-1.439, 2.958e-5
-1.440, 2.986e-5
-1.441, 3.040e-5
-1.442, 3.100e-5
-1.443, 3.145e-5
-1.444, 3.176e-5
-1.445, 3.222e-5
-1.446, 3.285e-5
-1.447, 3.354e-5
-1.448, 3.403e-5
-1.449, 3.450e-5
-1.450, 3.511e-5
-1.451, 3.581e-5
-1.452, 3.656e-5
-1.453, 3.722e-5
-1.454, 3.784e-5
-1.455, 3.855e-5
-1.456, 3.940e-5
-1.457, 4.034e-5
-1.458, 4.112e-5
-1.459, 4.175e-5
-1.460, 4.253e-5
-1.461, 4.352e-5
-1.462, 4.463e-5
-1.463, 4.555e-5
-1.464, 4.640e-5
-1.465, 4.741e-5
-1.466, 4.855e-5
-1.467, 4.982e-5
-1.468, 5.096e-5
-1.469, 5.204e-5
-1.470, 5.317e-5
-1.471, 5.459e-5
-1.472, 5.607e-5
-1.473, 5.741e-5
-1.474, 5.871e-5
-1.475, 6.011e-5
-1.476, 6.166e-5
-1.477, 6.341e-5
-1.478, 6.501e-5
-1.479, 6.658e-5
-1.480, 6.819e-5
-1.481, 7.009e-5
-1.482, 7.210e-5
-1.483, 7.395e-5
-1.484, 7.579e-5
-1.485, 7.776e-5
-1.486, 7.987e-5
-1.487, 8.224e-5
-1.488, 8.444e-5
-1.489, 8.661e-5
-1.490, 8.892e-5
-1.491, 9.137e-5
-1.492, 9.402e-5
-1.493, 9.652e-5
-1.494, 9.903e-5
-1.495, 1.017e-4
-1.496, 1.044e-4
-1.497, 1.074e-4
-1.498, 1.104e-4
-1.499, 1.133e-4
-1.500, 1.163e-4
-1.501, 1.194e-4
-1.502, 1.228e-4
-1.503, 1.261e-4
-1.504, 1.293e-4
-1.505, 1.327e-4
-1.506, 1.364e-4
-1.507, 1.401e-4
-1.508, 1.439e-4
-1.509, 1.476e-4
-1.510, 1.514e-4
-1.511, 1.557e-4
-1.512, 1.600e-4
-1.513, 1.642e-4
-1.514, 1.683e-4
-1.515, 1.726e-4
-1.516, 1.771e-4
-1.517, 1.818e-4
-1.518, 1.865e-4
-1.519, 1.912e-4
-1.520, 1.959e-4
-1.521, 2.009e-4
-1.522, 2.062e-4
-1.523, 2.115e-4
-1.524, 2.166e-4
-1.525, 2.219e-4
-1.526, 2.274e-4
-1.527, 2.332e-4
-1.528, 2.390e-4
-1.529, 2.447e-4
-1.530, 2.506e-4
-1.531, 2.567e-4
-1.532, 2.630e-4
-1.533, 2.693e-4
-1.534, 2.756e-4
-1.535, 2.820e-4
-1.536, 2.886e-4
-1.537, 2.955e-4
-1.538, 3.026e-4
-1.539, 3.095e-4
-1.540, 3.165e-4
-1.541, 3.238e-4
-1.542, 3.313e-4
-1.543, 3.389e-4
-1.544, 3.465e-4
-1.545, 3.542e-4
-1.546, 3.621e-4
-1.547, 3.704e-4
-1.548, 3.787e-4
-1.549, 3.869e-4
-1.550, 3.953e-4
-1.551, 4.041e-4
-1.552, 4.130e-4
-1.553, 4.221e-4
-1.554, 4.311e-4
-1.555, 4.402e-4
-1.556, 4.495e-4
-1.557, 4.594e-4
-1.558, 4.693e-4
-1.559, 4.790e-4
-1.560, 4.888e-4
-1.561, 4.992e-4
-1.562, 5.098e-4
-1.563, 5.205e-4
-1.564, 5.313e-4
-1.565, 5.421e-4
-1.566, 5.533e-4
-1.567, 5.647e-4
-1.568, 5.764e-4
-1.569, 5.879e-4
-1.570, 5.996e-4
-1.571, 6.116e-4
-1.572, 6.240e-4
-1.573, 6.370e-4
-1.574, 6.496e-4
-1.575, 6.621e-4
-1.576, 6.753e-4
-1.577, 6.888e-4
-1.578, 7.025e-4
-1.579, 7.161e-4
-1.580, 7.299e-4
-1.581, 7.441e-4
-1.582, 7.584e-4
-1.583, 7.733e-4
-1.584, 7.882e-4
-1.585, 8.033e-4
-1.586, 8.185e-4
-1.587, 8.343e-4
-1.588, 8.506e-4
-1.589, 8.670e-4
-1.590, 8.830e-4
-1.591, 8.992e-4
-1.592, 9.162e-4
-1.593, 9.334e-4
-1.594, 9.508e-4
-1.595, 9.685e-4
-1.596, 9.866e-4
-1.597, 1.005e-3
-1.598, 1.024e-3
-1.599, 1.042e-3
-1.600, 1.061e-3
-1.601, 1.080e-3
-1.602, 1.100e-3
-1.603, 1.121e-3
-1.604, 1.141e-3
-1.605, 1.162e-3
-1.606, 1.182e-3
-1.607, 1.204e-3
-1.608, 1.226e-3
-1.609, 1.249e-3
-1.610, 1.271e-3
-1.611, 1.294e-3
-1.612, 1.317e-3
-1.613, 1.341e-3
-1.614, 1.366e-3
-1.615, 1.390e-3
-1.616, 1.416e-3
-1.617, 1.442e-3
-1.618, 1.468e-3
-1.619, 1.494e-3
-1.620, 1.521e-3
-1.621, 1.548e-3
-1.622, 1.575e-3
-1.623, 1.604e-3
-1.624, 1.634e-3
-1.625, 1.664e-3
-1.626, 1.693e-3
-1.627, 1.723e-3
-1.628, 1.756e-3
-1.629, 1.789e-3
-1.630, 1.820e-3
-1.631, 1.851e-3
-1.632, 1.881e-3
-1.633, 1.916e-3
-1.634, 1.952e-3
-1.635, 1.985e-3
-1.636, 2.019e-3
-1.637, 2.055e-3
-1.638, 2.093e-3
-1.639, 2.126e-3
-1.640, 2.162e-3
-1.641, 2.201e-3
-1.642, 2.238e-3
-1.643, 2.279e-3
-1.644, 2.322e-3
-1.645, 2.362e-3
-1.646, 2.404e-3
-1.647, 2.444e-3
-1.648, 2.485e-3
-1.649, 2.524e-3
-1.650, 2.567e-3
-1.651, 2.613e-3
-1.652, 2.659e-3
-1.653, 2.706e-3
-1.654, 2.754e-3
-1.655, 2.802e-3
-1.656, 2.847e-3
-1.657, 2.894e-3
-1.658, 2.945e-3
-1.659, 2.997e-3
-1.660, 3.044e-3
-1.661, 3.093e-3
-1.662, 3.143e-3
-1.663, 3.196e-3
-1.664, 3.249e-3
-1.665, 3.307e-3
-1.666, 3.360e-3
-1.667, 3.412e-3
-1.668, 3.471e-3
-1.669, 3.528e-3
-1.670, 3.582e-3
-1.671, 3.641e-3
-1.672, 3.700e-3
-1.673, 3.759e-3
-1.674, 3.816e-3
-1.675, 3.879e-3
-1.676, 3.940e-3
-1.677, 4.000e-3
-1.678, 4.067e-3
-1.679, 4.132e-3
-1.680, 4.191e-3
-1.681, 4.257e-3
-1.682, 4.326e-3
-1.683, 4.396e-3
-1.684, 4.464e-3
-1.685, 4.520e-3
-1.686, 4.584e-3
-1.687, 4.660e-3
-1.688, 4.731e-3
-1.689, 4.797e-3
-1.690, 4.870e-3
-1.691, 4.940e-3
-1.692, 5.009e-3
-1.693, 5.087e-3
-1.694, 5.163e-3
-1.695, 5.238e-3
-1.696, 5.313e-3
-1.697, 5.389e-3
-1.698, 5.468e-3
-1.699, 5.556e-3
-1.700, 5.586e-3
-1.699, 5.546e-3
-1.698, 5.505e-3
-1.697, 5.455e-3
-1.696, 5.409e-3
-1.695, 5.368e-3
-1.694, 5.328e-3
-1.693, 5.282e-3
-1.692, 5.239e-3
-1.691, 5.189e-3
-1.690, 5.138e-3
-1.689, 5.088e-3
-1.688, 5.044e-3
-1.687, 4.996e-3
-1.686, 4.949e-3
-1.685, 4.909e-3
-1.684, 4.861e-3
-1.683, 4.809e-3
-1.682, 4.753e-3
-1.681, 4.695e-3
-1.680, 4.645e-3
-1.679, 4.595e-3
-1.678, 4.551e-3
-1.677, 4.504e-3
-1.676, 4.454e-3
-1.675, 4.407e-3
-1.674, 4.361e-3
-1.673, 4.314e-3
-1.672, 4.263e-3
-1.671, 4.214e-3
-1.670, 4.169e-3
-1.669, 4.124e-3
-1.668, 4.079e-3
-1.667, 4.035e-3
-1.666, 3.993e-3
-1.665, 3.950e-3
-1.664, 3.908e-3
-1.663, 3.864e-3
-1.662, 3.817e-3
-1.661, 3.771e-3
-1.660, 3.727e-3
-1.659, 3.685e-3
-1.658, 3.641e-3
-1.657, 3.599e-3
-1.656, 3.559e-3
-1.655, 3.518e-3
-1.654, 3.478e-3
-1.653, 3.437e-3
-1.652, 3.400e-3
-1.651, 3.356e-3
-1.650, 3.316e-3
-1.649, 3.277e-3
-1.648, 3.236e-3
-1.647, 3.198e-3
-1.646, 3.159e-3
-1.645, 3.120e-3
-1.644, 3.083e-3
-1.643, 3.048e-3
-1.642, 3.011e-3
-1.641, 2.980e-3
-1.640, 2.948e-3
-1.639, 2.909e-3
-1.638, 2.872e-3
-1.637, 2.835e-3
-1.636, 2.797e-3
-1.635, 2.758e-3
-1.634, 2.721e-3
-1.633, 2.687e-3
-1.632, 2.653e-3
-1.631, 2.617e-3
-1.630, 2.584e-3
-1.629, 2.552e-3
-1.628, 2.518e-3
-1.627, 2.485e-3
-1.626, 2.450e-3
-1.625, 2.416e-3
-1.624, 2.382e-3
-1.623, 2.350e-3
-1.622, 2.319e-3
-1.621, 2.288e-3
-1.620, 2.257e-3
-1.619, 2.227e-3
-1.618, 2.196e-3
-1.617, 2.167e-3
-1.616, 2.137e-3
-1.615, 2.106e-3
-1.614, 2.076e-3
-1.613, 2.046e-3
-1.612, 2.019e-3
-1.611, 1.992e-3
-1.610, 1.965e-3
-1.609, 1.938e-3
-1.608, 1.910e-3
-1.607, 1.881e-3
-1.606, 1.854e-3
-1.605, 1.827e-3
-1.604, 1.798e-3
-1.603, 1.773e-3
-1.602, 1.747e-3
-1.601, 1.721e-3
-1.600, 1.695e-3
-1.599, 1.669e-3
-1.598, 1.643e-3
-1.597, 1.619e-3
-1.596, 1.595e-3
-1.595, 1.570e-3
-1.594, 1.546e-3
-1.593, 1.522e-3
-1.592, 1.500e-3
-1.591, 1.477e-3
-1.590, 1.454e-3
-1.589, 1.432e-3
-1.588, 1.409e-3
-1.587, 1.387e-3
-1.586, 1.365e-3
-1.585, 1.343e-3
-1.584, 1.322e-3
-1.583, 1.301e-3
-1.582, 1.283e-3
-1.581, 1.261e-3
-1.580, 1.238e-3
-1.579, 1.217e-3
-1.578, 1.197e-3
-1.577, 1.177e-3
-1.576, 1.158e-3
-1.575, 1.138e-3
-1.574, 1.119e-3
-1.573, 1.100e-3
-1.572, 1.080e-3
-1.571, 1.061e-3
-1.570, 1.040e-3
-1.569, 1.020e-3
-1.568, 1.002e-3
-1.567, 9.845e-4
-1.566, 9.679e-4
-1.565, 9.506e-4
-1.564, 9.327e-4
-1.563, 9.148e-4
-1.562, 8.984e-4
-1.561, 8.827e-4
-1.560, 8.666e-4
-1.559, 8.503e-4
-1.558, 8.343e-4
-1.557, 8.187e-4
-1.556, 8.035e-4
-1.555, 7.877e-4
-1.554, 7.719e-4
-1.553, 7.562e-4
-1.552, 7.410e-4
-1.551, 7.260e-4
-1.550, 7.109e-4
-1.549, 6.961e-4
-1.548, 6.818e-4
-1.547, 6.681e-4
-1.546, 6.548e-4
-1.545, 6.414e-4
-1.544, 6.280e-4
-1.543, 6.148e-4
-1.542, 6.020e-4
-1.541, 5.898e-4
-1.540, 5.775e-4
-1.539, 5.653e-4
-1.538, 5.533e-4
-1.537, 5.416e-4
-1.536, 5.306e-4
-1.535, 5.194e-4
-1.534, 5.081e-4
-1.533, 4.970e-4
-1.532, 4.860e-4
-1.531, 4.757e-4
-1.530, 4.649e-4
-1.529, 4.542e-4
-1.528, 4.435e-4
-1.527, 4.331e-4
-1.526, 4.229e-4
-1.525, 4.130e-4
-1.524, 4.034e-4
-1.523, 3.942e-4
-1.522, 3.854e-4
-1.521, 3.767e-4
-1.520, 3.681e-4
-1.519, 3.592e-4
-1.518, 3.505e-4
-1.517, 3.424e-4
-1.516, 3.344e-4
-1.515, 3.264e-4
-1.514, 3.185e-4
-1.513, 3.109e-4
-1.512, 3.037e-4
-1.511, 2.966e-4
-1.510, 2.893e-4
-1.509, 2.823e-4
-1.508, 2.753e-4
-1.507, 2.685e-4
-1.506, 2.620e-4
-1.505, 2.555e-4
-1.504, 2.491e-4
-1.503, 2.430e-4
-1.502, 2.371e-4
-1.501, 2.313e-4
-1.500, 2.252e-4
-1.499, 2.192e-4
-1.498, 2.135e-4
-1.497, 2.081e-4
-1.496, 2.030e-4
-1.495, 1.978e-4
-1.494, 1.927e-4
-1.493, 1.878e-4
-1.492, 1.830e-4
-1.491, 1.783e-4
-1.490, 1.736e-4
-1.489, 1.689e-4
-1.488, 1.646e-4
-1.487, 1.606e-4
-1.486, 1.565e-4
-1.485, 1.524e-4
-1.484, 1.483e-4
-1.483, 1.445e-4
-1.482, 1.409e-4
-1.481, 1.373e-4
-1.480, 1.335e-4
-1.479, 1.299e-4
-1.478, 1.265e-4
-1.477, 1.233e-4
-1.476, 1.201e-4
-1.475, 1.169e-4
-1.474, 1.137e-4
-1.473, 1.108e-4
-1.472, 1.080e-4
-1.471, 1.052e-4
-1.470, 1.023e-4
-1.469, 9.947e-5
-1.468, 9.689e-5
-1.467, 9.432e-5
-1.466, 9.195e-5
-1.465, 8.937e-5
-1.464, 8.693e-5
-1.463, 8.469e-5
-1.462, 8.256e-5
-1.461, 8.047e-5
-1.460, 7.827e-5
-1.459, 7.607e-5
-1.458, 7.409e-5
-1.457, 7.220e-5
-1.456, 7.034e-5
-1.455, 6.831e-5
-1.454, 6.637e-5
-1.453, 6.462e-5
-1.452, 6.305e-5
-1.451, 6.147e-5
-1.450, 5.974e-5
-1.449, 5.807e-5
-1.448, 5.661e-5
-1.447, 5.521e-5
-1.446, 5.382e-5
-1.445, 5.226e-5
-1.444, 5.077e-5
-1.443, 4.945e-5
-1.442, 4.831e-5
-1.441, 4.713e-5
-1.440, 4.580e-5
-1.439, 4.448e-5
-1.438, 4.331e-5
-1.437, 4.234e-5
-1.436, 4.137e-5
-1.435, 4.015e-5
-1.434, 3.903e-5
-1.433, 3.807e-5
-1.432, 3.721e-5
-1.431, 3.642e-5
-1.430, 3.539e-5
-1.429, 3.440e-5
-1.428, 3.357e-5
-1.427, 3.283e-5
-1.426, 3.215e-5
-1.425, 3.128e-5
-1.424, 3.041e-5
-1.423, 2.972e-5
-1.422, 2.912e-5
-1.421, 2.855e-5
-1.420, 2.777e-5
-1.419, 2.695e-5
-1.418, 2.635e-5
-1.417, 2.585e-5
-1.416, 2.543e-5
-1.415, 2.474e-5
-1.414, 2.398e-5
-1.413, 2.351e-5
-1.412, 2.310e-5
-1.411, 2.273e-5
-1.410, 2.213e-5
-1.409, 2.150e-5
-1.408, 2.106e-5
-1.407, 2.075e-5
-1.406, 2.043e-5
-1.405, 1.997e-5
-1.404, 1.937e-5
-1.403, 1.903e-5
-1.402, 1.886e-5
-1.401, 1.843e-5
-1.400, 1.805e-5
-1.399, 1.753e-5
-1.398, 1.727e-5
-1.397, 1.706e-5
-1.396, 1.685e-5
-1.395, 1.640e-5
-1.394, 1.604e-5
-1.393, 1.578e-5
-1.392, 1.562e-5
-1.391, 1.542e-5
-1.390, 1.512e-5
-1.389, 1.470e-5
-1.388, 1.446e-5
-1.387, 1.437e-5
-1.386, 1.426e-5
-1.385, 1.392e-5
-1.384, 1.360e-5
-1.383, 1.338e-5
-1.382, 1.328e-5
-1.381, 1.324e-5
-1.380, 1.298e-5
-1.379, 1.264e-5
-1.378, 1.248e-5
-1.377, 1.239e-5
-1.376, 1.241e-5
-1.375, 1.218e-5
-1.374, 1.183e-5
-1.373, 1.163e-5
-1.372, 1.163e-5
-1.371, 1.156e-5
-1.370, 1.134e-5
-1.369, 1.102e-5
-1.368, 1.089e-5
-1.367, 1.087e-5
-1.366, 1.080e-5
-1.365, 1.062e-5
-1.364, 1.031e-5
-1.363, 1.014e-5
-1.362, 1.017e-5
-1.361, 1.012e-5
-1.360, 9.952e-6
-1.359, 9.649e-6
-1.358, 9.479e-6
-1.357, 9.567e-6
-1.356, 9.581e-6
-1.355, 9.345e-6
-1.354, 9.106e-6
-1.353, 8.962e-6
-1.352, 8.979e-6
-1.351, 8.995e-6
-1.350, 8.832e-6
-1.349, 8.597e-6
-1.348, 8.433e-6
-1.347, 8.466e-6
-1.346, 8.539e-6
-1.345, 8.320e-6
-1.344, 8.074e-6
-1.343, 7.951e-6
-1.342, 7.959e-6
-1.341, 7.993e-6
-1.340, 7.834e-6
-1.339, 7.584e-6
-1.338, 7.468e-6
-1.337, 7.527e-6
-1.336, 7.575e-6
-1.335, 7.364e-6
-1.334, 7.177e-6
-1.333, 7.048e-6
-1.332, 7.102e-6
-1.331, 7.097e-6
-1.330, 6.985e-6
-1.329, 6.788e-6
-1.328, 6.642e-6
-1.327, 6.709e-6
-1.326, 6.758e-6
-1.325, 6.651e-6
-1.324, 6.395e-6
-1.323, 6.288e-6
-1.322, 6.382e-6
-1.321, 6.429e-6
-1.320, 6.352e-6
-1.319, 6.113e-6
-1.318, 5.953e-6
-1.317, 6.005e-6
-1.316, 6.135e-6
-1.315, 5.994e-6
-1.314, 5.803e-6
-1.313, 5.652e-6
-1.312, 5.722e-6
-1.311, 5.817e-6
-1.310, 5.702e-6
-1.309, 5.463e-6
-1.308, 5.406e-6
-1.307, 5.428e-6
-1.306, 5.571e-6
-1.305, 5.457e-6
-1.304, 5.286e-6
-1.303, 5.188e-6
-1.302, 5.206e-6
-1.301, 5.337e-6
-1.300, 5.173e-6
-1.299, 4.929e-6
-1.298, 4.826e-6
-1.297, 4.926e-6
-1.296, 5.011e-6
-1.295, 4.867e-6
-1.294, 4.697e-6
-1.293, 4.612e-6
-1.292, 4.670e-6
-1.291, 4.721e-6
-1.290, 4.648e-6
-1.289, 4.380e-6
-1.288, 4.273e-6
-1.287, 4.343e-6
-1.286, 4.423e-6
-1.285, 4.337e-6
-1.284, 4.111e-6
-1.283, 3.967e-6
-1.282, 4.014e-6
-1.281, 4.092e-6
-1.280, 4.028e-6
-1.279, 3.825e-6
-1.278, 3.696e-6
-1.277, 3.777e-6
-1.276, 3.849e-6
-1.275, 3.755e-6
-1.274, 3.565e-6
-1.273, 3.401e-6
-1.272, 3.454e-6
-1.271, 3.568e-6
-1.270, 3.472e-6
-1.269, 3.308e-6
-1.268, 3.194e-6
-1.267, 3.243e-6
-1.266, 3.349e-6
-1.265, 3.237e-6
-1.264, 3.032e-6
-1.263, 2.876e-6
-1.262, 2.898e-6
-1.261, 3.028e-6
-1.260, 2.946e-6
-1.259, 2.693e-6
-1.258, 2.515e-6
-1.257, 2.563e-6
-1.256, 2.757e-6
-1.255, 2.685e-6
-1.254, 2.393e-6
-1.253, 2.255e-6
-1.252, 2.303e-6
-1.251, 2.445e-6
-1.250, 2.388e-6
-1.249, 2.196e-6
-1.248, 2.018e-6
-1.247, 2.106e-6
-1.246, 2.228e-6
-1.245, 2.153e-6
-1.244, 1.908e-6
-1.243, 1.729e-6
-1.242, 1.816e-6
-1.241, 1.860e-6
-1.240, 1.849e-6
-1.239, 1.679e-6
-1.238, 1.505e-6
-1.237, 1.560e-6
-1.236, 1.733e-6
-1.235, 1.633e-6
-1.234, 1.370e-6
-1.233, 1.140e-6
-1.232, 1.212e-6
-1.231, 1.376e-6
-1.230, 1.232e-6
-1.229, 9.785e-7
-1.228, 8.917e-7
-1.227, 9.006e-7
-1.226, 1.035e-6
-1.225, 9.154e-7
-1.224, 7.397e-7
-1.223, 5.266e-7
-1.222, 5.464e-7
-1.221, 6.993e-7
-1.220, 6.667e-7
-1.219, 3.865e-7
-1.218, 2.395e-7
-1.217, 2.711e-7
-1.216, 4.102e-7
-1.215, 2.711e-7
-1.214, 7.478e-8
-1.213, -5.446e-8
-1.212, -6.433e-8
-1.211, 1.073e-7
-1.210, 3.433e-8
-1.209, -2.528e-7
-1.208, -4.096e-7
-1.207, -3.406e-7
-1.206, -2.597e-7
-1.205, -2.784e-7
-1.204, -5.251e-7
-1.203, -7.451e-7
-1.202, -6.642e-7
-1.201, -5.892e-7
-1.200, -6.198e-7
-1.199, -8.319e-7
-1.198, -1.074e-6
-1.197, -9.907e-7
-1.196, -8.625e-7
-1.195, -9.592e-7
-1.194, -1.199e-6
-1.193, -1.401e-6
-1.192, -1.373e-6
-1.191, -1.210e-6
-1.190, -1.276e-6
-1.189, -1.513e-6
-1.188, -1.649e-6
-1.187, -1.683e-6
-1.186, -1.519e-6
-1.185, -1.561e-6
-1.184, -1.850e-6
-1.183, -2.021e-6
-1.182, -1.984e-6
-1.181, -1.841e-6
-1.180, -1.871e-6
-1.179, -2.205e-6
-1.178, -2.367e-6
-1.177, -2.321e-6
-1.176, -2.161e-6
-1.175, -2.180e-6
-1.174, -2.536e-6
-1.173, -2.679e-6
-1.172, -2.687e-6
-1.171, -2.572e-6
-1.170, -2.516e-6
-1.169, -2.817e-6
-1.168, -3.007e-6
-1.167, -2.964e-6
-1.166, -2.830e-6
-1.165, -2.818e-6
-1.164, -3.101e-6
-1.163, -3.288e-6
-1.162, -3.243e-6
-1.161, -3.148e-6
-1.160, -3.137e-6
-1.159, -3.394e-6
-1.158, -3.600e-6
-1.157, -3.605e-6
-1.156, -3.447e-6
-1.155, -3.493e-6
-1.154, -3.752e-6
-1.153, -3.920e-6
-1.152, -3.918e-6
-1.151, -3.760e-6
-1.150, -3.823e-6
-1.149, -4.048e-6
-1.148, -4.197e-6
-1.147, -4.234e-6
-1.146, -4.055e-6
-1.145, -4.062e-6
-1.144, -4.294e-6
-1.143, -4.534e-6
-1.142, -4.517e-6
-1.141, -4.347e-6
-1.140, -4.320e-6
-1.139, -4.644e-6
-1.138, -4.800e-6
-1.137, -4.828e-6
-1.136, -4.689e-6
-1.135, -4.662e-6
-1.134, -4.844e-6
-1.133, -5.090e-6
-1.132, -5.075e-6
-1.131, -4.922e-6
-1.130, -4.844e-6
-1.129, -5.134e-6
-1.128, -5.298e-6
-1.127, -5.264e-6
-1.126, -5.176e-6
-1.125, -5.139e-6
-1.124, -5.347e-6
-1.123, -5.566e-6
-1.122, -5.572e-6
-1.121, -5.397e-6
-1.120, -5.340e-6
-1.119, -5.589e-6
-1.118, -5.791e-6
-1.117, -5.785e-6
-1.116, -5.607e-6
-1.115, -5.627e-6
-1.114, -5.806e-6
-1.113, -6.052e-6
-1.112, -5.982e-6
-1.111, -5.784e-6
-1.110, -5.802e-6
-1.109, -5.990e-6
-1.108, -6.245e-6
-1.107, -6.206e-6
-1.106, -6.082e-6
-1.105, -6.049e-6
-1.104, -6.162e-6
-1.103, -6.381e-6
-1.102, -6.392e-6
-1.101, -6.201e-6
-1.100, -6.160e-6
-1.099, -6.465e-6
-1.098, -6.582e-6
-1.097, -6.578e-6
-1.096, -6.417e-6
-1.095, -6.322e-6
-1.094, -6.567e-6
-1.093, -6.708e-6
-1.092, -6.709e-6
-1.091, -6.564e-6
-1.090, -6.503e-6
-1.089, -6.790e-6
-1.088, -6.921e-6
-1.087, -6.917e-6
-1.086, -6.734e-6
-1.085, -6.677e-6
-1.084, -6.891e-6
-1.083, -7.112e-6
-1.082, -7.061e-6
-1.081, -6.945e-6
-1.080, -6.832e-6
-1.079, -7.037e-6
-1.078, -7.235e-6
-1.077, -7.172e-6
-1.076, -7.062e-6
-1.075, -7.020e-6
-1.074, -7.178e-6
-1.073, -7.460e-6
-1.072, -7.375e-6
-1.071, -7.247e-6
-1.070, -7.200e-6
-1.069, -7.381e-6
-1.068, -7.545e-6
-1.067, -7.656e-6
-1.066, -7.443e-6
-1.065, -7.354e-6
-1.064, -7.541e-6
-1.063, -7.750e-6
-1.062, -7.771e-6
-1.061, -7.559e-6
-1.060, -7.530e-6
-1.059, -7.739e-6
-1.058, -7.926e-6
-1.057, -7.969e-6
-1.056, -7.785e-6
-1.055, -7.668e-6
-1.054, -7.921e-6
-1.053, -8.114e-6
-1.052, -8.074e-6
-1.051, -7.887e-6
-1.050, -7.813e-6
-1.049, -8.039e-6
-1.048, -8.298e-6
-1.047, -8.262e-6
-1.046, -8.137e-6
-1.045, -7.984e-6
-1.044, -8.186e-6
-1.043, -8.469e-6
-1.042, -8.444e-6
-1.041, -8.267e-6
-1.040, -8.102e-6
-1.039, -8.368e-6
-1.038, -8.640e-6
-1.037, -8.628e-6
-1.036, -8.434e-6
-1.035, -8.397e-6
-1.034, -8.557e-6
-1.033, -8.788e-6
-1.032, -8.771e-6
-1.031, -8.592e-6
-1.030, -8.541e-6
-1.029, -8.700e-6
-1.028, -8.902e-6
-1.027, -8.945e-6
-1.026, -8.781e-6
-1.025, -8.659e-6
-1.024, -8.891e-6
-1.023, -9.077e-6
-1.022, -9.122e-6
-1.021, -8.901e-6
-1.020, -8.839e-6
-1.019, -9.068e-6
-1.018, -9.292e-6
-1.017, -9.310e-6
-1.016, -9.080e-6
-1.015, -8.959e-6
-1.014, -9.181e-6
-1.013, -9.360e-6
-1.012, -9.433e-6
-1.011, -9.252e-6
-1.010, -9.094e-6
-1.009, -9.370e-6
-1.008, -9.555e-6
-1.007, -9.564e-6
-1.006, -9.408e-6
-1.005, -9.258e-6
-1.004, -9.435e-6
-1.003, -9.779e-6
-1.002, -9.717e-6
-1.001, -9.552e-6
-1.000, -4.298e-6
-1.001, -2.681e-6
-1.002, -2.075e-6
-1.003, -1.523e-6
-1.004, -8.723e-7
-1.005, -3.070e-7
-1.006, -8.702e-8
-1.007, -1.302e-8
-1.008, 2.790e-7
-1.009, 7.388e-7
-1.010, 1.194e-6
-1.011, 1.224e-6
-1.012, 1.235e-6
-1.013, 1.475e-6
-1.014, 1.796e-6
-1.015, 2.146e-6
-1.016, 2.103e-6
-1.017, 2.029e-6
-1.018, 2.192e-6
-1.019, 2.495e-6
-1.020, 2.782e-6
-1.021, 2.763e-6
-1.022, 2.657e-6
-1.023, 2.799e-6
-1.024, 3.073e-6
-1.025, 3.317e-6
-1.026, 3.318e-6
-1.027, 3.140e-6
-1.028, 3.260e-6
-1.029, 3.563e-6
-1.030, 3.755e-6
-1.031, 3.668e-6
-1.032, 3.486e-6
-1.033, 3.597e-6
-1.034, 3.904e-6
-1.035, 4.133e-6
-1.036, 4.051e-6
-1.037, 3.921e-6
-1.038, 4.008e-6
-1.039, 4.257e-6
-1.040, 4.441e-6
-1.041, 4.334e-6
-1.042, 4.236e-6
-1.043, 4.294e-6
-1.044, 4.496e-6
-1.045, 4.742e-6
-1.046, 4.670e-6
-1.047, 4.550e-6
-1.048, 4.558e-6
-1.049, 4.752e-6
-1.050, 5.033e-6
-1.051, 4.893e-6
-1.052, 4.723e-6
-1.053, 4.788e-6
-1.054, 5.027e-6
-1.055, 5.176e-6
-1.056, 5.131e-6
-1.057, 4.938e-6
-1.058, 5.030e-6
-1.059, 5.228e-6
-1.060, 5.414e-6
-1.061, 5.327e-6
-1.062, 5.153e-6
-1.063, 5.194e-6
-1.064, 5.443e-6
-1.065, 5.603e-6
-1.066, 5.565e-6
-1.067, 5.322e-6
-1.068, 5.361e-6
-1.069, 5.608e-6
-1.070, 5.792e-6
-1.071, 5.728e-6
-1.072, 5.468e-6
-1.073, 5.517e-6
-1.074, 5.834e-6
-1.075, 5.899e-6
-1.076, 5.876e-6
-1.077, 5.699e-6
-1.078, 5.741e-6
-1.079, 5.988e-6
-1.080, 6.116e-6
-1.081, 6.048e-6
-1.082, 5.877e-6
-1.083, 5.860e-6
-1.084, 6.116e-6
-1.085, 6.296e-6
-1.086, 6.208e-6
-1.087, 6.121e-6
-1.088, 6.080e-6
-1.089, 6.318e-6
-1.090, 6.487e-6
-1.091, 6.423e-6
-1.092, 6.266e-6
-1.093, 6.286e-6
-1.094, 6.503e-6
-1.095, 6.658e-6
-1.096, 6.580e-6
-1.097, 6.437e-6
-1.098, 6.481e-6
-1.099, 6.663e-6
-1.100, 6.841e-6
-1.101, 6.839e-6
-1.102, 6.630e-6
-1.103, 6.660e-6
-1.104, 6.877e-6
-1.105, 7.025e-6
-1.106, 7.040e-6
-1.107, 6.899e-6
-1.108, 6.891e-6
-1.109, 7.161e-6
-1.110, 7.372e-6
-1.111, 7.266e-6
-1.112, 7.152e-6
-1.113, 7.119e-6
-1.114, 7.353e-6
-1.115, 7.542e-6
-1.116, 7.487e-6
-1.117, 7.360e-6
-1.118, 7.338e-6
-1.119, 7.620e-6
-1.120, 7.810e-6
-1.121, 7.750e-6
-1.122, 7.632e-6
-1.123, 7.583e-6
-1.124, 7.865e-6
-1.125, 8.030e-6
-1.126, 7.988e-6
-1.127, 7.905e-6
-1.128, 7.905e-6
-1.129, 8.146e-6
-1.130, 8.325e-6
-1.131, 8.273e-6
-1.132, 8.167e-6
-1.133, 8.199e-6
-1.134, 8.414e-6
-1.135, 8.618e-6
-1.136, 8.606e-6
-1.137, 8.430e-6
-1.138, 8.475e-6
-1.139, 8.633e-6
-1.140, 8.854e-6
-1.141, 8.850e-6
-1.142, 8.719e-6
-1.143, 8.749e-6
-1.144, 8.978e-6
-1.145, 9.160e-6
-1.146, 9.193e-6
-1.147, 9.046e-6
-1.148, 9.056e-6
-1.149, 9.310e-6
-1.150, 9.473e-6
-1.151, 9.445e-6
-1.152, 9.322e-6
-1.153, 9.322e-6
-1.154, 9.545e-6
-1.155, 9.726e-6
-1.156, 9.774e-6
-1.157, 9.654e-6
-1.158, 9.640e-6
-1.159, 9.863e-6
-1.160, 1.007e-5
-1.161, 9.989e-6
-1.162, 9.883e-6
-1.163, 9.852e-6
-1.164, 1.003e-5
-1.165, 1.022e-5
-1.166, 1.023e-5
-1.167, 1.014e-5
-1.168, 1.008e-5
-1.169, 1.028e-5
-1.170, 1.048e-5
-1.171, 1.046e-5
-1.172, 1.032e-5
-1.173, 1.032e-5
-1.174, 1.050e-5
-1.175, 1.072e-5
-1.176, 1.064e-5
-1.177, 1.051e-5
-1.178, 1.049e-5
-1.179, 1.066e-5
-1.180, 1.085e-5
-1.181, 1.085e-5
-1.182, 1.066e-5
-1.183, 1.064e-5
-1.184, 1.078e-5
-1.185, 1.095e-5
-1.186, 1.095e-5
-1.187, 1.079e-5
-1.188, 1.068e-5
-1.189, 1.093e-5
-1.190, 1.111e-5
-1.191, 1.110e-5
-1.192, 1.088e-5
-1.193, 1.090e-5
-1.194, 1.105e-5
-1.195, 1.116e-5
-1.196, 1.113e-5
-1.197, 1.097e-5
-1.198, 1.087e-5
-1.199, 1.111e-5
-1.200, 1.124e-5
-1.201, 1.121e-5
-1.202, 1.106e-5
-1.203, 1.101e-5
-1.204, 1.113e-5
-1.205, 1.131e-5
-1.206, 1.126e-5
-1.207, 1.111e-5
-1.208, 1.101e-5
-1.209, 1.123e-5
-1.210, 1.141e-5
-1.211, 1.138e-5
-1.212, 1.120e-5
-1.213, 1.114e-5
-1.214, 1.125e-5
-1.215, 1.145e-5
-1.216, 1.141e-5
-1.217, 1.125e-5
-1.218, 1.121e-5
-1.219, 1.136e-5
-1.220, 1.152e-5
-1.221, 1.151e-5
-1.222, 1.131e-5
-1.223, 1.135e-5
-1.224, 1.140e-5
-1.225, 1.159e-5
-1.226, 1.158e-5
-1.227, 1.144e-5
-1.228, 1.146e-5
-1.229, 1.159e-5
-1.230, 1.174e-5
-1.231, 1.176e-5
-1.232, 1.152e-5
-1.233, 1.146e-5
-1.234, 1.163e-5
-1.235, 1.176e-5
-1.236, 1.176e-5
-1.237, 1.168e-5
-1.238, 1.159e-5
-1.239, 1.175e-5
-1.240, 1.192e-5
-1.241, 1.190e-5
-1.242, 1.174e-5
-1.243, 1.170e-5
-1.244, 1.188e-5
-1.245, 1.206e-5
-1.246, 1.203e-5
-1.247, 1.194e-5
-1.248, 1.188e-5
-1.249, 1.203e-5
-1.250, 1.224e-5
-1.251, 1.219e-5
-1.252, 1.208e-5
-1.253, 1.206e-5
-1.254, 1.217e-5
-1.255, 1.242e-5
-1.256, 1.240e-5
-1.257, 1.227e-5
-1.258, 1.227e-5
-1.259, 1.235e-5
-1.260, 1.257e-5
-1.261, 1.261e-5
-1.262, 1.251e-5
-1.263, 1.248e-5
-1.264, 1.260e-5
-1.265, 1.280e-5
-1.266, 1.288e-5
-1.267, 1.273e-5
-1.268, 1.267e-5
-1.269, 1.278e-5
-1.270, 1.298e-5
-1.271, 1.303e-5
-1.272, 1.289e-5
-1.273, 1.284e-5
-1.274, 1.304e-5
-1.275, 1.323e-5
-1.276, 1.322e-5
-1.277, 1.314e-5
-1.278, 1.306e-5
-1.279, 1.327e-5
-1.280, 1.347e-5
-1.281, 1.346e-5
-1.282, 1.336e-5
-1.283, 1.332e-5
-1.284, 1.348e-5
-1.285, 1.367e-5
-1.286, 1.364e-5
-1.287, 1.360e-5
-1.288, 1.351e-5
-1.289, 1.369e-5
-1.290, 1.391e-5
-1.291, 1.392e-5
-1.292, 1.389e-5
-1.293, 1.382e-5
-1.294, 1.395e-5
-1.295, 1.421e-5
-1.296, 1.418e-5
-1.297, 1.411e-5
-1.298, 1.403e-5
-1.299, 1.415e-5
-1.300, 1.442e-5
-1.301, 1.441e-5
-1.302, 1.432e-5
-1.303, 1.429e-5
-1.304, 1.441e-5
-1.305, 1.466e-5
-1.306, 1.467e-5
-1.307, 1.452e-5
-1.308, 1.449e-5
-1.309, 1.465e-5
-1.310, 1.488e-5
-1.311, 1.491e-5
-1.312, 1.479e-5
-1.313, 1.473e-5
-1.314, 1.488e-5
-1.315, 1.510e-5
-1.316, 1.520e-5
-1.317, 1.506e-5
-1.318, 1.505e-5
-1.319, 1.519e-5
-1.320, 1.540e-5
-1.321, 1.545e-5
-1.322, 1.530e-5
-1.323, 1.527e-5
-1.324, 1.545e-5
-1.325, 1.565e-5
-1.326, 1.571e-5
-1.327, 1.566e-5
-1.328, 1.566e-5
-1.329, 1.583e-5
-1.330, 1.604e-5
-1.331, 1.608e-5
-1.332, 1.597e-5
-1.333, 1.588e-5
-1.334, 1.605e-5
-1.335, 1.635e-5
-1.336, 1.636e-5
-1.337, 1.624e-5
-1.338, 1.624e-5
-1.339, 1.642e-5
-1.340, 1.664e-5
-1.341, 1.670e-5
-1.342, 1.661e-5
-1.343, 1.659e-5
-1.344, 1.669e-5
-1.345, 1.699e-5
-1.346, 1.715e-5
-1.347, 1.700e-5
-1.348, 1.705e-5
-1.349, 1.716e-5
-1.350, 1.738e-5
-1.351, 1.752e-5
-1.352, 1.746e-5
-1.353, 1.742e-5
-1.354, 1.761e-5
-1.355, 1.786e-5
-1.356, 1.804e-5
-1.357, 1.793e-5
-1.358, 1.793e-5
-1.359, 1.809e-5
-1.360, 1.836e-5
-1.361, 1.851e-5
-1.362, 1.845e-5
-1.363, 1.845e-5
-1.364, 1.867e-5
-1.365, 1.895e-5
-1.366, 1.914e-5
-1.367, 1.906e-5
-1.368, 1.906e-5
-1.369, 1.922e-5
-1.370, 1.952e-5
-1.371, 1.965e-5
-1.372, 1.965e-5
-1.373, 1.969e-5
-1.374, 1.990e-5
-1.375, 2.028e-5
-1.376, 2.047e-5
-1.377, 2.056e-5
-1.378, 2.058e-5
-1.379, 2.072e-5
-1.380, 2.098e-5
-1.381, 2.118e-5
-1.382, 2.120e-5
-1.383, 2.127e-5
-1.384, 2.150e-5
-1.385, 2.176e-5
-1.386, 2.206e-5
-1.387, 2.207e-5
-1.388, 2.206e-5
-1.389, 2.239e-5
-1.390, 2.274e-5
-1.391, 2.298e-5
-1.392, 2.300e-5
-1.393, 2.299e-5
-1.394, 2.331e-5
-1.395, 2.370e-5
-1.396, 2.401e-5
-1.397, 2.408e-5
-1.398, 2.411e-5
-1.399, 2.442e-5
-1.400, 2.474e-5
-1.401, 2.505e-5
-1.402, 2.518e-5
-1.403, 2.522e-5
-1.404, 2.558e-5
-1.405, 2.607e-5
-1.406, 2.637e-5
-1.407, 2.649e-5
-1.408, 2.654e-5
-1.409, 2.694e-5
-1.410, 2.736e-5
-1.411, 2.768e-5
-1.412, 2.787e-5
-1.413, 2.800e-5
-1.414, 2.835e-5
-1.415, 2.886e-5
-1.416, 2.925e-5
-1.417, 2.938e-5
-1.418, 2.961e-5
-1.419, 3.003e-5
-1.420, 3.064e-5
-1.421, 3.106e-5
-1.422, 3.129e-5
-1.423, 3.158e-5
-1.424, 3.201e-5
-1.425, 3.261e-5
-1.426, 3.307e-5
-1.427, 3.334e-5
-1.428, 3.362e-5
-1.429, 3.413e-5
-1.430, 3.482e-5
-1.431, 3.533e-5
-1.432, 3.564e-5
-1.433, 3.603e-5
-1.434, 3.656e-5
-1.435, 3.727e-5
-1.436, 3.790e-5
-1.437, 3.834e-5
-1.438, 3.880e-5
-1.439, 3.958e-5
-1.440, 4.043e-5
-1.441, 4.117e-5
-1.442, 4.171e-5
-1.443, 4.231e-5
-1.444, 4.317e-5
-1.445, 4.399e-5
-1.446, 4.528e-5
-1.447, 4.573e-5
-1.448, 4.642e-5
-1.449, 4.746e-5
-1.450, 4.864e-5
-1.451, 4.932e-5
-1.452, 5.013e-5
-1.453, 5.095e-5
-1.454, 5.207e-5
-1.455, 5.329e-5
-1.456, 5.449e-5
-1.457, 5.619e-5
-1.458, 5.671e-5
-1.459, 5.803e-5
-1.460, 5.961e-5
-1.461, 6.107e-5
-1.462, 6.248e-5
-1.463, 6.391e-5
-1.464, 6.551e-5
-1.465, 6.733e-5
-1.466, 6.919e-5
-1.467, 7.095e-5
-1.468, 7.266e-5
-1.469, 7.474e-5
-1.470, 7.683e-5
-1.471, 8.003e-5
-1.472, 8.201e-5
-1.473, 8.488e-5
-1.474, 8.713e-5
-1.475, 8.838e-5
-1.476, 9.086e-5
-1.477, 9.332e-5
-1.478, 9.589e-5
-1.479, 9.876e-5
-1.480, 1.018e-4
-1.481, 1.049e-4
-1.482, 1.079e-4
-1.483, 1.109e-4
-1.484, 1.141e-4
-1.485, 1.176e-4
-1.486, 1.213e-4
-1.487, 1.247e-4
-1.488, 1.283e-4
-1.489, 1.322e-4
-1.490, 1.362e-4
-1.491, 1.404e-4
-1.492, 1.445e-4
-1.493, 1.485e-4
-1.494, 1.530e-4
-1.495, 1.576e-4
-1.496, 1.624e-4
-1.497, 1.671e-4
-1.498, 1.719e-4
-1.499, 1.769e-4
-1.500, 1.822e-4
-1.501, 1.875e-4
-1.502, 1.929e-4
-1.503, 1.983e-4
-1.504, 2.038e-4
-1.505, 2.096e-4
-1.506, 2.156e-4
-1.507, 2.216e-4
-1.508, 2.277e-4
-1.509, 2.339e-4
-1.510, 2.405e-4
-1.511, 2.472e-4
-1.512, 2.539e-4
-1.513, 2.606e-4
-1.514, 2.676e-4
-1.515, 2.748e-4
-1.516, 2.822e-4
-1.517, 2.895e-4
-1.518, 2.970e-4
-1.519, 3.047e-4
-1.520, 3.128e-4
-1.521, 3.209e-4
-1.522, 3.291e-4
-1.523, 3.373e-4
-1.524, 3.458e-4
-1.525, 3.545e-4
-1.526, 3.635e-4
-1.527, 3.725e-4
-1.528, 3.815e-4
-1.529, 3.908e-4
-1.530, 4.005e-4
-1.531, 4.103e-4
-1.532, 4.201e-4
-1.533, 4.301e-4
-1.534, 4.401e-4
-1.535, 4.505e-4
-1.536, 4.614e-4
-1.537, 4.722e-4
-1.538, 4.830e-4
-1.539, 4.941e-4
-1.540, 5.055e-4
-1.541, 5.172e-4
-1.542, 5.289e-4
-1.543, 5.407e-4
-1.544, 5.527e-4
-1.545, 5.654e-4
-1.546, 5.781e-4
-1.547, 5.909e-4
-1.548, 6.039e-4
-1.549, 6.166e-4
-1.550, 6.301e-4
-1.551, 6.441e-4
-1.552, 6.581e-4
-1.553, 6.720e-4
-1.554, 6.864e-4
-1.555, 7.012e-4
-1.556, 7.159e-4
-1.557, 7.311e-4
-1.558, 7.464e-4
-1.559, 7.619e-4
-1.560, 7.777e-4
-1.561, 7.938e-4
-1.562, 8.101e-4
-1.563, 8.264e-4
-1.564, 8.430e-4
-1.565, 8.600e-4
-1.566, 8.778e-4
-1.567, 8.955e-4
-1.568, 9.132e-4
-1.569, 9.312e-4
-1.570, 9.494e-4
-1.571, 9.683e-4
-1.572, 9.871e-4
-1.573, 1.006e-3
-1.574, 1.025e-3
-1.575, 1.045e-3
-1.576, 1.065e-3
-1.577, 1.086e-3
-1.578, 1.107e-3
-1.579, 1.127e-3
-1.580, 1.148e-3
-1.581, 1.170e-3
-1.582, 1.192e-3
-1.583, 1.213e-3
-1.584, 1.235e-3
-1.585, 1.258e-3
-1.586, 1.281e-3
-1.587, 1.305e-3
-1.588, 1.328e-3
-1.589, 1.352e-3
-1.590, 1.377e-3
-1.591, 1.402e-3
-1.592, 1.426e-3
-1.593, 1.451e-3
-1.594, 1.475e-3
-1.595, 1.501e-3
-1.596, 1.527e-3
-1.597, 1.554e-3
-1.598, 1.581e-3
-1.599, 1.605e-3
-1.600, 1.632e-3
-1.601, 1.661e-3
-1.602, 1.689e-3
-1.603, 1.717e-3
-1.604, 1.746e-3
-1.605, 1.773e-3
-1.606, 1.804e-3
-1.607, 1.834e-3
-1.608, 1.863e-3
-1.609, 1.892e-3
-1.610, 1.923e-3
-1.611, 1.953e-3
-1.612, 1.984e-3
-1.613, 2.017e-3
-1.614, 2.050e-3
-1.615, 2.082e-3
-1.616, 2.114e-3
-1.617, 2.148e-3
-1.618, 2.182e-3
-1.619, 2.215e-3
-1.620, 2.249e-3
-1.621, 2.283e-3
-1.622, 2.319e-3
-1.623, 2.354e-3
-1.624, 2.390e-3
-1.625, 2.426e-3
-1.626, 2.463e-3
-1.627, 2.501e-3
-1.628, 2.540e-3
-1.629, 2.577e-3
-1.630, 2.615e-3
-1.631, 2.657e-3
-1.632, 2.696e-3
-1.633, 2.734e-3
-1.634, 2.774e-3
-1.635, 2.815e-3
-1.636, 2.859e-3
-1.637, 2.901e-3
-1.638, 2.945e-3
-1.639, 2.990e-3
-1.640, 3.034e-3
-1.641, 3.078e-3
-1.642, 3.125e-3
-1.643, 3.172e-3
-1.644, 3.213e-3
-1.645, 3.262e-3
-1.646, 3.309e-3
-1.647, 3.358e-3
-1.648, 3.406e-3
-1.649, 3.456e-3
-1.650, 3.507e-3
-1.651, 3.557e-3
-1.652, 3.608e-3
-1.653, 3.662e-3
-1.654, 3.712e-3
-1.655, 3.765e-3
-1.656, 3.815e-3
-1.657, 3.867e-3
-1.658, 3.922e-3
-1.659, 3.977e-3
-1.660, 4.031e-3
-1.661, 4.084e-3
-1.662, 4.142e-3
-1.663, 4.200e-3
-1.664, 4.257e-3
-1.665, 4.313e-3
-1.666, 4.372e-3
-1.667, 4.432e-3
-1.668, 4.492e-3
-1.669, 4.550e-3
-1.670, 4.610e-3
-1.671, 4.672e-3
-1.672, 4.735e-3
-1.673, 4.800e-3
-1.674, 4.862e-3
-1.675, 4.925e-3
-1.676, 4.987e-3
-1.677, 5.056e-3
-1.678, 5.130e-3
-1.679, 5.206e-3
-1.680, 5.268e-3
-1.681, 5.335e-3
-1.682, 5.401e-3
-1.683, 5.465e-3
-1.684, 5.532e-3
-1.685, 5.597e-3
-1.686, 5.668e-3
-1.687, 5.734e-3
-1.688, 5.802e-3
-1.689, 5.872e-3
-1.690, 5.943e-3
-1.691, 6.018e-3
-1.692, 6.090e-3
-1.693, 6.164e-3
-1.694, 6.228e-3
-1.695, 6.298e-3
-1.696, 6.373e-3
-1.697, 6.451e-3
-1.698, 6.538e-3
-1.699, 6.609e-3
-1.700, 6.628e-3
-1.699, 6.590e-3
-1.698, 6.541e-3
-1.697, 6.490e-3
-1.696, 6.438e-3
-1.695, 6.380e-3
-1.694, 6.330e-3
-1.693, 6.274e-3
-1.692, 6.215e-3
-1.691, 6.161e-3
-1.690, 6.111e-3
-1.689, 6.066e-3
-1.688, 6.009e-3
-1.687, 5.955e-3
-1.686, 5.904e-3
-1.685, 5.848e-3
-1.684, 5.788e-3
-1.683, 5.751e-3
-1.682, 5.707e-3
-1.681, 5.645e-3
-1.680, 5.590e-3
-1.679, 5.545e-3
-1.678, 5.488e-3
-1.677, 5.433e-3
-1.676, 5.386e-3
-1.675, 5.339e-3
-1.674, 5.292e-3
-1.673, 5.241e-3
-1.672, 5.193e-3
-1.671, 5.140e-3
-1.670, 5.093e-3
-1.669, 5.043e-3
-1.668, 4.984e-3
-1.667, 4.926e-3
-1.666, 4.876e-3
-1.665, 4.833e-3
-1.664, 4.784e-3
-1.663, 4.730e-3
-1.662, 4.686e-3
-1.661, 4.639e-3
-1.660, 4.590e-3
-1.659, 4.545e-3
-1.658, 4.499e-3
-1.657, 4.444e-3
-1.656, 4.393e-3
-1.655, 4.341e-3
-1.654, 4.284e-3
-1.653, 4.232e-3
-1.652, 4.189e-3
-1.651, 4.143e-3
-1.650, 4.094e-3
-1.649, 4.051e-3
-1.648, 4.009e-3
-1.647, 3.965e-3
-1.646, 3.920e-3
-1.645, 3.875e-3
-1.644, 3.831e-3
-1.643, 3.788e-3
-1.642, 3.747e-3
-1.641, 3.700e-3
-1.640, 3.655e-3
-1.639, 3.614e-3
-1.638, 3.572e-3
-1.637, 3.530e-3
-1.636, 3.487e-3
-1.635, 3.444e-3
-1.634, 3.403e-3
-1.633, 3.363e-3
-1.632, 3.323e-3
-1.631, 3.280e-3
-1.630, 3.237e-3
-1.629, 3.197e-3
-1.628, 3.159e-3
-1.627, 3.120e-3
-1.626, 3.088e-3
-1.625, 3.049e-3
-1.624, 3.010e-3
-1.623, 2.972e-3
-1.622, 2.934e-3
-1.621, 2.894e-3
-1.620, 2.854e-3
-1.619, 2.815e-3
-1.618, 2.780e-3
-1.617, 2.744e-3
-1.616, 2.707e-3
-1.615, 2.672e-3
-1.614, 2.637e-3
-1.613, 2.604e-3
-1.612, 2.574e-3
-1.611, 2.540e-3
-1.610, 2.502e-3
-1.609, 2.470e-3
-1.608, 2.438e-3
-1.607, 2.403e-3
-1.606, 2.370e-3
-1.605, 2.338e-3
-1.604, 2.307e-3
-1.603, 2.276e-3
-1.602, 2.246e-3
-1.601, 2.214e-3
-1.600, 2.183e-3
-1.599, 2.153e-3
-1.598, 2.122e-3
-1.597, 2.093e-3
-1.596, 2.064e-3
-1.595, 2.034e-3
-1.594, 2.005e-3
-1.593, 1.976e-3
-1.592, 1.946e-3
-1.591, 1.917e-3
-1.590, 1.889e-3
-1.589, 1.861e-3
-1.588, 1.833e-3
-1.587, 1.805e-3
-1.586, 1.777e-3
-1.585, 1.750e-3
-1.584, 1.724e-3
-1.583, 1.696e-3
-1.582, 1.670e-3
-1.581, 1.643e-3
-1.580, 1.616e-3
-1.579, 1.590e-3
-1.578, 1.565e-3
-1.577, 1.539e-3
-1.576, 1.514e-3
-1.575, 1.489e-3
-1.574, 1.465e-3
-1.573, 1.441e-3
-1.572, 1.417e-3
-1.571, 1.393e-3
-1.570, 1.369e-3
-1.569, 1.344e-3
-1.568, 1.320e-3
-1.567, 1.297e-3
-1.566, 1.274e-3
-1.565, 1.252e-3
-1.564, 1.230e-3
-1.563, 1.208e-3
-1.562, 1.186e-3
-1.561, 1.166e-3
-1.560, 1.144e-3
-1.559, 1.120e-3
-1.558, 1.099e-3
-1.557, 1.079e-3
-1.556, 1.058e-3
-1.555, 1.037e-3
-1.554, 1.018e-3
-1.553, 9.985e-4
-1.552, 9.793e-4
-1.551, 9.597e-4
-1.550, 9.398e-4
-1.549, 9.208e-4
-1.548, 9.023e-4
-1.547, 8.843e-4
-1.546, 8.665e-4
-1.545, 8.487e-4
-1.544, 8.313e-4
-1.543, 8.141e-4
-1.542, 7.968e-4
-1.541, 7.798e-4
-1.540, 7.633e-4
-1.539, 7.473e-4
-1.538, 7.311e-4
-1.537, 7.154e-4
-1.536, 6.996e-4
-1.535, 6.839e-4
-1.534, 6.682e-4
-1.533, 6.533e-4
-1.532, 6.385e-4
-1.531, 6.236e-4
-1.530, 6.090e-4
-1.529, 5.954e-4
-1.528, 5.825e-4
-1.527, 5.693e-4
-1.526, 5.559e-4
-1.525, 5.430e-4
-1.524, 5.304e-4
-1.523, 5.181e-4
-1.522, 5.060e-4
-1.521, 4.936e-4
-1.520, 4.816e-4
-1.519, 4.701e-4
-1.518, 4.591e-4
-1.517, 4.483e-4
-1.516, 4.375e-4
-1.515, 4.271e-4
-1.514, 4.169e-4
-1.513, 4.069e-4
-1.512, 3.969e-4
-1.511, 3.871e-4
-1.510, 3.774e-4
-1.509, 3.681e-4
-1.508, 3.590e-4
-1.507, 3.498e-4
-1.506, 3.410e-4
-1.505, 3.325e-4
-1.504, 3.245e-4
-1.503, 3.164e-4
-1.502, 3.083e-4
-1.501, 3.004e-4
-1.500, 2.927e-4
-1.499, 2.853e-4
-1.498, 2.778e-4
-1.497, 2.705e-4
-1.496, 2.634e-4
-1.495, 2.567e-4
-1.494, 2.502e-4
-1.493, 2.439e-4
-1.492, 2.376e-4
-1.491, 2.314e-4
-1.490, 2.255e-4
-1.489, 2.196e-4
-1.488, 2.141e-4
-1.487, 2.084e-4
-1.486, 2.029e-4
-1.485, 1.975e-4
-1.484, 1.922e-4
-1.483, 1.872e-4
-1.482, 1.823e-4
-1.481, 1.776e-4
-1.480, 1.729e-4
-1.479, 1.683e-4
-1.478, 1.638e-4
-1.477, 1.594e-4
-1.476, 1.550e-4
-1.475, 1.509e-4
-1.474, 1.469e-4
-1.473, 1.431e-4
-1.472, 1.391e-4
-1.471, 1.352e-4
-1.470, 1.315e-4
-1.469, 1.281e-4
-1.468, 1.248e-4
-1.467, 1.214e-4
-1.466, 1.179e-4
-1.465, 1.148e-4
-1.464, 1.119e-4
-1.463, 1.090e-4
-1.462, 1.060e-4
-1.461, 1.031e-4
-1.460, 1.003e-4
-1.459, 9.764e-5
-1.458, 9.501e-5
-1.457, 9.230e-5
-1.456, 8.960e-5
-1.455, 8.718e-5
-1.454, 8.490e-5
-1.453, 8.276e-5
-1.452, 8.048e-5
-1.451, 7.811e-5
-1.450, 7.607e-5
-1.449, 7.409e-5
-1.448, 7.216e-5
-1.447, 7.014e-5
-1.446, 6.810e-5
-1.445, 6.630e-5
-1.444, 6.463e-5
-1.443, 6.297e-5
-1.442, 6.120e-5
-1.441, 5.937e-5
-1.440, 5.776e-5
-1.439, 5.633e-5
-1.438, 5.488e-5
-1.437, 5.332e-5
-1.436, 5.173e-5
-1.435, 5.037e-5
-1.434, 4.915e-5
-1.433, 4.791e-5
-1.432, 4.664e-5
-1.431, 4.524e-5
-1.430, 4.409e-5
-1.429, 4.307e-5
-1.428, 4.207e-5
-1.427, 4.094e-5
-1.426, 3.974e-5
-1.425, 3.872e-5
-1.424, 3.783e-5
-1.423, 3.705e-5
-1.422, 3.600e-5
-1.421, 3.500e-5
-1.420, 3.418e-5
-1.419, 3.341e-5
-1.418, 3.269e-5
-1.417, 3.190e-5
-1.416, 3.095e-5
-1.415, 3.025e-5
-1.414, 2.966e-5
-1.413, 2.904e-5
-1.412, 2.829e-5
-1.411, 2.744e-5
-1.410, 2.686e-5
-1.409, 2.643e-5
-1.408, 2.590e-5
-1.407, 2.526e-5
-1.406, 2.457e-5
-1.405, 2.402e-5
-1.404, 2.368e-5
-1.403, 2.322e-5
-1.402, 2.271e-5
-1.401, 2.207e-5
-1.400, 2.161e-5
-1.399, 2.137e-5
-1.398, 2.099e-5
-1.397, 2.055e-5
-1.396, 2.003e-5
-1.395, 1.961e-5
-1.394, 1.943e-5
-1.393, 1.912e-5
-1.392, 1.874e-5
-1.391, 1.823e-5
-1.390, 1.784e-5
-1.389, 1.770e-5
-1.388, 1.747e-5
-1.387, 1.715e-5
-1.386, 1.677e-5
-1.385, 1.647e-5
-1.384, 1.638e-5
-1.383, 1.619e-5
-1.382, 1.587e-5
-1.381, 1.551e-5
-1.380, 1.523e-5
-1.379, 1.507e-5
-1.378, 1.496e-5
-1.377, 1.463e-5
-1.376, 1.431e-5
-1.375, 1.409e-5
-1.374, 1.400e-5
-1.373, 1.397e-5
-1.372, 1.368e-5
-1.371, 1.326e-5
-1.370, 1.304e-5
-1.369, 1.293e-5
-1.368, 1.291e-5
-1.367, 1.264e-5
-1.366, 1.232e-5
-1.365, 1.212e-5
-1.364, 1.213e-5
-1.363, 1.203e-5
-1.362, 1.180e-5
-1.361, 1.146e-5
-1.360, 1.127e-5
-1.359, 1.122e-5
-1.358, 1.115e-5
-1.357, 1.098e-5
-1.356, 1.069e-5
-1.355, 1.047e-5
-1.354, 1.042e-5
-1.353, 1.041e-5
-1.352, 1.018e-5
-1.351, 9.844e-6
-1.350, 9.637e-6
-1.349, 9.702e-6
-1.348, 9.672e-6
-1.347, 9.459e-6
-1.346, 9.155e-6
-1.345, 8.945e-6
-1.344, 9.009e-6
-1.343, 8.985e-6
-1.342, 8.886e-6
-1.341, 8.638e-6
-1.340, 8.512e-6
-1.339, 8.538e-6
-1.338, 8.558e-6
-1.337, 8.351e-6
-1.336, 8.113e-6
-1.335, 7.942e-6
-1.334, 7.950e-6
-1.333, 7.978e-6
-1.332, 7.820e-6
-1.331, 7.551e-6
-1.330, 7.387e-6
-1.329, 7.444e-6
-1.328, 7.467e-6
-1.327, 7.269e-6
-1.326, 6.982e-6
-1.325, 6.873e-6
-1.324, 6.910e-6
-1.323, 6.942e-6
-1.322, 6.812e-6
-1.321, 6.575e-6
-1.320, 6.501e-6
-1.319, 6.573e-6
-1.318, 6.589e-6
-1.317, 6.437e-6
-1.316, 6.234e-6
-1.315, 6.041e-6
-1.314, 6.111e-6
-1.313, 6.153e-6
-1.312, 6.021e-6
-1.311, 5.812e-6
-1.310, 5.678e-6
-1.309, 5.845e-6
-1.308, 5.966e-6
-1.307, 5.806e-6
-1.306, 5.606e-6
-1.305, 5.446e-6
-1.304, 5.563e-6
-1.303, 5.630e-6
-1.302, 5.477e-6
-1.301, 5.223e-6
-1.300, 5.160e-6
-1.299, 5.203e-6
-1.298, 5.256e-6
-1.297, 5.157e-6
-1.296, 4.960e-6
-1.295, 4.817e-6
-1.294, 4.904e-6
-1.293, 4.981e-6
-1.292, 4.876e-6
-1.291, 4.555e-6
-1.290, 4.484e-6
-1.289, 4.589e-6
-1.288, 4.660e-6
-1.287, 4.601e-6
-1.286, 4.299e-6
-1.285, 4.222e-6
-1.284, 4.281e-6
-1.283, 4.338e-6
-1.282, 4.268e-6
-1.281, 4.017e-6
-1.280, 3.877e-6
-1.279, 3.995e-6
-1.278, 4.045e-6
-1.277, 4.021e-6
-1.276, 3.748e-6
-1.275, 3.619e-6
-1.274, 3.711e-6
-1.273, 3.774e-6
-1.272, 3.711e-6
-1.271, 3.441e-6
-1.270, 3.333e-6
-1.269, 3.377e-6
-1.268, 3.490e-6
-1.267, 3.326e-6
-1.266, 3.145e-6
-1.265, 2.978e-6
-1.264, 3.057e-6
-1.263, 3.171e-6
-1.262, 3.060e-6
-1.261, 2.880e-6
-1.260, 2.719e-6
-1.259, 2.721e-6
-1.258, 2.853e-6
-1.257, 2.689e-6
-1.256, 2.486e-6
-1.255, 2.373e-6
-1.254, 2.451e-6
-1.253, 2.574e-6
-1.252, 2.453e-6
-1.251, 2.247e-6
-1.250, 2.129e-6
-1.249, 2.130e-6
-1.248, 2.211e-6
-1.247, 2.168e-6
-1.246, 1.879e-6
-1.245, 1.761e-6
-1.244, 1.837e-6
-1.243, 1.996e-6
-1.242, 1.909e-6
-1.241, 1.667e-6
-1.240, 1.533e-6
-1.239, 1.613e-6
-1.238, 1.684e-6
-1.237, 1.594e-6
-1.236, 1.390e-6
-1.235, 1.220e-6
-1.234, 1.228e-6
-1.233, 1.376e-6
-1.232, 1.277e-6
-1.231, 1.079e-6
-1.230, 8.996e-7
-1.229, 8.986e-7
-1.228, 1.062e-6
-1.227, 9.578e-7
-1.226, 7.427e-7
-1.225, 5.592e-7
-1.224, 6.421e-7
-1.223, 7.240e-7
-1.222, 5.770e-7
-1.221, 4.329e-7
-1.220, 3.491e-7
-1.219, 3.224e-7
-1.218, 4.369e-7
-1.217, 3.254e-7
-1.216, 1.271e-7
-1.215, -3.867e-8
-1.214, 2.940e-8
-1.213, 1.784e-7
-1.212, 5.308e-8
-1.211, -1.798e-7
-1.210, -2.567e-7
-1.209, -2.360e-7
-1.208, -9.195e-8
-1.207, -1.748e-7
-1.206, -4.126e-7
-1.205, -5.922e-7
-1.204, -5.418e-7
-1.203, -4.185e-7
-1.202, -4.797e-7
-1.201, -6.819e-7
-1.200, -8.871e-7
-1.199, -8.566e-7
-1.198, -7.372e-7
-1.197, -8.516e-7
-1.196, -1.082e-6
-1.195, -1.261e-6
-1.194, -1.193e-6
-1.193, -1.094e-6
-1.192, -1.190e-6
-1.191, -1.393e-6
-1.190, -1.568e-6
-1.189, -1.479e-6
-1.188, -1.400e-6
-1.187, -1.533e-6
-1.186, -1.725e-6
-1.185, -1.884e-6
-1.184, -1.795e-6
-1.183, -1.701e-6
-1.182, -1.824e-6
-1.181, -2.043e-6
-1.180, -2.173e-6
-1.179, -2.209e-6
-1.178, -2.129e-6
-1.177, -2.205e-6
-1.176, -2.416e-6
-1.175, -2.591e-6
-1.174, -2.592e-6
-1.173, -2.425e-6
-1.172, -2.539e-6
-1.171, -2.752e-6
-1.170, -2.931e-6
-1.169, -2.911e-6
-1.168, -2.785e-6
-1.167, -2.869e-6
-1.166, -3.146e-6
-1.165, -3.289e-6
-1.164, -3.256e-6
-1.163, -3.157e-6
-1.162, -3.223e-6
-1.161, -3.504e-6
-1.160, -3.657e-6
-1.159, -3.632e-6
-1.158, -3.520e-6
-1.157, -3.567e-6
-1.156, -3.801e-6
-1.155, -4.021e-6
-1.154, -3.924e-6
-1.153, -3.891e-6
-1.152, -3.930e-6
-1.151, -4.167e-6
-1.150, -4.352e-6
-1.149, -4.310e-6
-1.148, -4.198e-6
-1.147, -4.234e-6
-1.146, -4.510e-6
-1.145, -4.673e-6
-1.144, -4.633e-6
-1.143, -4.504e-6
-1.142, -4.633e-6
-1.141, -4.844e-6
-1.140, -5.009e-6
-1.139, -4.987e-6
-1.138, -4.826e-6
-1.137, -4.850e-6
-1.136, -5.098e-6
-1.135, -5.216e-6
-1.134, -5.261e-6
-1.133, -5.118e-6
-1.132, -5.158e-6
-1.131, -5.470e-6
-1.130, -5.650e-6
-1.129, -5.587e-6
-1.128, -5.464e-6
-1.127, -5.469e-6
-1.126, -5.748e-6
-1.125, -5.865e-6
-1.124, -5.815e-6
-1.123, -5.717e-6
-1.122, -5.766e-6
-1.121, -6.011e-6
-1.120, -6.176e-6
-1.119, -6.145e-6
-1.118, -6.040e-6
-1.117, -6.022e-6
-1.116, -6.265e-6
-1.115, -6.432e-6
-1.114, -6.410e-6
-1.113, -6.229e-6
-1.112, -6.228e-6
-1.111, -6.468e-6
-1.110, -6.699e-6
-1.109, -6.610e-6
-1.108, -6.467e-6
-1.107, -6.499e-6
-1.106, -6.699e-6
-1.105, -6.976e-6
-1.104, -6.867e-6
-1.103, -6.738e-6
-1.102, -6.720e-6
-1.101, -6.994e-6
-1.100, -7.193e-6
-1.099, -7.163e-6
-1.098, -6.964e-6
-1.097, -7.003e-6
-1.096, -7.207e-6
-1.095, -7.380e-6
-1.094, -7.373e-6
-1.093, -7.163e-6
-1.092, -7.152e-6
-1.091, -7.485e-6
-1.090, -7.648e-6
-1.089, -7.604e-6
-1.088, -7.470e-6
-1.087, -7.428e-6
-1.086, -7.743e-6
-1.085, -7.848e-6
-1.084, -7.827e-6
-1.083, -7.681e-6
-1.082, -7.616e-6
-1.081, -7.909e-6
-1.080, -8.026e-6
-1.079, -8.060e-6
-1.078, -7.908e-6
-1.077, -7.838e-6
-1.076, -8.134e-6
-1.075, -8.319e-6
-1.074, -8.251e-6
-1.073, -8.094e-6
-1.072, -8.030e-6
-1.071, -8.320e-6
-1.070, -8.493e-6
-1.069, -8.490e-6
-1.068, -8.320e-6
-1.067, -8.270e-6
-1.066, -8.533e-6
-1.065, -8.720e-6
-1.064, -8.667e-6
-1.063, -8.485e-6
-1.062, -8.478e-6
-1.061, -8.716e-6
-1.060, -8.914e-6
-1.059, -8.906e-6
-1.058, -8.721e-6
-1.057, -8.685e-6
-1.056, -8.911e-6
-1.055, -9.112e-6
-1.054, -9.087e-6
-1.053, -8.904e-6
-1.052, -8.818e-6
-1.051, -9.121e-6
-1.050, -9.321e-6
-1.049, -9.262e-6
-1.048, -9.081e-6
-1.047, -8.969e-6
-1.046, -9.311e-6
-1.045, -9.437e-6
-1.044, -9.427e-6
-1.043, -9.275e-6
-1.042, -9.206e-6
-1.041, -9.463e-6
-1.040, -9.603e-6
-1.039, -9.618e-6
-1.038, -9.478e-6
-1.037, -9.423e-6
-1.036, -9.597e-6
-1.035, -9.855e-6
-1.034, -9.732e-6
-1.033, -9.653e-6
-1.032, -9.523e-6
-1.031, -9.785e-6
-1.030, -1.005e-5
-1.029, -9.943e-6
-1.028, -9.771e-6
-1.027, -9.751e-6
-1.026, -9.971e-6
-1.025, -1.020e-5
-1.024, -1.010e-5
-1.023, -9.986e-6
-1.022, -9.914e-6
-1.021, -1.012e-5
-1.020, -1.034e-5
-1.019, -1.036e-5
-1.018, -1.014e-5
-1.017, -1.008e-5
-1.016, -1.033e-5
-1.015, -1.049e-5
-1.014, -1.051e-5
-1.013, -1.030e-5
-1.012, -1.022e-5
-1.011, -1.050e-5
-1.010, -1.065e-5
-1.009, -1.066e-5
-1.008, -1.038e-5
-1.007, -1.037e-5
-1.006, -1.061e-5
-1.005, -1.078e-5
-1.004, -1.079e-5
-1.003, -1.062e-5
-1.002, -1.053e-5
-1.001, -1.079e-5
