Potential V vs RHE, Current mA cm-2
0.013299999999999867,-4.364384360083638
0.012299999999999978,-5.80314575204638
0.011299999999999866,-7.024041603829907
0.010299999999999976,-8.158640066321666
0.009299999999999864,-9.205526428221793
0.008299999999999974,-10.164700689530287
0.007299999999999862,-11.037577561547016
0.006299999999999972,-11.909039722263879
0.00529999999999986,-12.651763154693022
0.0042999999999999705,-13.436927926118118
0.0032999999999998586,-14.13438059695158
0.0022999999999999687,-14.783733083589633
0.0012999999999998568,-15.448647394526201
0.00029999999999996696,-16.056973253468165
-0.000700000000000145,-16.622857773414182
-0.0017000000000000348,-17.103859615368293
-0.0027000000000001467,-17.584861457322408
-0.0037000000000000366,-18.06586329927652
-0.0047000000000001485,-18.49027668923603
-0.005700000000000038,-18.88639585319824
-0.00670000000000015,-19.3249563561564
-0.00770000000000004,-19.721075520118614
-0.008700000000000152,-20.10304757108217
-0.009700000000000042,-20.499166735044383
-0.010700000000000154,-20.89528589900659
-0.011700000000000044,-21.248963723972853
-0.012700000000000156,-21.54605309694451
-0.013700000000000045,-21.857289582914817
-0.014700000000000157,-22.111937616890522
-0.015700000000000047,-22.42317410286083
-0.01670000000000016,-22.72026347583249
-0.01770000000000005,-22.989058622806844
-0.01870000000000016,-23.24370665678255
-0.01970000000000005,-23.51250180375691
-0.020700000000000163,-23.767149837732617
-0.021700000000000053,-24.035944984706973
-0.022700000000000164,-24.290593018682678
-0.023700000000000054,-24.559388165657033
-0.024700000000000166,-24.814036199632742
-0.025700000000000056,-25.04039000761115
-0.026700000000000168,-25.252596702590903
-0.027700000000000058,-25.43650917157336
-0.02870000000000017,-25.648715866553115
-0.02970000000000006,-25.86092256153287
-0.03070000000000017,-26.087276369511276
-0.03170000000000006,-26.29948306449103
-0.03270000000000017,-26.525836872469437
-0.03370000000000006,-26.780484906445146
-0.034700000000000175,-27.00683871442355
-0.035700000000000065,-27.219045409403304
-0.03670000000000018,-27.38881076538711
-0.03770000000000007,-27.572723234369565
-0.03870000000000018,-27.742488590353368
-0.03970000000000007,-27.912253946337174
-0.04070000000000018,-28.09616641531963
-0.04170000000000007,-28.308373110299385
-0.04270000000000018,-28.53472691827779
-0.04370000000000007,-28.746933613257543
-0.044700000000000184,-28.959140308237306
-0.045700000000000074,-29.18549411621571
-0.046700000000000186,-29.31281813320356
-0.047700000000000076,-29.482583489187363
-0.04870000000000019,-29.66649595816982
-0.04970000000000008,-29.836261314153624
-0.05070000000000019,-30.04846800913338
-0.05170000000000008,-30.274821817111786
-0.05270000000000019,-30.444587173095588
-0.05370000000000008,-30.670940981073993
-0.05470000000000019,-30.8407063370578
-0.05570000000000008,-31.052913032037555
-0.056700000000000195,-31.23682550102001
-0.057700000000000085,-31.40659085700382
-0.058700000000000196,-31.618797551983565
-0.059700000000000086,-31.802710020966025
-0.0607000000000002,-32.01491671594578
-0.06170000000000009,-32.184682071929586
-0.0627000000000002,-32.41103587990799
-0.06370000000000009,-32.58080123589179
-0.0647000000000002,-32.764713704874254
-0.06570000000000009,-32.93447906085806
-0.0667000000000002,-33.14668575583781
-0.0677000000000001,-33.373039563816214
-0.0687000000000002,-33.54280491980002
-0.0697000000000001,-33.755011614779775
-0.07070000000000021,-33.98136542275818
-0.0717000000000001,-34.193572117737936
-0.07270000000000021,-34.377484586720385
-0.0737000000000001,-34.5472499427042
-0.07470000000000021,-34.67457395969205
-0.0757000000000001,-34.90092776767045
-0.07670000000000021,-35.07069312365426
-0.0777000000000001,-35.240458479638065
-0.07870000000000021,-35.50925362661242
-0.0797000000000001,-35.721460321592176
-0.08070000000000022,-35.94781412957058
-0.0817000000000001,-36.16002082455034
-0.08270000000000022,-36.329786180534136
-0.08370000000000011,-36.5136986495166
-0.08470000000000022,-36.6834640055004
-0.08570000000000011,-36.8532293614842
-0.08670000000000022,-37.037141830466666
-0.08770000000000011,-37.206907186450465
-0.08870000000000022,-37.41911388143023
-0.08970000000000011,-37.60302635041268
-0.09070000000000022,-37.81523304539243
-0.09170000000000011,-38.04158685337084
-0.09270000000000023,-38.211352209354644
-0.09370000000000012,-38.42355890433439
-0.09470000000000023,-38.607471373316855
-0.09570000000000012,-38.777236729300654
-0.09670000000000023,-38.94700208528445
-0.09770000000000012,-39.130914554266916
-0.09870000000000023,-39.258238571254765
-0.09970000000000012,-39.42800392723857
-0.10070000000000023,-39.61191639622103
-0.10170000000000012,-39.78168175220483
-0.10270000000000024,-39.99388844718459
-0.10370000000000013,-40.177800916167044
-0.10470000000000024,-40.34756627215084
-0.10570000000000013,-40.559772967130606
-0.10670000000000024,-40.701244097117105
-0.10770000000000013,-40.87100945310091
-0.10870000000000024,-41.04077480908471
-0.10970000000000013,-41.182245939071215
-0.11070000000000024,-41.352011295055014
-0.11170000000000013,-41.52177665103883
-0.11270000000000002,-41.74813045901723
-0.11370000000000013,-41.91789581500104
-0.11470000000000002,-42.087661170984845
-0.11570000000000014,-42.31401497896325
-0.11670000000000003,-42.4413389959511
-0.11770000000000014,-42.568663012938956
-0.11870000000000003,-42.71013414292546
-0.11970000000000014,-42.87989949890926
-0.12070000000000003,-43.04966485489307
-0.12170000000000014,-43.23357732387552
-0.12270000000000003,-43.40334267985933
-0.12370000000000014,-43.57310803584313
-0.12470000000000003,-43.70043205283099
-0.12570000000000014,-43.88434452181344
-0.12670000000000003,-44.054109877797245
-0.12770000000000015,-44.181433894785094
-0.12870000000000004,-44.36534636376755
-0.12970000000000015,-44.4926703807554
-0.13070000000000004,-44.619994397743255
-0.13170000000000015,-44.80390686672572
-0.13270000000000004,-44.93123088371356
-0.13370000000000015,-45.05855490070142
-0.13470000000000004,-45.22832025668522
-0.13570000000000015,-45.36979138667173
-0.13670000000000004,-45.497115403659585
-0.13770000000000016,-45.666880759643384
-0.13870000000000005,-45.89323456762179
-0.13970000000000016,-46.02055858460964
-0.14070000000000005,-46.19032394059345
-0.14170000000000016,-46.3176479575813
-0.14270000000000005,-46.45911908756781
-0.14370000000000016,-46.544001765559706
-0.14470000000000005,-46.67132578254756
-0.14570000000000016,-46.79864979953541
-0.14670000000000005,-46.94012092952192
-0.14770000000000016,-47.10988628550572
-0.14870000000000005,-47.23721030249357
-0.14970000000000017,-47.40697565847737
-0.15070000000000006,-47.590888127459834
-0.15170000000000017,-47.71821214444768
-0.15270000000000006,-47.84553616143554
-0.15370000000000017,-47.93041883942744
-0.15470000000000006,-48.071889969413945
-0.15570000000000017,-48.156772647405845
-0.15670000000000006,-48.32653800338966
-0.15770000000000017,-48.41142068138156
-0.15870000000000006,-48.55289181136806
-0.15970000000000018,-48.72265716735186
-0.16070000000000007,-48.84998118433972
-0.16170000000000018,-49.03389365332217
-0.16270000000000007,-49.16121767031002
-0.16370000000000018,-49.28854168729788
-0.16470000000000007,-49.41586570428573
-0.16570000000000018,-49.557336834272235
-0.16670000000000007,-49.68466085126009
-0.16770000000000018,-49.76954352925199
-0.16870000000000007,-49.89686754623985
-0.16970000000000018,-50.0807800152223
-0.17070000000000007,-50.20810403221015
-0.17170000000000019,-50.335428049198
-0.17270000000000008,-50.46275206618586
-0.1737000000000002,-50.60422319617236
-0.17470000000000008,-50.73154721316022
-0.1757000000000002,-50.85887123014807
-0.17670000000000008,-50.943753908139975
-0.1777000000000002,-51.071077925127824
-0.17870000000000008,-51.21254905511432
-0.1797000000000002,-51.33987307210218
-0.18070000000000008,-51.46719708909004
-0.1817000000000002,-51.55207976708194
-0.18270000000000008,-51.69355089706845
-0.1837000000000002,-51.82087491405629
-0.1847000000000001,-51.948198931044146
-0.1857000000000002,-52.11796428702795
-0.1867000000000001,-52.25943541701445
-0.1877000000000002,-52.386759434002315
-0.1887000000000001,-52.514083450990164
-0.1897000000000002,-52.64140746797801
-0.1907000000000001,-52.78287859796452
-0.1917000000000001,-52.86776127595642
-0.19269999999999998,-52.95264395394832
-0.1937000000000001,-53.079967970936174
-0.19469999999999998,-53.22143910092268
-0.1957000000000001,-53.348763117910536
-0.19669999999999999,-53.476087134898386
-0.1977000000000001,-53.64585249088219
-0.1987,-53.82976495986464
-0.1997000000000001,-53.91464763785655
-0.2007,-54.0419716548444
-0.2017000000000001,-54.1268543328363
-0.2027,-54.2117370108282
-0.2037000000000001,-54.35320814081471
-0.2047,-54.43809081880661
-0.2057000000000001,-54.56541483579447
-0.2067,-54.73518019177827
-0.2077000000000001,-54.876651321764776
-0.2087,-55.003975338752625
-0.2097000000000001,-55.13129935574048
-0.2107,-55.25862337272834
-0.2117000000000001,-55.400094502714836
-0.2127,-55.484977180706736
-0.2137000000000001,-55.612301197694585
-0.2147,-55.6971838756865
-0.2157000000000001,-55.881096344668954
-0.2167,-56.008420361656796
-0.21770000000000012,-56.1781857176406
-0.2187,-56.30550973462846
-0.21970000000000012,-56.44698086461496
-0.2207,-56.57430488160282
-0.22170000000000012,-56.70162889859067
-0.2227,-56.82895291557852
-0.22370000000000012,-56.97042404556503
-0.2247,-57.05530672355693
-0.22570000000000012,-57.182630740544774
-0.2267,-57.30995475753264
-0.22770000000000012,-57.45142588751914
-0.22870000000000001,-57.57874990450699
-0.22970000000000013,-57.70607392149485
-0.23070000000000002,-57.87583927747865
-0.23170000000000013,-58.05975174646111
-0.23270000000000002,-58.18707576344896
-0.23370000000000013,-58.31439978043681
-0.23470000000000002,-58.45587091042332
-0.23570000000000013,-58.62563626640712
-0.23670000000000002,-58.71051894439902
-0.2376999999999999,-58.880284300382826
-0.23870000000000002,-59.06419676936528
-0.2396999999999999,-59.19152078635314
-0.24070000000000003,-59.36128614233694
-0.24169999999999991,-59.54519861131939
-0.24270000000000003,-59.7149639673032
-0.24369999999999992,-59.884729323287
-0.24470000000000003,-60.02620045327351
-0.24569999999999992,-60.19596580925731
-0.24670000000000003,-60.32328982624517
-0.24769999999999992,-60.49305518222897
-0.24870000000000003,-60.63452631221547
-0.24969999999999992,-60.80429166819927
-0.25070000000000003,-60.93161568518713
-0.2516999999999999,-61.11552815416958
-0.25270000000000004,-61.242852171157445
-0.2536999999999999,-61.412617527141244
-0.25470000000000004,-61.5965299961237
-0.2556999999999999,-61.7662953521075
-0.25670000000000004,-61.936060708091304
-0.25769999999999993,-62.16241451606972
-0.25870000000000004,-62.33217987205352
-0.25969999999999993,-62.501945228037314
-0.26070000000000004,-62.72829903601572
-0.26169999999999993,-62.855623053003576
-0.26270000000000004,-63.02538840898739
-0.26369999999999993,-63.20930087796983
-0.26470000000000005,-63.37906623395363
-0.26569999999999994,-63.633714267929356
-0.26670000000000005,-63.902509414903705
-0.26769999999999994,-64.11471610988345
-0.26870000000000005,-64.34106991786187
-0.26969999999999994,-64.55327661284163
-0.27070000000000005,-64.72304196882543
-0.27169999999999994,-64.90695443780788
-0.27270000000000005,-65.0767197937917
-0.27369999999999994,-65.2464851497755
-0.27470000000000006,-65.43039761875795
-0.27569999999999995,-65.68504565273366
-0.27670000000000006,-65.91139946071206
-0.27769999999999995,-66.16604749468777
-0.27870000000000006,-66.43484264166212
-0.27969999999999995,-66.64704933664189
-0.28070000000000006,-66.87340314462028
-0.28169999999999995,-67.08560983960004
-0.28270000000000006,-67.2978165345798
-0.28369999999999995,-67.52417034255821
-0.28470000000000006,-67.73637703753796
-0.28569999999999995,-68.0051721845123
-0.28670000000000007,-68.21737887949207
-0.28769999999999996,-68.48617402646643
-0.28870000000000007,-68.69838072144618
-0.28969999999999996,-68.96717586842054
-0.29070000000000007,-69.22182390239624
-0.29169999999999996,-69.4906190493706
-0.29270000000000007,-69.74526708334632
-0.29369999999999996,-70.05650356931662
-0.2947000000000001,-70.35359294228827
-0.29569999999999996,-70.57994675026669
-0.2967000000000001,-70.79215344524643
-0.29769999999999996,-71.06094859222078
-0.2987000000000001,-71.27315528720055
-0.29969999999999997,-71.48536198218031
-0.3007000000000001,-71.75415712915466
-0.30169999999999997,-72.05124650212633
-0.3027000000000001,-72.32004164910067
-0.30369999999999997,-72.63127813507097
-0.3047000000000001,-72.92836750804264
-0.30569999999999997,-73.15472131602105
-0.3067000000000001,-73.40936934999675
-0.3077,-73.62157604497652
-0.3087000000000001,-73.8479298529549
-0.3097,-74.10257788693062
-0.3107000000000001,-74.41381437290093
-0.3117,-74.66846240687663
-0.3127000000000001,-74.97969889284694
-0.3137,-75.29093537881725
-0.3147000000000001,-75.54558341279296
-0.3157,-75.85681989876326
-0.3167000000000001,-76.15390927173492
-0.3177,-76.38026307971333
-0.3187000000000001,-76.63491111368903
-0.3197,-76.94614759965934
-0.3207000000000001,-77.20079563363505
-0.3217,-77.51203211960537
-0.3227000000000001,-77.86570994457162
-0.3237,-78.16279931754329
-0.3247000000000001,-78.51647714250953
-0.3257,-78.85600785447714
-0.3267000000000001,-79.16724434044745
-0.3277,-79.47848082641775
-0.3287000000000001,-79.81801153838538
-0.3297,-80.12924802435568
-0.3307000000000001,-80.42633739732734
-0.3317,-80.73757388329766
-0.3327000000000001,-81.04881036926795
-0.3337,-81.3458997422396
-0.3347000000000001,-81.69957756720586
-0.3357,-82.03910827917348
-0.3367000000000001,-82.35034476514379
-0.3377,-82.70402259011003
-0.3387000000000001,-83.04355330207765
-0.3397,-83.39723112704392
-0.3407000000000001,-83.70846761301424
-0.3417,-84.04799832498183
-0.3427000000000001,-84.31679347195619
-0.3437,-84.6563241839238
-0.3447000000000001,-84.96756066989411
-0.3457,-85.32123849486035
-0.3467000000000001,-85.66076920682796
-0.3477,-86.05688837079018
-0.3487000000000001,-86.45300753475239
-0.3497,-86.80668535971866
-0.3507000000000001,-87.18865741068221
-0.3517,-87.54233523564847
-0.3527000000000001,-87.89601306061473
-0.3537,-88.23554377258235
-0.3547000000000001,-88.54678025855264
-0.3557,-88.9004580835189
-0.35670000000000013,-89.28243013448247
-0.3577,-89.63610795944872
-0.35870000000000013,-89.98978578441499
-0.3597,-90.37175783537855
-0.36070000000000013,-90.76787699934074
-0.3617,-91.12155482430701
-0.3626999999999999,-91.51767398826922
-0.3637,-91.89964603923279
-0.3646999999999999,-92.33820654219093
-0.3657,-92.73432570615316
-0.3666999999999999,-93.17288620911131
-0.3677,-93.55485826007487
-0.3686999999999999,-93.99341876303303
-0.36970000000000003,-94.4319792659912
-0.3706999999999999,-94.8280984299534
-0.37170000000000003,-95.26665893291157
-0.3726999999999999,-95.74766077486568
-0.37370000000000003,-96.21451550382113
-0.3746999999999999,-96.73795868477121
-0.37570000000000003,-97.17651918772938
-0.3766999999999999,-97.6575210296835
-0.37770000000000004,-98.13852287163759
-0.3786999999999999,-98.5346420355998
-0.37970000000000004,-98.93076119956201
-0.3806999999999999,-99.41176304151614
-0.38170000000000004,-99.7937350924797
-0.38269999999999993,-100.2747369344338
-0.38370000000000004,-100.79818011538387
-0.38469999999999993,-101.27918195733798
-0.38570000000000004,-101.80262513828804
-0.38669999999999993,-101.19429927934607
-0.38570000000000004,-98.74684873057957
-0.38469999999999993,-96.5681933287874
-0.38370000000000004,-94.55930328297906
-0.38269999999999993,-92.6918843671572
-0.38170000000000004,-90.93764235532454
-0.3806999999999999,-89.28243013448247
-0.37970000000000004,-87.75454193062824
-0.3786999999999999,-86.28324217876859
-0.37770000000000004,-84.84023665290624
-0.3766999999999999,-83.48211380503581
-0.37570000000000003,-82.18057940915998
-0.3746999999999999,-80.86489790028548
-0.37370000000000003,-79.56336350440966
-0.3726999999999999,-78.29012333453113
-0.37170000000000003,-77.0734716166472
-0.3706999999999999,-75.8992612377592
-0.36970000000000003,-74.76749219786718
-0.3686999999999999,-73.62157604497652
-0.3677,-72.53224834408043
-0.3666999999999999,-71.44292064318435
-0.3657,-70.39603428128423
-0.3646999999999999,-69.3491479193841
-0.3637,-68.30226155748396
-0.3626999999999999,-67.25537519558385
-0.3617,-66.25093017267966
-0.36070000000000013,-65.2464851497755
-0.3597,-64.25618723986996
-0.35870000000000013,-63.29418355596174
-0.3577,-62.37462121104946
-0.35670000000000013,-61.455058866137186
-0.3557,-60.49305518222897
-0.3547000000000001,-59.6300812893113
-0.3537,-58.71051894439902
-0.3527000000000001,-57.8333979384827
-0.3517,-56.927982706569075
-0.3507000000000001,-56.05086170065276
-0.3497,-55.21618203373238
-0.3487000000000001,-54.35320814081471
-0.3477,-53.518528473894335
-0.3467000000000001,-52.69799591997262
-0.3457,-51.86331625305225
-0.3447000000000001,-51.028636586131874
-0.3437,-50.20810403221015
-0.3427000000000001,-49.41586570428573
-0.3417,-48.63777448935996
-0.3407000000000001,-47.84553616143554
-0.3397,-47.10988628550572
-0.3387000000000001,-46.3176479575813
-0.3377,-45.53955674265553
-0.3367000000000001,-44.80390686672572
-0.3357,-44.011668538801295
-0.3347000000000001,-43.27601866287147
-0.3337,-42.526221673943
-0.3327000000000001,-41.83301313700913
-0.3317,-41.139804600075266
-0.3307000000000001,-40.4748902891387
-0.3297,-39.78168175220483
-0.3287000000000001,-39.08847321527096
-0.3277,-38.38111756533845
-0.3267000000000001,-37.687909028404576
-0.3257,-36.99470049147071
-0.3247000000000001,-36.28734484153819
-0.3237,-35.594136304604326
-0.3227000000000001,-34.98581044566235
-0.3217,-34.33504324772444
-0.3207000000000001,-33.670128936787876
-0.3197,-33.01936173884996
-0.3187000000000001,-32.368594540912035
-0.3177,-31.76026868197007
-0.3167000000000001,-31.095354371033505
-0.3157,-30.487028512091538
-0.3147000000000001,-29.878702653149578
-0.3137,-29.22793545521166
-0.3127000000000001,-28.619609596269694
-0.3117,-28.05372507632368
-0.3107000000000001,-27.43125210438306
-0.3097,-26.86536758443705
-0.3087000000000001,-26.29948306449103
-0.3077,-25.73359854454502
-0.3067000000000001,-25.167714024599
-0.30569999999999997,-24.601829504652986
-0.3047000000000001,-24.035944984706973
-0.30369999999999997,-23.47006046476096
-0.3027000000000001,-22.904175944814945
-0.30169999999999997,-22.33829142486893
-0.3007000000000001,-21.814848243918867
-0.29969999999999997,-21.248963723972853
-0.2987000000000001,-20.72552054302279
-0.29769999999999996,-20.202077362072725
-0.2967000000000001,-19.721075520118614
-0.29569999999999996,-19.197632339168546
-0.2947000000000001,-18.674189158218486
-0.29369999999999996,-18.19318731626437
-0.29270000000000007,-17.669744135314307
-0.29169999999999996,-17.146300954364243
-0.29070000000000007,-16.70774045140608
-0.28969999999999996,-16.184297270456018
-0.28870000000000007,-15.70329542850191
-0.28769999999999996,-15.222293586547794
-0.28670000000000007,-14.741291744593681
-0.28569999999999995,-14.30273124163552
-0.28470000000000006,-13.872659006476551
-0.28369999999999995,-13.3930718758223
-0.28270000000000006,-12.99978213445982
-0.28169999999999995,-12.520195003805576
-0.28070000000000006,-12.084463923447142
-0.27969999999999995,-11.604876792792895
-0.27870000000000006,-11.1677310011346
-0.27769999999999995,-10.731999920776168
-0.27670000000000006,-10.296268840417738
-0.27569999999999995,-9.902979099055257
-0.27470000000000006,-9.467248018696827
-0.27369999999999994,-9.073958277334345
-0.27270000000000005,-8.68208324727173
-0.27169999999999994,-8.288793505909249
-0.27070000000000005,-7.896918475846635
-0.26969999999999994,-7.50504344578402
-0.26870000000000005,-7.111753704421539
-0.26769999999999994,-6.719878674358924
-0.26670000000000005,-6.282732882700628
-0.26569999999999994,-5.9347139029338285
-0.26470000000000005,-5.5414241615713475
-0.26369999999999993,-5.191990470504685
