Potential V vs RHE, Current mA cm-2
0.013299999999999867,-4.406825699079589
0.012299999999999978,-5.80314575204638
0.011299999999999866,-7.067897654125724
0.010299999999999976,-8.246352166913299
0.009299999999999864,-9.293238528813426
0.008299999999999974,-10.296268840417738
0.007299999999999862,-11.255443101726232
0.006299999999999972,-12.170761312738911
0.00529999999999986,-13.043638184755638
0.0042999999999999705,-13.872659006476551
0.0032999999999998586,-14.57152638860988
0.0022999999999999687,-15.307176264539699
0.0012999999999998568,-16.056973253468165
0.00029999999999996696,-16.665299112410132
-0.000700000000000145,-17.2736249713521
-0.0017000000000000348,-17.839509491298113
-0.0027000000000001467,-18.362952672248177
-0.0037000000000000366,-18.88639585319824
-0.0047000000000001485,-19.409839034148305
-0.005700000000000038,-19.890840876102416
-0.00670000000000015,-20.371842718056527
-0.00770000000000004,-20.810403221014692
-0.008700000000000152,-21.291405062968803
-0.009700000000000042,-21.729965565926964
-0.010700000000000154,-22.111937616890522
-0.011700000000000044,-22.550498119848687
-0.012700000000000156,-22.904175944814945
-0.013700000000000045,-23.24370665678255
-0.014700000000000157,-23.597384481748815
-0.015700000000000047,-23.951062306715073
-0.01670000000000016,-24.24815167968673
-0.01770000000000005,-24.559388165657033
-0.01870000000000016,-24.870624651627345
-0.01970000000000005,-25.167714024599
-0.020700000000000163,-25.478950510569312
-0.021700000000000053,-25.73359854454502
-0.022700000000000164,-26.044835030515326
-0.023700000000000054,-26.34192440348698
-0.024700000000000166,-26.61071955046134
-0.025700000000000056,-26.86536758443705
-0.026700000000000168,-27.134162731411404
-0.027700000000000058,-27.34636942639116
-0.02870000000000017,-27.572723234369565
-0.02970000000000006,-27.827371268345274
-0.03070000000000017,-28.05372507632368
-0.03170000000000006,-28.308373110299385
-0.03270000000000017,-28.53472691827779
-0.03370000000000006,-28.746933613257543
-0.034700000000000175,-29.001581647233255
-0.035700000000000065,-29.22793545521166
-0.03670000000000018,-29.482583489187363
-0.03770000000000007,-29.708937297165768
-0.03870000000000018,-29.921143992145527
-0.03970000000000007,-30.147497800123933
-0.04070000000000018,-30.359704495103685
-0.04170000000000007,-30.571911190083444
-0.04270000000000018,-30.7558236590659
-0.04370000000000007,-30.968030354045652
-0.044700000000000184,-31.137795710029454
-0.045700000000000074,-31.36414951800786
-0.046700000000000186,-31.57635621298762
-0.047700000000000076,-31.802710020966025
-0.04870000000000019,-32.01491671594578
-0.04970000000000008,-32.24127052392419
-0.05070000000000019,-32.45347721890394
-0.05170000000000008,-32.66568391388369
-0.05270000000000019,-32.892037721862096
-0.05370000000000008,-33.10424441684186
-0.05470000000000019,-33.288156885824314
-0.05570000000000008,-33.50036358080407
-0.056700000000000195,-33.670128936787876
-0.057700000000000085,-33.89648274476628
-0.058700000000000196,-34.10868943974604
-0.059700000000000086,-34.278454795729836
-0.0607000000000002,-34.50480860370825
-0.06170000000000009,-34.717015298688004
-0.0627000000000002,-34.98581044566235
-0.06370000000000009,-35.198017140642115
-0.0647000000000002,-35.42437094862052
-0.06570000000000009,-35.636577643600276
-0.0667000000000002,-35.848784338580025
-0.0677000000000001,-36.03269680756248
-0.0687000000000002,-36.244903502542236
-0.0697000000000001,-36.4288159715247
-0.07070000000000021,-36.5985813275085
-0.0717000000000001,-36.768346683492304
-0.07270000000000021,-36.99470049147071
-0.0737000000000001,-37.206907186450465
-0.07470000000000021,-37.41911388143023
-0.0757000000000001,-37.645467689408626
-0.07670000000000021,-37.90011572338433
-0.0777000000000001,-38.12646953136274
-0.07870000000000021,-38.33867622634249
-0.0797000000000001,-38.5650300343209
-0.08070000000000022,-38.734795390304704
-0.0817000000000001,-38.90456074628851
-0.08270000000000022,-39.130914554266916
-0.08370000000000011,-39.30067991025072
-0.08470000000000022,-39.47044526623452
-0.08570000000000011,-39.654357735216976
-0.08670000000000022,-39.90900576919269
-0.08770000000000011,-40.135359577171094
-0.08870000000000022,-40.34756627215084
-0.08970000000000011,-40.616361419125205
-0.09070000000000022,-40.828568114104954
-0.09170000000000011,-40.99833347008877
-0.09270000000000023,-41.22468727806717
-0.09370000000000012,-41.39445263405098
-0.09470000000000023,-41.606659329030734
-0.09570000000000012,-41.79057179801318
-0.09670000000000023,-41.96033715399699
-0.09770000000000012,-42.186690961975394
-0.09870000000000023,-42.39889765695515
-0.09970000000000012,-42.6111043519349
-0.10070000000000023,-42.837458159913304
-0.10170000000000012,-43.04966485489307
-0.10270000000000024,-43.23357732387552
-0.10370000000000013,-43.44578401885527
-0.10470000000000024,-43.657990713835034
-0.10570000000000013,-43.84190318281749
-0.10670000000000024,-44.011668538801295
-0.10770000000000013,-44.223875233781044
-0.10870000000000024,-44.4077877027635
-0.10970000000000013,-44.577553058747306
-0.11070000000000024,-44.74731841473111
-0.11170000000000013,-44.97367222270952
-0.11270000000000002,-45.143437578693316
-0.11370000000000013,-45.36979138667173
-0.11470000000000002,-45.53955674265553
-0.11570000000000014,-45.75176343763528
-0.11670000000000003,-45.93567590661774
-0.11770000000000014,-46.147882601597495
-0.11870000000000003,-46.37423640957591
-0.11970000000000014,-46.544001765559706
-0.12070000000000003,-46.713767121543505
-0.12170000000000014,-46.94012092952192
-0.12270000000000003,-47.10988628550572
-0.12370000000000014,-47.23721030249357
-0.12470000000000003,-47.40697565847737
-0.12570000000000014,-47.590888127459834
-0.12670000000000003,-47.76065348344364
-0.12770000000000015,-47.93041883942744
-0.12870000000000004,-48.156772647405845
-0.12970000000000015,-48.36897934238561
-0.13070000000000004,-48.55289181136806
-0.13170000000000015,-48.76509850634781
-0.13270000000000004,-48.89242252333566
-0.13370000000000015,-49.118776331314066
-0.13470000000000004,-49.24610034830193
-0.13570000000000015,-49.373424365289786
-0.13670000000000004,-49.50074838227763
-0.13770000000000016,-49.68466085126009
-0.13870000000000005,-49.81198486824794
-0.13970000000000016,-50.024191563227696
-0.14070000000000005,-50.20810403221015
-0.14170000000000016,-50.42031072718991
-0.14270000000000005,-50.64666453516831
-0.14370000000000016,-50.81642989115212
-0.14470000000000005,-50.98619524713592
-0.14570000000000016,-51.17010771611838
-0.14670000000000005,-51.29743173310623
-0.14770000000000016,-51.424755750094086
-0.14870000000000005,-51.594521106077885
-0.14970000000000017,-51.73599223606439
-0.15070000000000006,-51.90575759204819
-0.15170000000000017,-52.075522948032
-0.15270000000000006,-52.25943541701445
-0.15370000000000017,-52.42920077299826
-0.15470000000000006,-52.64140746797801
-0.15570000000000017,-52.82531993696047
-0.15670000000000006,-52.95264395394832
-0.15770000000000017,-53.12240930993213
-0.15870000000000006,-53.30632177891458
-0.15970000000000018,-53.433645795902436
-0.16070000000000007,-53.56096981289029
-0.16170000000000018,-53.74488228187274
-0.16270000000000007,-53.872206298860604
-0.16370000000000018,-53.999530315848446
-0.16470000000000007,-54.1268543328363
-0.16570000000000018,-54.31076680181876
-0.16670000000000007,-54.43809081880661
-0.16770000000000018,-54.60785617479041
-0.16870000000000007,-54.73518019177827
-0.16970000000000018,-54.961533999756675
-0.17070000000000007,-55.088858016744524
-0.17170000000000019,-55.25862337272834
-0.17270000000000008,-55.442535841710786
-0.1737000000000002,-55.527418519702685
-0.17470000000000008,-55.6971838756865
-0.1757000000000002,-55.838655005673
-0.17670000000000008,-55.96597902266086
-0.1777000000000002,-56.093303039648696
-0.17870000000000008,-56.1781857176406
-0.1797000000000002,-56.36209818662306
-0.18070000000000008,-56.489422203610914
-0.1817000000000002,-56.65918755959472
-0.18270000000000008,-56.786511576582576
-0.1837000000000002,-56.97042404556503
-0.1847000000000001,-57.14018940154883
-0.1857000000000002,-57.26751341853669
-0.1867000000000001,-57.408984548523186
-0.1877000000000002,-57.57874990450699
-0.1887000000000001,-57.70607392149485
-0.1897000000000002,-57.8333979384827
-0.1907000000000001,-57.974869068469204
-0.1917000000000001,-58.10219308545706
-0.19269999999999998,-58.22951710244491
-0.1937000000000001,-58.35684111943277
-0.19469999999999998,-58.54075358841522
-0.1957000000000001,-58.71051894439902
-0.19669999999999999,-58.880284300382826
-0.1977000000000001,-59.02175543036933
-0.1987,-59.19152078635314
-0.1997000000000001,-59.31884480334099
-0.2007,-59.403727481332886
-0.2017000000000001,-59.587639950315335
-0.2027,-59.7149639673032
-0.2037000000000001,-59.842287984291055
-0.2047,-60.02620045327351
-0.2057000000000001,-60.15352447026136
-0.2067,-60.32328982624517
-0.2077000000000001,-60.45061384323302
-0.2087,-60.63452631221547
-0.2097000000000001,-60.761850329203334
-0.2107,-60.889174346191176
-0.2117000000000001,-61.01649836317903
-0.2127,-61.15796949316553
-0.2137000000000001,-61.242852171157445
-0.2147,-61.37017618814529
-0.2157000000000001,-61.53994154412909
-0.2167,-61.72385401311155
-0.21770000000000012,-61.80873669110345
-0.2187,-61.936060708091304
-0.21970000000000012,-62.11997317707376
-0.2207,-62.24729719406162
-0.22170000000000012,-62.41706255004542
-0.2227,-62.544386567033264
-0.22370000000000012,-62.72829903601572
-0.2247,-62.89806439199953
-0.22570000000000012,-63.02538840898739
-0.2267,-63.15271242597524
-0.22770000000000012,-63.3366248949577
-0.22870000000000001,-63.46394891194555
-0.22970000000000013,-63.59127292893339
-0.23070000000000002,-63.77518539791585
-0.23170000000000013,-63.902509414903705
-0.23270000000000002,-64.02983343189156
-0.23370000000000013,-64.15715744887942
-0.23470000000000002,-64.29862857886593
-0.23570000000000013,-64.46839393484973
-0.23670000000000002,-64.63815929083353
-0.2376999999999999,-64.82207175981598
-0.23870000000000002,-64.99183711579978
-0.2396999999999999,-65.11916113278764
-0.24070000000000003,-65.34551494076604
-0.24169999999999991,-65.4728389577539
-0.24270000000000003,-65.60016297474175
-0.24369999999999992,-65.7274869917296
-0.24470000000000003,-65.91139946071206
-0.24569999999999992,-66.03872347769992
-0.24670000000000003,-66.20848883368372
-0.24769999999999992,-66.39240130266617
-0.24870000000000003,-66.60460799764593
-0.24969999999999992,-66.77437335362974
-0.25070000000000003,-67.00072716160814
-0.2516999999999999,-67.21293385658788
-0.25270000000000004,-67.39684632557035
-0.2536999999999999,-67.52417034255821
-0.25470000000000004,-67.693935698542
-0.2556999999999999,-67.82125971552985
-0.25670000000000004,-67.96273084551636
-0.25769999999999993,-68.13249620150016
-0.25870000000000004,-68.30226155748396
-0.25969999999999993,-68.52861536546239
-0.26070000000000004,-68.74082206044213
-0.26169999999999993,-68.96717586842054
-0.26270000000000004,-69.1793825634003
-0.26369999999999993,-69.39158925838004
-0.26470000000000005,-69.57550172736251
-0.26569999999999994,-69.74526708334632
-0.26670000000000005,-69.91503243933012
-0.26769999999999994,-70.09894490831257
-0.26870000000000005,-70.26871026429637
-0.26969999999999994,-70.48091695927613
-0.27070000000000005,-70.66482942825859
-0.27169999999999994,-70.87703612323833
-0.27270000000000005,-71.10338993121674
-0.27369999999999994,-71.35803796519245
-0.27470000000000006,-71.52780332117625
-0.27569999999999995,-71.75415712915466
-0.27670000000000006,-71.96636382413442
-0.27769999999999995,-72.19271763211282
-0.27870000000000006,-72.40492432709259
-0.27969999999999995,-72.63127813507097
-0.28070000000000006,-72.8859261690467
-0.28169999999999995,-73.09813286402644
-0.28270000000000006,-73.32448667200485
-0.28369999999999995,-73.53669336698461
-0.28470000000000006,-73.80548851395896
-0.28569999999999995,-74.0176952089387
-0.28670000000000007,-74.24404901691713
-0.28769999999999996,-74.45625571189689
-0.28870000000000007,-74.66846240687663
-0.28969999999999996,-74.93725755385098
-0.29070000000000007,-75.19190558782671
-0.29169999999999996,-75.46070073480107
-0.29270000000000007,-75.6729074297808
-0.29369999999999996,-75.94170257675518
-0.2947000000000001,-76.19635061073087
-0.29569999999999996,-76.46514575770523
-0.2967000000000001,-76.67735245268499
-0.29769999999999996,-76.94614759965934
-0.2987000000000001,-77.1583542946391
-0.29969999999999997,-77.42714944161345
-0.3007000000000001,-77.68179747558916
-0.30169999999999997,-77.95059262256353
-0.3027000000000001,-78.24768199553519
-0.30369999999999997,-78.51647714250953
-0.3047000000000001,-78.85600785447714
-0.30569999999999997,-79.1248030014515
-0.3067000000000001,-79.37945103542721
-0.3077,-79.69068752139752
-0.3087000000000001,-79.94533555537322
-0.3097,-80.21413070234757
-0.3107000000000001,-80.52536718831789
-0.3117,-80.7800152222936
-0.3127000000000001,-81.09125170826391
-0.3137,-81.38834108123557
-0.3147000000000001,-81.74201890620182
-0.3157,-82.09569673116808
-0.3167000000000001,-82.43522744313569
-0.3177,-82.746463929106
-0.3187000000000001,-83.04355330207765
-0.3197,-83.35478978804795
-0.3207000000000001,-83.70846761301424
-0.3217,-84.00555698598588
-0.3227000000000001,-84.31679347195619
-0.3237,-84.57144150593189
-0.3247000000000001,-84.92511933089816
-0.3257,-85.27879715586442
-0.3267000000000001,-85.57588652883607
-0.3277,-85.92956435380233
-0.3287000000000001,-86.28324217876859
-0.3297,-86.5378902127443
-0.3307000000000001,-86.84912669871461
-0.3317,-87.14621607168625
-0.3327000000000001,-87.41501121866061
-0.3337,-87.66965925263632
-0.3347000000000001,-87.98089573860662
-0.3357,-88.32042645057423
-0.3367000000000001,-88.63166293654454
-0.3377,-88.9853407615108
-0.3387000000000001,-89.36731281247435
-0.3397,-89.67854929844468
-0.3407000000000001,-90.03222712341093
-0.3417,-90.32931649638259
-0.3427000000000001,-90.68299432134886
-0.3437,-90.99423080731917
-0.3447000000000001,-91.29132018029082
-0.3457,-91.68743934425302
-0.3467000000000001,-91.98452871722468
-0.3477,-92.33820654219093
-0.3487000000000001,-92.73432570615316
-0.3497,-93.13044487011537
-0.3507000000000001,-93.51241692107894
-0.3517,-93.86609474604518
-0.3527000000000001,-94.21977257101145
-0.3537,-94.601744621975
-0.3547000000000001,-94.91298110794531
-0.3557,-95.30910027190752
-0.35670000000000013,-95.69107232287108
-0.3577,-96.0871914868333
-0.35870000000000013,-96.4833106507955
-0.3597,-96.92187115375367
-0.36070000000000013,-97.36043165671182
-0.3617,-97.69996236867944
-0.3626999999999999,-98.05364019364569
-0.3637,-98.4497593576079
-0.3646999999999999,-98.74684873057957
-0.3657,-99.10052655554581
-0.3666999999999999,-99.45420438051207
-0.3677,-99.83617643147564
-0.3686999999999999,-100.2747369344338
-0.36970000000000003,-100.71329743739196
-0.3706999999999999,-101.23674061834203
-0.37170000000000003,-101.6753011213002
-0.3726999999999999,-102.11386162425833
-0.37370000000000003,-102.4958336752219
-0.3746999999999999,-102.93439417818009
-0.37570000000000003,-103.28807200314633
-0.3766999999999999,-103.68419116710854
-0.37770000000000004,-104.06616321807209
-0.3786999999999999,-104.46228238203432
-0.37970000000000004,-104.90084288499246
-0.3806999999999999,-105.38184472694657
-0.38170000000000004,-105.90528790789664
-0.38269999999999993,-106.38628974985076
-0.38370000000000004,-106.82485025280893
-0.38469999999999993,-107.30585209476303
-0.38570000000000004,-107.73026548472255
-0.38669999999999993,-107.12193962578058
-0.38570000000000004,-104.64619485101677
-0.38469999999999993,-102.45339233622596
-0.38370000000000004,-100.40206095142165
-0.38269999999999993,-98.4497593576079
-0.38170000000000004,-96.69551734577524
-0.3806999999999999,-94.99786378593721
-0.37970000000000004,-93.34265156509512
-0.3786999999999999,-91.77232202224494
-0.37770000000000004,-90.20199247939475
-0.3766999999999999,-88.71654561453644
-0.37570000000000003,-87.23109874967815
-0.3746999999999999,-85.80224033681448
-0.37370000000000003,-84.48655882793999
-0.3726999999999999,-83.14258309306821
-0.37170000000000003,-81.86934292318966
-0.3706999999999999,-80.61024986630979
-0.36970000000000003,-79.33700969643127
-0.3686999999999999,-78.07791663955136
-0.3677,-76.9037062606634
-0.3666999999999999,-75.6729074297808
-0.3657,-74.54113838988879
-0.3646999999999999,-73.40936934999675
-0.3637,-72.27760031010472
-0.3626999999999999,-71.2307139482046
-0.3617,-70.18382758630447
-0.36070000000000013,-69.13694122440434
-0.3597,-68.0900548625042
-0.35870000000000013,-67.00072716160814
-0.3577,-65.99628213870396
-0.35670000000000013,-64.90695443780788
-0.3557,-63.902509414903705
-0.3547000000000001,-62.89806439199953
-0.3537,-61.89361936909536
-0.3527000000000001,-60.93161568518713
-0.3517,-59.9696120012789
-0.3507000000000001,-59.06419676936528
-0.3497,-58.14463442445301
-0.3487000000000001,-57.26751341853669
-0.3477,-56.36209818662306
-0.3467000000000001,-55.484977180706736
-0.3457,-54.56541483579447
-0.3447000000000001,-53.68829382987814
-0.3437,-52.82531993696047
-0.3427000000000001,-51.90575759204819
-0.3417,-51.071077925127824
-0.3407000000000001,-50.20810403221015
-0.3397,-49.373424365289786
-0.3387000000000001,-48.55289181136806
-0.3377,-47.71821214444768
-0.3367000000000001,-46.94012092952192
-0.3357,-46.10544126260155
-0.3347000000000001,-45.32735004767578
-0.3337,-44.535111719751356
-0.3327000000000001,-43.75702050482558
-0.3317,-42.96478217690117
-0.3307000000000001,-42.186690961975394
-0.3297,-41.39445263405098
-0.3287000000000001,-40.65880275812115
-0.3277,-39.90900576919269
-0.3267000000000001,-39.173355893262865
-0.3257,-38.46600024333035
-0.3247000000000001,-37.73035036740053
-0.3237,-37.037141830466666
-0.3227000000000001,-36.37222751953009
-0.3217,-35.636577643600276
-0.3207000000000001,-34.98581044566235
-0.3197,-34.278454795729836
-0.3187000000000001,-33.54280491980002
-0.3177,-32.84959638286615
-0.3167000000000001,-32.184682071929586
-0.3157,-31.49147353499572
-0.3147000000000001,-30.8407063370578
-0.3137,-30.189939139119886
-0.3127000000000001,-29.581613280177915
-0.3117,-28.91669896924135
-0.3107000000000001,-28.308373110299385
-0.3097,-27.700047251357418
-0.3087000000000001,-27.091721392415455
-0.3077,-26.483395533473487
-0.3067000000000001,-25.86092256153287
-0.30569999999999997,-25.210155363594954
-0.3047000000000001,-24.64427084364894
-0.30369999999999997,-24.035944984706973
-0.3027000000000001,-23.427619125765005
-0.30169999999999997,-22.819293266823045
-0.3007000000000001,-22.253408746877028
-0.29969999999999997,-21.729965565926964
-0.2987000000000001,-21.107492593986347
-0.29769999999999996,-20.584049413036283
-0.2967000000000001,-20.01816489309027
-0.29569999999999996,-19.49472171214021
-0.2947000000000001,-18.97127853119014
-0.29369999999999996,-18.40539401124413
-0.29270000000000007,-17.881950830294063
-0.29169999999999996,-17.358507649344002
-0.29070000000000007,-16.877505807389888
-0.28969999999999996,-16.311621287443874
-0.28870000000000007,-15.78817810649381
-0.28769999999999996,-15.307176264539699
-0.28670000000000007,-14.783733083589633
-0.28569999999999995,-14.30273124163552
-0.28470000000000006,-13.828802956180734
-0.28369999999999995,-13.349215825526485
-0.28270000000000006,-12.913484745168056
-0.28169999999999995,-12.432482903213943
-0.28070000000000006,-11.996751822855511
-0.27969999999999995,-11.473308641905447
-0.27870000000000006,-10.993721511251199
-0.27769999999999995,-10.557990430892769
-0.27670000000000006,-10.078403300238522
-0.27569999999999995,-9.641257508580225
-0.27470000000000006,-9.205526428221793
-0.27369999999999994,-8.769795347863363
-0.27270000000000005,-8.332649556205066
-0.27169999999999994,-7.940774526142452
-0.27070000000000005,-7.50504344578402
-0.26969999999999994,-7.155609754717355
-0.26870000000000005,-6.719878674358924
-0.26769999999999994,-6.326588932996443
-0.26670000000000005,-5.890857852638012
-0.26569999999999994,-5.497568111275533
-0.26470000000000005,-5.0618370309171015
