Potential V vs RHE, Current mA cm-2
0.013299999999999867,6.468060062982947
0.012299999999999978,5.166525667107114
0.011299999999999866,4.1564217990034775
0.010299999999999976,3.3019361738849957
0.009299999999999864,2.5266743815589554
0.008299999999999974,1.8999572757187444
0.007299999999999862,1.3565666654405837
0.006299999999999972,0.8386408585599938
0.00529999999999986,0.3511313446265021
0.0042999999999999705,-0.10144894731332177
0.0032999999999998586,-0.5068910587416426
0.0022999999999999687,-0.8847604469355939
0.0012999999999998568,-1.2605077681797476
0.00029999999999996696,-1.6240885722450622
-0.000700000000000145,-1.9607898616129409
-0.0017000000000000348,-2.2592939458844636
-0.0027000000000001467,-2.5379920719578757
-0.0037000000000000366,-2.836496156229398
-0.0047000000000001485,-3.1392443744005165
-0.005700000000000038,-3.4165277891740633
-0.00670000000000015,-3.6457110197521994
-0.00770000000000004,-3.855088292132225
-0.008700000000000152,-4.102662769608606
-0.009700000000000042,-4.364384360083638
-0.010700000000000154,-4.599226435861234
-0.011700000000000044,-4.800115440442069
-0.012700000000000156,-4.995345599823445
-0.013700000000000045,-5.2188699852021205
-0.014700000000000157,-5.457956194879311
-0.015700000000000047,-5.640453952561901
-0.01670000000000016,-5.807389885945976
-0.01770000000000005,-5.968666974130589
-0.01870000000000016,-6.141261752714124
-0.01970000000000005,-6.349224313794284
-0.020700000000000163,-6.533136782776739
-0.021700000000000053,-6.6689490675637835
-0.022700000000000164,-6.835885000947857
-0.023700000000000054,-7.035359294228828
-0.024700000000000166,-7.2390777214093935
-0.025700000000000056,-7.403184232193737
-0.026700000000000168,-7.53899651698078
-0.027700000000000058,-7.66490582266877
-0.02870000000000017,-7.812035797854732
-0.02970000000000006,-7.9747275973392115
-0.03070000000000017,-8.134589974223962
-0.03170000000000006,-8.273231681610733
-0.03270000000000017,-8.40904396639778
-0.03370000000000006,-8.559003364183472
-0.034700000000000175,-8.730183431467141
-0.035700000000000065,-8.8815575405527
-0.03670000000000018,-9.004637423640958
-0.03770000000000007,-9.119229038930026
-0.03870000000000018,-9.256456035016935
-0.03970000000000007,-9.399341876303303
-0.04070000000000018,-9.553545407988592
-0.04170000000000007,-9.683698847576176
-0.04270000000000018,-9.803949308064706
-0.04370000000000007,-9.949664571950803
-0.044700000000000184,-10.085476856737847
-0.045700000000000074,-10.232606831923809
-0.046700000000000186,-10.318904221215577
-0.047700000000000076,-10.447642949503296
-0.04870000000000019,-10.678240891381297
-0.04970000000000008,-10.832444423066585
-0.05070000000000019,-10.870641628162943
-0.05170000000000008,-10.925815368857677
-0.05270000000000019,-11.048895251945936
-0.05370000000000008,-11.245540122627176
-0.05470000000000019,-11.43794085940882
-0.05570000000000008,-11.566679587696541
-0.056700000000000195,-11.630341596190465
-0.057700000000000085,-11.75200676797886
-0.058700000000000196,-11.876501362366984
-0.059700000000000086,-12.029290182752407
-0.0607000000000002,-12.132564107642555
-0.06170000000000009,-12.252814568131082
-0.0627000000000002,-12.353259070421501
-0.06370000000000009,-12.489071355208544
-0.0647000000000002,-12.648933732093294
-0.06570000000000009,-12.760695924782631
-0.0667000000000002,-12.835675623675478
-0.0677000000000001,-12.958755506763735
-0.0687000000000002,-13.10022663675024
-0.0697000000000001,-13.243112478036608
-0.07070000000000021,-13.353459959426083
-0.0717000000000001,-13.411463122720548
-0.07270000000000021,-13.514737047610696
-0.0737000000000001,-13.657622888897064
-0.07470000000000021,-13.827388244880868
-0.0757000000000001,-13.946223994069532
-0.07670000000000021,-14.011300713863324
-0.0777000000000001,-14.132965885651718
-0.07870000000000021,-14.30273124163552
-0.0797000000000001,-14.430055258623375
-0.08070000000000022,-14.500790823616628
-0.0817000000000001,-14.585673501608527
-0.08270000000000022,-14.69885040559773
-0.08370000000000011,-14.812027309586934
-0.08470000000000022,-14.967645552572087
-0.08570000000000011,-15.10911668255859
-0.08670000000000022,-15.179852247551842
-0.08770000000000011,-15.250587812545096
-0.08870000000000022,-15.4203531685289
-0.08970000000000011,-15.575971411514052
-0.09070000000000022,-15.675001202504609
-0.09170000000000011,-15.77403099349516
-0.09270000000000023,-15.858913671487063
-0.09370000000000012,-16.000384801473565
-0.09470000000000023,-16.170150157457368
-0.09570000000000012,-16.29747417444522
-0.09670000000000023,-16.382356852437127
-0.09770000000000012,-16.481386643427676
-0.09870000000000023,-16.59456354741688
-0.09970000000000012,-16.764328903400685
-0.10070000000000023,-16.891652920388537
-0.10170000000000012,-16.93409425938449
-0.10270000000000024,-17.061418276372343
-0.10370000000000013,-17.188742293360193
-0.10470000000000024,-17.3302134233467
-0.10570000000000013,-17.45753744033455
-0.10670000000000024,-17.584861457322408
-0.10770000000000013,-17.71218547431026
-0.10870000000000024,-17.853656604296763
-0.10970000000000013,-18.009274847281915
-0.11070000000000024,-18.13659886426977
-0.11170000000000013,-18.19318731626437
-0.11270000000000002,-18.27806999425627
-0.11370000000000013,-18.40539401124413
-0.11470000000000002,-18.660042045219836
-0.11570000000000014,-18.858101627200938
-0.11670000000000003,-18.95713141819149
-0.11770000000000014,-19.056161209182044
-0.11870000000000003,-19.211779452167196
-0.11970000000000014,-19.367397695152352
-0.12070000000000003,-19.523015938137508
-0.12170000000000014,-19.636192842126707
-0.12270000000000003,-19.77766397211321
-0.12370000000000014,-19.904987989101066
-0.12470000000000003,-20.088900458083522
-0.12570000000000014,-20.272812927065978
-0.12670000000000003,-20.47087250904708
-0.12770000000000015,-20.52746096104168
-0.12870000000000004,-20.683079204026836
-0.12970000000000015,-20.90943301200524
-0.13070000000000004,-21.065051254990397
-0.13170000000000015,-21.2065223849769
-0.13270000000000004,-21.362140627962056
-0.13370000000000015,-21.54605309694451
-0.13470000000000004,-21.729965565926964
-0.13570000000000015,-21.92802514790807
-0.13670000000000004,-22.111937616890522
-0.13770000000000016,-22.309997198871628
-0.13870000000000005,-22.46561544185678
-0.13970000000000016,-22.63538079784059
-0.14070000000000005,-22.861734605818995
-0.14170000000000016,-22.960764396809545
-0.14270000000000005,-23.088088413797397
-0.14370000000000016,-23.342736447773106
-0.14470000000000005,-23.56909025575151
-0.14570000000000016,-23.781296950731264
-0.14670000000000005,-23.93691519371642
-0.14770000000000016,-24.134974775697525
-0.14870000000000005,-24.37547569667458
-0.14970000000000017,-24.545241052658387
-0.15070000000000006,-24.729153521640843
-0.15170000000000017,-24.898918877624645
-0.15270000000000006,-25.111125572604404
-0.15370000000000017,-25.337479380582806
-0.15470000000000006,-25.592127414558515
-0.15570000000000017,-25.80433410953827
-0.15670000000000006,-25.959952352523427
-0.15770000000000017,-26.18630616050183
-0.15870000000000006,-26.370218629484285
-0.15970000000000018,-26.65316088945729
-0.16070000000000007,-26.921956036431645
-0.16170000000000018,-27.134162731411404
-0.16270000000000007,-27.34636942639116
-0.16370000000000018,-27.558576121370916
-0.16470000000000007,-27.756635703352025
-0.16570000000000018,-27.954695285333123
-0.16670000000000007,-28.15275486731423
-0.16770000000000018,-28.350814449295335
-0.16870000000000007,-28.591315370272387
-0.16970000000000018,-28.831816291249446
-0.17070000000000007,-29.044022986229205
-0.17170000000000019,-29.242082568210304
-0.17270000000000008,-29.510877715184666
-0.1737000000000002,-29.76552574916037
-0.17470000000000008,-29.977732444140123
-0.1757000000000002,-30.17579202612123
-0.17670000000000008,-30.416292947098288
-0.1777000000000002,-30.614352529079397
-0.17870000000000008,-30.88314767605375
-0.1797000000000002,-31.16608993602676
-0.18070000000000008,-31.36414951800786
-0.1817000000000002,-31.590503325986273
-0.18270000000000008,-31.85929847296063
-0.1837000000000002,-32.08565228093904
-0.1847000000000001,-32.31200608891744
-0.1857000000000002,-32.439330105905285
-0.1867000000000001,-32.73641947887695
-0.1877000000000002,-33.01936173884996
-0.1887000000000001,-33.316451111821614
-0.1897000000000002,-33.57109914579732
-0.1907000000000001,-33.86818851876898
-0.1917000000000001,-34.12283655274469
-0.19269999999999998,-34.292601908728486
-0.1937000000000001,-34.5755441687015
-0.19469999999999998,-34.90092776767045
-0.1957000000000001,-35.15557580164616
-0.19669999999999999,-35.396076722623214
-0.1977000000000001,-35.57998919160567
-0.1987,-35.806342999584075
-0.1997000000000001,-36.03269680756248
-0.2007,-36.315639067535486
-0.2017000000000001,-36.5985813275085
-0.2027,-36.83908224848555
-0.2037000000000001,-37.107877395459916
-0.2047,-37.40496676843157
-0.2057000000000001,-37.60302635041268
-0.2067,-37.87182149738703
-0.2077000000000001,-38.04158685337084
-0.2087,-38.267940661349236
-0.2097000000000001,-38.607471373316855
-0.2107,-38.84797229429391
-0.2117000000000001,-39.116767441268266
-0.2127,-39.44215104023723
-0.2137000000000001,-39.68265196121428
-0.2147,-39.90900576919269
-0.2157000000000001,-40.163653803168394
-0.2167,-40.40415472414545
-0.21770000000000012,-40.630508532123855
-0.2187,-40.92759790509552
-0.21970000000000012,-41.196393052069865
-0.2207,-41.42274686004827
-0.22170000000000012,-41.677394894023976
-0.2227,-41.96033715399699
-0.22370000000000012,-42.25742652696865
-0.2247,-42.540368786941656
-0.22570000000000012,-42.72428125592411
-0.2267,-42.90819372490656
-0.22770000000000012,-43.19113598487957
-0.22870000000000001,-43.48822535785123
-0.22970000000000013,-43.71457916582963
-0.23070000000000002,-43.98337431280399
-0.23170000000000013,-44.16728678178645
-0.23270000000000002,-44.39364058976485
-0.23370000000000013,-44.66243573673921
-0.23470000000000002,-45.030260674704124
-0.23570000000000013,-45.18587891768927
-0.23670000000000002,-45.31320293467712
-0.2376999999999999,-45.596145194650134
-0.23870000000000002,-45.92152879361909
-0.2396999999999999,-46.10544126260155
-0.24070000000000003,-46.36008929657725
-0.24169999999999991,-46.572295991557006
-0.24270000000000003,-46.91182670352462
-0.24369999999999992,-46.99670938151652
-0.24470000000000003,-47.25135741549222
-0.24569999999999992,-47.435269884474685
-0.24670000000000003,-47.619182353457134
-0.24769999999999992,-47.93041883942744
-0.24870000000000003,-48.29824377739235
-0.24969999999999992,-48.55289181136806
-0.25070000000000003,-48.66606871535726
-0.2516999999999999,-48.84998118433972
-0.25270000000000004,-48.920716749332975
-0.2536999999999999,-49.24610034830193
-0.25470000000000004,-49.458307043281685
-0.2556999999999999,-49.71295507725739
-0.25670000000000004,-49.86857332024254
-0.25769999999999993,-50.094927128220945
-0.25870000000000004,-50.22225114520881
-0.25969999999999993,-50.448604953187214
-0.26070000000000004,-50.68910587416426
-0.26169999999999993,-50.90131256914402
-0.26270000000000004,-51.05693081212917
-0.26369999999999993,-51.26913750710893
-0.26470000000000005,-51.35402018510083
-0.26569999999999994,-51.566226880080585
-0.26670000000000005,-51.792580688059
-0.26769999999999994,-52.033081609036046
-0.26870000000000005,-52.061375835033346
-0.26969999999999994,-52.386759434002315
-0.27070000000000005,-52.59896612898206
-0.27169999999999994,-52.71214303297127
-0.27270000000000005,-52.81117282396182
-0.27369999999999994,-52.980938179945625
-0.27470000000000006,-53.26388043991864
-0.27569999999999995,-53.433645795902436
-0.27670000000000006,-53.532675586892985
-0.27769999999999995,-53.603411151886235
-0.27870000000000006,-53.7307351688741
-0.27969999999999995,-53.84391207286329
-0.28070000000000006,-54.070265880841696
-0.28169999999999995,-54.39564947981066
-0.28270000000000006,-54.551267722795814
-0.28369999999999995,-54.791768643772876
-0.28470000000000006,-54.890798434763425
-0.28569999999999995,-54.86250420876612
-0.28670000000000007,-54.73518019177827
-0.28769999999999996,-54.933239773759375
-0.28870000000000007,-55.24447625972968
-0.28969999999999996,-55.32935893772159
-0.29070000000000007,-55.73962521468245
-0.29169999999999996,-55.79621366667705
-0.29270000000000007,-55.838655005673
-0.29369999999999996,-56.093303039648696
-0.2947000000000001,-56.12159726564601
-0.29569999999999996,-56.26306839563251
-0.2967000000000001,-56.26306839563251
-0.29769999999999996,-56.37624529962171
-0.2987000000000001,-56.58845199460147
-0.29969999999999997,-56.71577601158933
-0.3007000000000001,-56.786511576582576
-0.30169999999999997,-56.75821735058527
-0.3027000000000001,-56.88554136757313
-0.30369999999999997,-56.97042404556503
-0.3047000000000001,-57.111895175551524
-0.30569999999999997,-57.36654320952724
-0.3067000000000001,-57.6070441305043
-0.3077,-57.7202210344935
-0.3087000000000001,-57.73436814749215
-0.3097,-57.62119124350295
-0.3107000000000001,-57.649485469500235
-0.3117,-57.79095659948675
-0.3127000000000001,-58.00316329446651
-0.3137,-58.21536998944626
-0.3147000000000001,-58.31439978043681
-0.3157,-58.47001802342197
-0.3167000000000001,-58.51245936241792
-0.3177,-58.61148915340847
-0.3187000000000001,-58.68222471840172
-0.3197,-58.79540162239092
-0.3207000000000001,-58.951019865376075
-0.3217,-59.16322656035583
-0.3227000000000001,-59.23396212534908
-0.3237,-59.31884480334099
-0.3247000000000001,-59.53105149832074
-0.3257,-59.64422840230995
-0.3267000000000001,-59.89887643628565
-0.3277,-60.08278890526811
-0.3287000000000001,-60.19596580925731
-0.3297,-60.35158405224246
-0.3307000000000001,-60.43646673023436
-0.3317,-60.56379074722222
-0.3327000000000001,-60.761850329203334
-0.3337,-61.03064547617768
-0.3347000000000001,-61.18626371916283
-0.3357,-61.55408865712774
-0.3367000000000001,-61.7380011261102
-0.3377,-61.921913595092654
-0.3387000000000001,-62.09167895107646
-0.3397,-62.31803275905487
-0.3407000000000001,-62.61512213202652
-0.3417,-62.91221150499819
-0.3427000000000001,-63.22344799096849
-0.3437,-63.5346844769388
-0.3447000000000001,-64.00153920589426
-0.3457,-64.14301033588076
-0.3467000000000001,-64.41180548285512
-0.3477,-64.75133619482273
-0.3487000000000001,-65.17574958478224
-0.3497,-65.31722071476874
-0.3507000000000001,-65.5577216357458
-0.3517,-65.8972523477134
-0.3527000000000001,-66.32166573767293
-0.3537,-66.83096180562433
-0.3547000000000001,-67.2978165345798
-0.3557,-67.2978165345798
-0.35670000000000013,-67.7222299245393
-0.3577,-68.30226155748396
-0.35870000000000013,-68.75496917344077
-0.3597,-69.22182390239624
-0.36070000000000013,-69.50476616236925
-0.3617,-69.91503243933012
-0.3626999999999999,-70.38188716828559
-0.3637,-71.08924281821808
-0.3646999999999999,-71.69756867716005
-0.3657,-72.12198206711957
-0.3666999999999999,-72.47565989208583
-0.3677,-72.8576319430494
-0.3686999999999999,-73.2820453330089
-0.36970000000000003,-73.8762240789522
-0.3706999999999999,-74.45625571189689
-0.37170000000000003,-75.1070229098348
-0.3726999999999999,-75.61631897778622
-0.37370000000000003,-76.09732081974033
-0.3746999999999999,-76.74808801767824
-0.37570000000000003,-77.17250140763775
-0.3766999999999999,-77.61106191059591
-0.37770000000000004,-78.19109354354057
-0.3786999999999999,-78.85600785447714
-0.37970000000000004,-79.35115680942992
-0.3806999999999999,-79.94533555537322
-0.38170000000000004,-80.59610275331114
-0.38269999999999993,-81.16198727325715
-0.38370000000000004,-81.78446024519776
-0.38469999999999993,-82.27960920015053
-0.38570000000000004,-82.90208217209116
-0.38669999999999993,-81.99666694017753
-0.38570000000000004,-79.81801153838538
-0.38469999999999993,-77.90815128356756
-0.38370000000000004,-76.23879194972683
-0.38269999999999993,-74.8806691018564
-0.38170000000000004,-73.32448667200485
-0.3806999999999999,-72.02295227612902
-0.37970000000000004,-70.62238808926263
-0.3786999999999999,-69.22182390239624
-0.37770000000000004,-67.6656414725447
-0.3766999999999999,-66.53387243265267
-0.37570000000000003,-65.3596620537647
-0.3746999999999999,-64.34106991786187
-0.37370000000000003,-63.19515376497119
-0.3726999999999999,-61.80873669110345
-0.37170000000000003,-60.60623208621817
-0.3706999999999999,-59.417874594331536
-0.36970000000000003,-58.18707576344896
-0.3686999999999999,-56.857247141575826
-0.3677,-55.68303676268785
-0.3666999999999999,-54.62200328778906
-0.3657,-53.63170537788354
-0.3646999999999999,-52.528230563988814
-0.3637,-51.396461524096786
-0.3626999999999999,-50.335428049198
-0.3617,-49.27439457429922
-0.36070000000000013,-48.1992139864018
-0.3597,-47.16647473750032
-0.35870000000000013,-46.034705697608295
-0.3577,-45.030260674704124
-0.35670000000000013,-44.138992555789144
-0.3557,-43.33260711486608
-0.3547000000000001,-42.59695723893625
-0.3537,-41.43689397304693
-0.3527000000000001,-40.33341915915219
-0.3517,-39.42800392723857
-0.3507000000000001,-38.692354051308754
-0.3497,-37.84352727138973
-0.3487000000000001,-36.90981781347881
-0.3477,-36.00440258156518
-0.3467000000000001,-35.169722914644815
-0.3457,-34.377484586720385
-0.3447000000000001,-33.655981823789226
-0.3437,-32.8354492698675
-0.3427000000000001,-31.95832826395118
-0.3417,-31.12364859703081
-0.3407000000000001,-30.317263156107735
-0.3397,-29.539171941181966
-0.3387000000000001,-28.9025518562427
-0.3377,-28.18104909331153
-0.3367000000000001,-27.487840556377662
-0.3357,-26.780484906445146
-0.3347000000000001,-26.087276369511276
-0.3337,-25.351626493581456
-0.3327000000000001,-24.601829504652986
-0.3317,-23.92276808071777
-0.3307000000000001,-23.286147995778503
-0.3297,-22.607086571843286
-0.3287000000000001,-21.95631937390537
-0.3277,-21.30555217596745
-0.3267000000000001,-20.626490752032236
-0.3257,-20.00401778009162
-0.3247000000000001,-19.452280373144255
-0.3237,-18.744924723211735
-0.3227000000000001,-18.164893090267068
-0.3217,-17.528273005327804
-0.3207000000000001,-16.97653559838044
-0.3197,-16.453092417430376
-0.3187000000000001,-15.901355010483012
-0.3177,-15.335470490536997
-0.3167000000000001,-14.755438857592333
-0.3157,-14.217848563643619
-0.3147000000000001,-13.677428847095173
-0.3137,-13.141253264446325
-0.3127000000000001,-12.609321815697072
-0.3117,-12.083049212147277
-0.3107000000000001,-11.585070834594784
-0.3097,-11.123874950838783
-0.3087000000000001,-10.666923200982376
-0.3077,-10.164700689530287
-0.3067000000000001,-9.63701337468063
-0.30569999999999997,-9.172988068324898
-0.3047000000000001,-8.699059782870112
-0.30369999999999997,-8.259084568612085
-0.3027000000000001,-7.800718107455811
-0.30169999999999997,-7.343766357599406
-0.3007000000000001,-6.926426524139219
-0.29969999999999997,-6.506257268079304
-0.2987000000000001,-6.077599744220197
-0.29769999999999996,-5.629136262162981
-0.2967000000000001,-5.201893449603739
-0.29569999999999996,-4.80577428564153
-0.2947000000000001,-4.405410987779724
-0.29369999999999996,-4.002218267318188
-0.29270000000000007,-3.572146032159218
-0.29169999999999996,-3.166123889097952
-0.29070000000000007,-2.819519620631018
-0.28969999999999996,-2.4884771764625997
-0.28870000000000007,-2.0994315689997145
-0.28769999999999996,-1.701897693737639
-0.28670000000000007,-1.3094567791550777
-0.28569999999999995,-0.979687575156538
-0.28470000000000006,-0.6299709418299009
-0.28369999999999995,-0.24545241052658387
-0.28270000000000006,0.13625084529000167
-0.28169999999999995,0.49458307043281674
-0.28070000000000006,0.8365187916101962
-0.27969999999999995,1.173503023238048
-0.27870000000000006,1.5278882038542394
-0.27769999999999995,1.894298430519284
-0.27670000000000006,2.2437321215859485
-0.27569999999999995,2.5606274527557162
-0.27470000000000006,2.8732786500258896
-0.27369999999999994,3.2198829184928233
-0.27270000000000005,3.573560743459083
-0.27169999999999994,3.8975296311281755
-0.27070000000000005,4.193204292799969
-0.26969999999999994,4.487464243171897
-0.26870000000000005,4.814262553440719
-0.26769999999999994,5.180672780105764
-0.26670000000000005,5.469273885278232
-0.26569999999999994,5.7437278774520495
