Potential V vs RHE, Current mA cm-2
0.013299999999999867,6.496354288980249
0.012299999999999978,4.795871306542475
0.011299999999999866,3.1816857133964676
0.010299999999999976,1.5675001202504606
0.009299999999999864,0.08502414912188871
0.008299999999999974,-1.3543031273607997
0.007299999999999862,-2.7501987669376318
0.006299999999999972,-4.102662769608606
0.00529999999999986,-5.411270721983764
0.0042999999999999705,-6.6760226240631075
0.0032999999999998586,-7.984630576438266
0.0022999999999999687,-9.293238528813426
0.0012999999999998568,-10.601846481188586
0.00029999999999996696,-11.909039722263879
-0.000700000000000145,-13.175206335643086
-0.0017000000000000348,-14.401761032626075
-0.0027000000000001467,-15.618412750510005
-0.0037000000000000366,-16.750181790402035
-0.0047000000000001485,-17.839509491298113
-0.005700000000000038,-18.92883719219419
-0.00670000000000015,-19.97572355409432
-0.00770000000000004,-20.980168576998494
-0.008700000000000152,-22.027054938898623
-0.009700000000000042,-23.031499961802798
-0.010700000000000154,-24.120827662698876
-0.011700000000000044,-25.167714024599
-0.012700000000000156,-26.21460038649913
-0.013700000000000045,-27.261486748399253
-0.014700000000000157,-28.308373110299385
-0.015700000000000047,-29.27037679420761
-0.01670000000000016,-30.274821817111786
-0.01770000000000005,-31.137795710029454
-0.01870000000000016,-32.05735805494172
-0.01970000000000005,-32.93447906085806
-0.020700000000000163,-33.755011614779775
-0.021700000000000053,-34.632132620696105
-0.022700000000000164,-35.50925362661242
-0.023700000000000054,-36.37222751953009
-0.024700000000000166,-37.291789864442364
-0.025700000000000056,-38.16891087035869
-0.026700000000000168,-39.046031876275016
-0.027700000000000058,-39.95144710818864
-0.02870000000000017,-40.87100945310091
-0.02970000000000006,-41.74813045901723
-0.03070000000000017,-42.568663012938956
-0.03170000000000006,-43.36090134086337
-0.03270000000000017,-44.138992555789144
-0.03370000000000006,-44.84634820572166
-0.034700000000000175,-45.581998081651484
-0.035700000000000065,-46.3176479575813
-0.03670000000000018,-47.10988628550572
-0.03770000000000007,-47.84553616143554
-0.03870000000000018,-48.63777448935996
-0.03970000000000007,-49.458307043281685
-0.04070000000000018,-50.29298671020206
-0.04170000000000007,-51.028636586131874
-0.04270000000000018,-51.82087491405629
-0.04370000000000007,-52.55652478998611
-0.044700000000000184,-53.26388043991864
-0.045700000000000074,-53.9570889768525
-0.046700000000000186,-54.65029751378637
-0.047700000000000076,-55.31521182472294
-0.04870000000000019,-55.96597902266086
-0.04970000000000008,-56.65918755959472
-0.05070000000000019,-57.352396096528594
-0.05170000000000008,-58.10219308545706
-0.05270000000000019,-58.83784296138688
-0.05370000000000008,-59.587639950315335
-0.05470000000000019,-60.36573116524111
-0.05570000000000008,-61.11552815416958
-0.056700000000000195,-61.7662953521075
-0.057700000000000085,-62.41706255004542
-0.058700000000000196,-63.06782974798333
-0.059700000000000086,-63.77518539791585
-0.0607000000000002,-64.38351125685783
-0.06170000000000009,-65.03427845479574
-0.0627000000000002,-65.68504565273366
-0.06370000000000009,-66.34995996367022
-0.0647000000000002,-67.08560983960004
-0.06570000000000009,-67.82125971552985
-0.0667000000000002,-68.57105670445833
-0.0677000000000001,-69.3491479193841
-0.0687000000000002,-70.09894490831257
-0.0697000000000001,-70.8345947842424
-0.07070000000000021,-71.52780332117625
-0.0717000000000001,-72.19271763211282
-0.07270000000000021,-72.8859261690467
-0.0737000000000001,-73.49425202798865
-0.07470000000000021,-74.14501922592657
-0.0757000000000001,-74.80993353686314
-0.07670000000000021,-75.46070073480107
-0.0777000000000001,-76.06902659374302
-0.07870000000000021,-76.7622351306769
-0.0797000000000001,-77.38470810261751
-0.08070000000000022,-78.07791663955136
-0.0817000000000001,-78.77112517648524
-0.08270000000000022,-79.37945103542721
-0.08370000000000011,-80.04436534636378
-0.08470000000000022,-80.61024986630979
-0.08570000000000011,-81.21857572525175
-0.08670000000000022,-81.82690158419373
-0.08770000000000011,-82.43522744313569
-0.08870000000000022,-83.08599464107361
-0.08970000000000011,-83.75090895201016
-0.09070000000000022,-84.44411748894404
-0.09170000000000011,-85.17976736487385
-0.09270000000000023,-85.97200569279828
-0.09370000000000012,-86.7076555687281
-0.09470000000000023,-87.45745255765657
-0.09570000000000012,-88.19310243358639
-0.09670000000000023,-88.9004580835189
-0.09770000000000012,-89.55122528145681
-0.09870000000000023,-90.20199247939475
-0.09970000000000012,-90.81031833833671
-0.10070000000000023,-91.33376151928677
-0.10170000000000012,-91.94208737822873
-0.10270000000000024,-92.56456035016936
-0.10370000000000013,-93.17288620911131
-0.10470000000000024,-93.86609474604518
-0.10570000000000013,-94.5168619439831
-0.10670000000000024,-95.22421759391563
-0.10770000000000013,-95.95986746984543
-0.10870000000000024,-96.69551734577524
-0.10970000000000013,-97.40287299570777
-0.11070000000000024,-98.13852287163759
-0.11170000000000013,-98.7892900695755
-0.11270000000000002,-99.45420438051207
-0.11370000000000013,-100.10497157844999
-0.11470000000000002,-100.84062145437981
-0.11570000000000014,-101.54797710431234
-0.11670000000000003,-102.19874430225026
-0.11770000000000014,-102.93439417818009
-0.11870000000000003,-103.64174982811258
-0.11970000000000014,-104.3773997040424
-0.12070000000000003,-105.11304957997223
-0.12170000000000014,-105.7779638909088
-0.12270000000000003,-106.4287310888467
-0.12370000000000014,-107.07949828678463
-0.12470000000000003,-107.68782414572658
-0.12570000000000014,-108.35273845666316
-0.12670000000000003,-109.00350565460108
-0.12770000000000015,-109.56939017454708
-0.12870000000000004,-110.17771603348905
-0.12970000000000015,-110.87092457042293
-0.13070000000000004,-111.57828022035544
-0.13170000000000015,-112.3563714352812
-0.13270000000000004,-113.10616842420968
-0.13370000000000015,-113.88425963913545
-0.13470000000000004,-114.67649796705987
-0.13570000000000015,-115.36970650399375
-0.13670000000000004,-116.10535637992358
-0.13770000000000016,-116.77027069086012
-0.13870000000000005,-117.3785965498021
-0.13970000000000016,-117.98692240874406
-0.14070000000000005,-118.59524826768603
-0.14170000000000016,-119.20357412662798
-0.14270000000000005,-119.769458646574
-0.14370000000000016,-120.43437295751058
-0.14470000000000005,-121.12758149444444
-0.14570000000000016,-121.82079003137831
-0.14670000000000005,-122.52814568131083
-0.14770000000000016,-123.26379555724066
-0.14870000000000005,-123.95700409417452
-0.14970000000000017,-124.66435974410705
-0.15070000000000006,-125.35756828104091
-0.15170000000000017,-126.00833547897882
-0.15270000000000006,-126.6732497899154
-0.15370000000000017,-127.28157564885734
-0.15470000000000006,-127.93234284679528
-0.15570000000000017,-128.62555138372915
-0.15670000000000006,-129.33290703366166
-0.15770000000000017,-130.06855690959148
-0.15870000000000006,-130.84664812451723
-0.15970000000000018,-131.5964451134457
-0.16070000000000007,-132.33209498937555
-0.16170000000000018,-133.03945063930803
-0.16270000000000007,-133.73265917624192
-0.16370000000000018,-134.42586771317576
-0.16470000000000007,-135.1332233631083
-0.16570000000000018,-135.74154922205025
-0.16670000000000007,-136.3923164199882
-0.16770000000000018,-136.95820093993422
-0.16870000000000007,-137.6089681378721
-0.16970000000000018,-138.23144110981272
-0.17070000000000007,-138.88220830775063
-0.17170000000000019,-139.57541684468453
-0.17270000000000008,-140.22618404262244
-0.1737000000000002,-140.9759810315509
-0.17470000000000008,-141.61260111649017
-0.1757000000000002,-142.31995676642268
-0.17670000000000008,-142.8858412863687
-0.1777000000000002,-143.5931969363012
-0.17870000000000008,-144.15908145624724
-0.1797000000000002,-144.86643710617977
-0.18070000000000008,-145.43232162612577
-0.1817000000000002,-146.1396772760583
-0.18270000000000008,-146.7055617960043
-0.1837000000000002,-147.4129174459368
-0.1847000000000001,-148.26174422585584
-0.1857000000000002,-149.1105710057749
-0.1867000000000001,-149.8179266557074
-0.1877000000000002,-150.66675343562642
-0.1887000000000001,-151.37410908555893
-0.1897000000000002,-152.22293586547795
-0.1907000000000001,-152.93029151541046
-0.1917000000000001,-153.63764716534297
-0.19269999999999998,-154.203531685289
-0.1937000000000001,-154.76941620523502
-0.19469999999999998,-155.33530072518104
-0.1957000000000001,-155.90118524512707
-0.19669999999999999,-156.46706976507306
-0.1977000000000001,-157.03295428501906
-0.1987,-157.7403099349516
-0.1997000000000001,-158.3061944548976
-0.2007,-159.01355010483013
-0.2017000000000001,-159.72090575476264
-0.2027,-160.28679027470866
-0.2037000000000001,-160.99414592464117
-0.2047,-161.70150157457368
-0.2057000000000001,-162.40885722450622
-0.2067,-162.97474174445222
-0.2077000000000001,-163.68209739438475
-0.2087,-164.38945304431726
-0.2097000000000001,-165.09680869424977
-0.2107,-165.8041643441823
-0.2117000000000001,-166.51151999411482
-0.2127,-167.36034677403384
-0.2137000000000001,-168.06770242396635
-0.2147,-168.77505807389886
-0.2157000000000001,-169.48241372383137
-0.2167,-170.18976937376394
-0.21770000000000012,-170.75565389370993
-0.2187,-171.32153841365593
-0.21970000000000012,-171.88742293360195
-0.2207,-172.45330745354798
-0.22170000000000012,-172.87772084350746
-0.2227,-173.44360536345349
-0.22370000000000012,-174.0094898833995
-0.2247,-174.57537440334553
-0.22570000000000012,-175.28273005327804
-0.2267,-176.13155683319707
-0.22770000000000012,-176.98038361311612
-0.22870000000000001,-177.6877392630486
-0.22970000000000013,-178.67803717295413
-0.23070000000000002,-179.52686395287316
-0.23170000000000013,-180.37569073279218
-0.23270000000000002,-181.08304638272472
-0.23370000000000013,-181.93187316264374
-0.23470000000000002,-182.78069994256273
-0.23570000000000013,-183.48805559249527
-0.23670000000000002,-184.19541124242778
-0.2376999999999999,-184.7612957623738
-0.23870000000000002,-185.46865141230631
-0.2396999999999999,-186.17600706223882
-0.24070000000000003,-186.74189158218485
-0.24169999999999991,-187.30777610213087
-0.24270000000000003,-187.87366062207687
-0.24369999999999992,-188.29807401203638
-0.24470000000000003,-188.72248740199586
-0.24569999999999992,-189.2883719219419
-0.24670000000000003,-189.71278531190143
-0.24769999999999992,-190.27866983184742
-0.24870000000000003,-190.84455435179345
-0.24969999999999992,-191.41043887173947
-0.25070000000000003,-191.9763233916855
-0.2516999999999999,-192.683679041618
-0.25270000000000004,-193.532505821537
-0.2536999999999999,-194.2398614714695
-0.25470000000000004,-195.08868825138856
-0.2556999999999999,-195.79604390132107
-0.25670000000000004,-196.6448706812401
-0.25769999999999993,-197.35222633117263
-0.25870000000000004,-198.05958198110514
-0.25969999999999993,-198.76693763103765
-0.26070000000000004,-199.33282215098367
-0.26169999999999993,-200.04017780091618
-0.26270000000000004,-200.7475334508487
-0.26369999999999993,-201.31341797079472
-0.26470000000000005,-202.02077362072723
-0.26569999999999994,-202.58665814067325
-0.26670000000000005,-203.15254266061928
-0.26769999999999994,-203.85989831055176
-0.26870000000000005,-204.5672539604843
-0.26969999999999994,-205.13313848043032
-0.27070000000000005,-205.84049413036286
-0.27169999999999994,-206.40637865030885
-0.27270000000000005,-206.97226317025488
-0.27369999999999994,-207.5381476902009
-0.27470000000000006,-208.3869744701199
-0.27569999999999995,-208.95285899006592
-0.27670000000000006,-209.8016857699849
-0.27769999999999995,-210.50904141991748
-0.27870000000000006,-211.21639706985
-0.27969999999999995,-212.065223849769
-0.28070000000000006,-212.914050629688
-0.28169999999999995,-213.62140627962054
-0.28270000000000006,-214.47023305953954
-0.28369999999999995,-215.31905983945856
-0.28470000000000006,-215.88494435940459
-0.28569999999999995,-216.59230000933712
-0.28670000000000007,-217.29965565926966
-0.28769999999999996,-218.00701130920217
-0.28870000000000007,-218.57289582914817
-0.28969999999999996,-219.42172260906716
-0.29070000000000007,-219.98760712901318
-0.29169999999999996,-220.6949627789457
-0.29270000000000007,-221.40231842887826
-0.29369999999999996,-222.25114520879725
-0.2947000000000001,-222.81702972874328
-0.29569999999999996,-223.52438537867582
-0.2967000000000001,-224.09026989862178
-0.29769999999999996,-224.65615441856778
-0.2987000000000001,-225.08056780852735
-0.29969999999999997,-225.64645232847332
-0.3007000000000001,-226.07086571843288
-0.30169999999999997,-226.49527910839237
-0.3027000000000001,-227.06116362833836
-0.30369999999999997,-227.62704814828442
-0.3047000000000001,-228.33440379821695
-0.30569999999999997,-228.90028831816295
-0.3067000000000001,-229.60764396809546
-0.3077,-230.31499961802797
-0.3087000000000001,-231.0223552679605
-0.3097,-231.729710917893
-0.3107000000000001,-232.57853769781204
-0.3117,-233.28589334774458
-0.3127000000000001,-233.85177786769057
-0.3137,-234.4176623876366
-0.3147000000000001,-235.12501803756908
-0.3157,-235.69090255751513
-0.3167000000000001,-236.25678707746113
-0.3177,-236.82267159740715
-0.3187000000000001,-237.53002724733966
-0.3197,-238.0959117672857
-0.3207000000000001,-238.8032674172182
-0.3217,-239.36915193716422
-0.3227000000000001,-240.0765075870967
-0.3237,-240.64239210704275
-0.3247000000000001,-241.20827662698875
-0.3257,-241.77416114693477
-0.3267000000000001,-242.48151679686728
-0.3277,-243.04740131681334
-0.3287000000000001,-243.75475696674582
-0.3297,-244.46211261667833
-0.3307000000000001,-245.31093939659738
-0.3317,-246.01829504652986
-0.3327000000000001,-246.7256506964624
-0.3337,-247.57447747638145
-0.3347000000000001,-248.42330425630044
-0.3357,-249.2721310362195
-0.3367000000000001,-250.1209578161385
-0.3377,-250.9697845960575
-0.3387000000000001,-251.81861137597656
-0.3397,-252.52596702590907
-0.3407000000000001,-253.23332267584152
-0.3417,-254.08214945576057
-0.3427000000000001,-254.78950510569314
-0.3437,-255.49686075562562
-0.3447000000000001,-256.34568753554464
-0.3457,-257.0530431854772
-0.3467000000000001,-257.76039883540966
-0.3477,-258.60922561532874
-0.3487000000000001,-259.3165812652612
-0.3497,-260.16540804518024
-0.3507000000000001,-260.8727636951128
-0.3517,-261.7215904750318
-0.3527000000000001,-262.42894612496434
-0.3537,-262.9948306449103
-0.3547000000000001,-263.7021862948428
-0.3557,-264.40954194477536
-0.35670000000000013,-265.2583687246944
-0.3577,-265.9657243746269
-0.35870000000000013,-266.8145511545459
-0.3597,-267.6633779344649
-0.36070000000000013,-268.37073358439744
-0.3617,-269.2195603643164
-0.3626999999999999,-269.926916014249
-0.3637,-270.775742794168
-0.3646999999999999,-271.62456957408705
-0.3657,-272.3319252240195
-0.3666999999999999,-272.8978097439656
-0.3677,-273.60516539389806
-0.3686999999999999,-274.31252104383066
-0.36970000000000003,-275.1613478237496
-0.3706999999999999,-275.86870347368216
-0.37170000000000003,-276.7175302536012
-0.3726999999999999,-277.4248859035337
-0.37370000000000003,-278.1322415534662
-0.3746999999999999,-278.8395972033987
-0.37570000000000003,-279.6884239833177
-0.3766999999999999,-280.3957796332503
-0.37770000000000004,-281.1031352831828
-0.3786999999999999,-281.8104909331153
-0.37970000000000004,-282.3763754530613
-0.3806999999999999,-282.9422599730073
-0.38170000000000004,-283.64961562293985
-0.38269999999999993,-284.35697127287233
-0.38370000000000004,-285.0643269228049
-0.38469999999999993,-285.7716825727374
-0.38570000000000004,-286.47903822266994
-0.38669999999999993,-286.0546248327104
-0.38570000000000004,-283.3666733629668
-0.38469999999999993,-280.82019302320975
-0.38370000000000004,-278.4151838134392
-0.38269999999999993,-276.01017460366864
-0.38170000000000004,-273.4636942639116
-0.3806999999999999,-270.9172139241545
-0.37970000000000004,-268.37073358439744
-0.3786999999999999,-265.82425324464043
-0.37770000000000004,-263.27777290488336
-0.3766999999999999,-260.8727636951128
-0.37570000000000003,-258.4677544853422
-0.3746999999999999,-256.0627452755717
-0.37370000000000003,-253.65773606580112
-0.3726999999999999,-251.39419798601702
-0.37170000000000003,-248.9891887762465
-0.3706999999999999,-246.7256506964624
-0.36970000000000003,-244.46211261667833
-0.3686999999999999,-242.19857453689428
-0.3677,-240.0765075870967
-0.3666999999999999,-237.81296950731266
-0.3657,-235.54943142752862
-0.3646999999999999,-233.28589334774458
-0.3637,-231.163826397947
-0.3626999999999999,-229.04175944814943
-0.3617,-227.06116362833836
-0.36070000000000013,-224.93909667854084
-0.3597,-222.81702972874328
-0.35870000000000013,-220.5534916489592
-0.3577,-218.57289582914817
-0.35670000000000013,-216.4508288793506
-0.3557,-214.18729079956654
-0.3547000000000001,-212.065223849769
-0.3537,-209.94315689997146
-0.3527000000000001,-207.67961882018741
-0.3517,-205.55755187038983
-0.3507000000000001,-203.29401379060576
-0.3497,-201.31341797079472
-0.3487000000000001,-199.19135102099716
-0.3477,-197.0692840711996
-0.3467000000000001,-195.08868825138856
-0.3457,-193.10809243157752
-0.3447000000000001,-190.98602548177996
-0.3437,-189.0054296619689
-0.3427000000000001,-186.88336271217133
-0.3417,-184.9027668923603
-0.3407000000000001,-182.92217107254925
-0.3397,-180.8001041227517
-0.3387000000000001,-178.81950830294062
-0.3377,-176.6974413531431
-0.3367000000000001,-174.71684553333202
-0.3357,-172.87772084350746
-0.3347000000000001,-171.03859615368293
-0.3337,-169.0580003338719
-0.3327000000000001,-167.21887564404733
-0.3317,-165.3797509542228
-0.3307000000000001,-163.54062626439824
-0.3297,-161.5600304445872
-0.3287000000000001,-159.57943462477613
-0.3277,-157.59883880496508
-0.3267000000000001,-155.61824298515404
-0.3257,-153.63764716534297
-0.3247000000000001,-151.65705134553193
-0.3237,-149.8179266557074
-0.3227000000000001,-147.97880196588284
-0.3217,-146.1396772760583
-0.3207000000000001,-144.30055258623375
-0.3197,-142.4614278964092
-0.3187000000000001,-140.66474454558062
-0.3177,-138.88220830775063
-0.3167000000000001,-137.04308361792607
-0.3157,-135.1332233631083
-0.3147000000000001,-133.2516573342878
-0.3137,-131.46912109645783
-0.3127000000000001,-129.6299964066333
-0.3117,-127.93234284679528
-0.3107000000000001,-126.14980660896532
-0.3097,-124.39556459713268
-0.3087000000000001,-122.69791103729463
-0.3077,-121.0851401554485
-0.3067000000000001,-119.51481061259831
-0.30569999999999997,-117.90203973075215
-0.3047000000000001,-116.24682750991008
-0.30369999999999997,-114.57746817606933
-0.3027000000000001,-112.83737327723534
-0.30169999999999997,-111.13971971739728
-0.3007000000000001,-109.39962481856328
-0.29969999999999997,-107.64538280673065
-0.2987000000000001,-105.94772924689259
-0.29769999999999996,-104.2076343480586
-0.2967000000000001,-102.5524221272165
-0.29569999999999996,-100.84062145437981
-0.2947000000000001,-99.18540923353773
-0.29369999999999996,-97.61507969068752
-0.29270000000000007,-96.04475014783733
-0.29169999999999996,-94.47442060498715
-0.29070000000000007,-92.94653240113291
-0.28969999999999996,-91.33376151928677
-0.28870000000000007,-89.72099063744062
-0.28769999999999996,-88.15066109459043
-0.28670000000000007,-86.58033155174023
-0.28569999999999995,-85.01000200889004
-0.28470000000000006,-83.48211380503581
-0.28369999999999995,-81.95422560118158
-0.28270000000000006,-80.42633739732734
-0.28169999999999995,-78.91259630647174
-0.28070000000000006,-77.38470810261751
-0.27969999999999995,-75.85681989876326
-0.27870000000000006,-74.37137303390499
-0.27769999999999995,-72.84348483005074
-0.27670000000000006,-71.2307139482046
-0.27569999999999995,-69.61794306635846
-0.27470000000000006,-68.0051721845123
-0.27369999999999994,-66.39240130266617
-0.27270000000000005,-64.77963042082003
-0.27169999999999994,-63.20930087796983
-0.27070000000000005,-61.6814126741156
-0.26969999999999994,-60.19596580925731
-0.26870000000000005,-58.79540162239092
