Potential V vs RHE, Current mA cm-2
0.013299999999999867,-0.2202705493889862
0.012299999999999978,-1.1798692240874404
0.011299999999999866,-1.8773218949209036
0.010299999999999976,-2.4446211261667834
0.009299999999999864,-2.924208256821031
0.008299999999999974,-3.317497998183511
0.007299999999999862,-3.623075638954359
0.006299999999999972,-3.884797229429391
0.00529999999999986,-4.146518819904423
0.0042999999999999705,-4.3205283097878215
0.0032999999999998586,-4.494537799671222
0.0022999999999999687,-4.626105950558669
0.0012999999999998568,-4.800115440442069
0.00029999999999996696,-4.887827541033701
-0.000700000000000145,-4.974124930325469
-0.0017000000000000348,-5.0618370309171015
-0.0027000000000001467,-5.105693081212917
-0.0037000000000000366,-5.149549131508733
-0.0047000000000001485,-5.191990470504685
-0.005700000000000038,-5.235846520800501
-0.00670000000000015,-5.279702571096316
-0.00770000000000004,-5.279702571096316
-0.008700000000000152,-5.323558621392133
-0.009700000000000042,-5.367414671687949
-0.010700000000000154,-5.411270721983764
-0.011700000000000044,-5.453712060979717
-0.012700000000000156,-5.497568111275533
-0.013700000000000045,-5.5414241615713475
-0.014700000000000157,-5.5414241615713475
-0.015700000000000047,-5.497568111275533
-0.01670000000000016,-5.5414241615713475
-0.01770000000000005,-5.5414241615713475
-0.01870000000000016,-5.5414241615713475
-0.01970000000000005,-5.5414241615713475
-0.020700000000000163,-5.5414241615713475
-0.021700000000000053,-5.585280211867165
-0.022700000000000164,-5.585280211867165
-0.023700000000000054,-5.629136262162981
-0.024700000000000166,-5.629136262162981
-0.025700000000000056,-5.672992312458796
-0.026700000000000168,-5.629136262162981
-0.027700000000000058,-5.629136262162981
-0.02870000000000017,-5.672992312458796
-0.02970000000000006,-5.629136262162981
-0.03070000000000017,-5.672992312458796
-0.03170000000000006,-5.672992312458796
-0.03270000000000017,-5.672992312458796
-0.03370000000000006,-5.715433651454749
-0.034700000000000175,-5.715433651454749
-0.035700000000000065,-5.759289701750564
-0.03670000000000018,-5.759289701750564
-0.03770000000000007,-5.715433651454749
-0.03870000000000018,-5.759289701750564
-0.03970000000000007,-5.715433651454749
-0.04070000000000018,-5.715433651454749
-0.04170000000000007,-5.715433651454749
-0.04270000000000018,-5.715433651454749
-0.04370000000000007,-5.759289701750564
-0.044700000000000184,-5.759289701750564
-0.045700000000000074,-5.80314575204638
-0.046700000000000186,-5.80314575204638
-0.047700000000000076,-5.80314575204638
-0.04870000000000019,-5.847001802342197
-0.04970000000000008,-5.80314575204638
-0.05070000000000019,-5.847001802342197
-0.05170000000000008,-5.80314575204638
-0.05270000000000019,-5.80314575204638
-0.05370000000000008,-5.80314575204638
-0.05470000000000019,-5.80314575204638
-0.05570000000000008,-5.80314575204638
-0.056700000000000195,-5.80314575204638
-0.057700000000000085,-5.847001802342197
-0.058700000000000196,-5.847001802342197
-0.059700000000000086,-5.890857852638012
-0.0607000000000002,-5.890857852638012
-0.06170000000000009,-5.890857852638012
-0.0627000000000002,-5.890857852638012
-0.06370000000000009,-5.847001802342197
-0.0647000000000002,-5.890857852638012
-0.06570000000000009,-5.890857852638012
-0.0667000000000002,-5.890857852638012
-0.0677000000000001,-5.890857852638012
-0.0687000000000002,-5.890857852638012
-0.0697000000000001,-5.9347139029338285
-0.07070000000000021,-5.9347139029338285
-0.0717000000000001,-5.9347139029338285
-0.07270000000000021,-5.9347139029338285
-0.0737000000000001,-5.9347139029338285
-0.07470000000000021,-5.9347139029338285
-0.0757000000000001,-5.9347139029338285
-0.07670000000000021,-5.890857852638012
-0.0777000000000001,-5.890857852638012
-0.07870000000000021,-5.9347139029338285
-0.0797000000000001,-5.890857852638012
-0.08070000000000022,-5.9347139029338285
-0.0817000000000001,-5.977155241929781
-0.08270000000000022,-5.977155241929781
-0.08370000000000011,-6.021011292225596
-0.08470000000000022,-5.977155241929781
-0.08570000000000011,-5.977155241929781
-0.08670000000000022,-5.9347139029338285
-0.08770000000000011,-5.9347139029338285
-0.08870000000000022,-5.9347139029338285
-0.08970000000000011,-5.890857852638012
-0.09070000000000022,-5.9347139029338285
-0.09170000000000011,-5.9347139029338285
-0.09270000000000023,-5.977155241929781
-0.09370000000000012,-5.977155241929781
-0.09470000000000023,-6.021011292225596
-0.09570000000000012,-6.021011292225596
-0.09670000000000023,-6.021011292225596
-0.09770000000000012,-5.977155241929781
-0.09870000000000023,-5.9347139029338285
-0.09970000000000012,-5.9347139029338285
-0.10070000000000023,-5.9347139029338285
-0.10170000000000012,-5.9347139029338285
-0.10270000000000024,-5.977155241929781
-0.10370000000000013,-6.021011292225596
-0.10470000000000024,-6.021011292225596
-0.10570000000000013,-6.021011292225596
-0.10670000000000024,-6.021011292225596
-0.10770000000000013,-6.021011292225596
-0.10870000000000024,-6.021011292225596
-0.10970000000000013,-6.021011292225596
-0.11070000000000024,-5.977155241929781
-0.11170000000000013,-5.977155241929781
-0.11270000000000002,-5.977155241929781
-0.11370000000000013,-6.021011292225596
-0.11470000000000002,-6.021011292225596
-0.11570000000000014,-6.064867342521412
-0.11670000000000003,-6.064867342521412
-0.11770000000000014,-6.064867342521412
-0.11870000000000003,-6.064867342521412
-0.11970000000000014,-6.064867342521412
-0.12070000000000003,-6.064867342521412
-0.12170000000000014,-6.064867342521412
-0.12270000000000003,-6.021011292225596
-0.12370000000000014,-6.064867342521412
-0.12470000000000003,-6.021011292225596
-0.12570000000000014,-6.064867342521412
-0.12670000000000003,-6.064867342521412
-0.12770000000000015,-6.108723392817228
-0.12870000000000004,-6.108723392817228
-0.12970000000000015,-6.152579443113044
-0.13070000000000004,-6.152579443113044
-0.13170000000000015,-6.108723392817228
-0.13270000000000004,-6.108723392817228
-0.13370000000000015,-6.108723392817228
-0.13470000000000004,-6.108723392817228
-0.13570000000000015,-6.152579443113044
-0.13670000000000004,-6.108723392817228
-0.13770000000000016,-6.108723392817228
-0.13870000000000005,-6.152579443113044
-0.13970000000000016,-6.152579443113044
-0.14070000000000005,-6.152579443113044
-0.14170000000000016,-6.196435493408861
-0.14270000000000005,-6.196435493408861
-0.14370000000000016,-6.196435493408861
-0.14470000000000005,-6.152579443113044
-0.14570000000000016,-6.152579443113044
-0.14670000000000005,-6.152579443113044
-0.14770000000000016,-6.152579443113044
-0.14870000000000005,-6.196435493408861
-0.14970000000000017,-6.196435493408861
-0.15070000000000006,-6.196435493408861
-0.15170000000000017,-6.196435493408861
-0.15270000000000006,-6.238876832404812
-0.15370000000000017,-6.282732882700628
-0.15470000000000006,-6.282732882700628
-0.15570000000000017,-6.238876832404812
-0.15670000000000006,-6.238876832404812
-0.15770000000000017,-6.238876832404812
-0.15870000000000006,-6.282732882700628
-0.15970000000000018,-6.238876832404812
-0.16070000000000007,-6.282732882700628
-0.16170000000000018,-6.282732882700628
-0.16270000000000007,-6.326588932996443
-0.16370000000000018,-6.326588932996443
-0.16470000000000007,-6.37044498329226
-0.16570000000000018,-6.37044498329226
-0.16670000000000007,-6.37044498329226
-0.16770000000000018,-6.37044498329226
-0.16870000000000007,-6.326588932996443
-0.16970000000000018,-6.37044498329226
-0.17070000000000007,-6.37044498329226
-0.17170000000000019,-6.414301033588076
-0.17270000000000008,-6.414301033588076
-0.1737000000000002,-6.458157083883892
-0.17470000000000008,-6.458157083883892
-0.1757000000000002,-6.458157083883892
-0.17670000000000008,-6.500598422879844
-0.1777000000000002,-6.500598422879844
-0.17870000000000008,-6.500598422879844
-0.1797000000000002,-6.500598422879844
-0.18070000000000008,-6.500598422879844
-0.1817000000000002,-6.54445447317566
-0.18270000000000008,-6.54445447317566
-0.1837000000000002,-6.54445447317566
-0.1847000000000001,-6.588310523471475
-0.1857000000000002,-6.632166573767292
-0.1867000000000001,-6.632166573767292
-0.1877000000000002,-6.6760226240631075
-0.1887000000000001,-6.6760226240631075
-0.1897000000000002,-6.6760226240631075
-0.1907000000000001,-6.719878674358924
-0.1917000000000001,-6.719878674358924
-0.19269999999999998,-6.719878674358924
-0.1937000000000001,-6.719878674358924
-0.19469999999999998,-6.719878674358924
-0.1957000000000001,-6.762320013354876
-0.19669999999999999,-6.762320013354876
-0.1977000000000001,-6.806176063650692
-0.1987,-6.850032113946507
-0.1997000000000001,-6.893888164242324
-0.2007,-6.893888164242324
-0.2017000000000001,-6.893888164242324
-0.2027,-6.893888164242324
-0.2037000000000001,-6.93774421453814
-0.2047,-6.93774421453814
-0.2057000000000001,-6.981600264833956
-0.2067,-6.981600264833956
-0.2077000000000001,-7.024041603829907
-0.2087,-7.067897654125724
-0.2097000000000001,-7.111753704421539
-0.2107,-7.111753704421539
-0.2117000000000001,-7.155609754717355
-0.2127,-7.155609754717355
-0.2137000000000001,-7.199465805013171
-0.2147,-7.199465805013171
-0.2157000000000001,-7.243321855308987
-0.2167,-7.243321855308987
-0.21770000000000012,-7.28576319430494
-0.2187,-7.329619244600755
-0.21970000000000012,-7.329619244600755
-0.2207,-7.37347529489657
-0.22170000000000012,-7.4173313451923875
-0.2227,-7.461187395488204
-0.22370000000000012,-7.50504344578402
-0.2247,-7.50504344578402
-0.22570000000000012,-7.5474847847799715
-0.2267,-7.591340835075788
-0.22770000000000012,-7.591340835075788
-0.22870000000000001,-7.635196885371603
-0.22970000000000013,-7.679052935667419
-0.23070000000000002,-7.722908985963235
-0.23170000000000013,-7.7653503249591855
-0.23270000000000002,-7.809206375255003
-0.23370000000000013,-7.853062425550818
-0.23470000000000002,-7.896918475846635
-0.23570000000000013,-7.940774526142452
-0.23670000000000002,-7.940774526142452
-0.2376999999999999,-7.984630576438266
-0.23870000000000002,-8.027071915434218
-0.2396999999999999,-8.070927965730034
-0.24070000000000003,-8.11478401602585
-0.24169999999999991,-8.202496116617484
-0.24270000000000003,-8.246352166913299
-0.24369999999999992,-8.288793505909249
-0.24470000000000003,-8.332649556205066
-0.24569999999999992,-8.4203616567967
-0.24670000000000003,-8.464217707092514
-0.24769999999999992,-8.464217707092514
-0.24870000000000003,-8.55051509638428
-0.24969999999999992,-8.55051509638428
-0.25070000000000003,-8.638227196975913
-0.2516999999999999,-8.68208324727173
-0.25270000000000004,-8.725939297567548
-0.2536999999999999,-8.812236686859313
-0.25470000000000004,-8.85609273715513
-0.2556999999999999,-8.899948787450944
-0.25670000000000004,-8.943804837746763
-0.25769999999999993,-9.031516938338395
-0.25870000000000004,-9.073958277334345
-0.25969999999999993,-9.11781432763016
-0.26070000000000004,-9.161670377925978
-0.26169999999999993,-9.24938247851761
-0.26270000000000004,-9.293238528813426
-0.26369999999999993,-9.379535918105192
-0.26470000000000005,-9.423391968401008
-0.26569999999999994,-9.511104068992642
-0.26670000000000005,-9.59740145828441
-0.26769999999999994,-9.685113558876042
-0.26870000000000005,-9.772825659467674
-0.26969999999999994,-9.81668170976349
-0.27070000000000005,-9.902979099055257
-0.27169999999999994,-9.946835149351072
-0.27270000000000005,-9.99069119964689
-0.27369999999999994,-10.078403300238522
-0.27470000000000006,-10.120844639234473
-0.27569999999999995,-10.208556739826104
-0.27670000000000006,-10.296268840417738
-0.27769999999999995,-10.382566229709504
-0.27870000000000006,-10.514134380596953
-0.27969999999999995,-10.601846481188586
-0.28070000000000006,-10.688143870480351
-0.28169999999999995,-10.775855971071984
-0.28270000000000006,-10.819712021367803
-0.28369999999999995,-10.949865460955383
-0.28470000000000006,-11.037577561547016
-0.28569999999999995,-11.123874950838783
-0.28670000000000007,-11.211587051430415
-0.28769999999999996,-11.255443101726232
-0.28870000000000007,-11.385596541313816
-0.28969999999999996,-11.473308641905447
-0.29070000000000007,-11.56102074249708
-0.29169999999999996,-11.691174182084664
-0.29270000000000007,-11.778886282676295
-0.29369999999999996,-11.86659838326793
-0.2947000000000001,-11.952895772559694
-0.29569999999999996,-12.040607873151327
-0.2967000000000001,-12.170761312738911
-0.29769999999999996,-12.258473413330542
-0.2987000000000001,-12.346185513922174
-0.29969999999999997,-12.476338953509758
-0.3007000000000001,-12.607907104397206
-0.30169999999999997,-12.694204493688973
-0.3027000000000001,-12.825772644576423
-0.30369999999999997,-12.913484745168056
-0.3047000000000001,-13.087494235051453
-0.30569999999999997,-13.175206335643086
-0.3067000000000001,-13.261503724934855
-0.3077,-13.3930718758223
-0.3087000000000001,-13.47936926511407
-0.3097,-13.610937416001518
-0.3107000000000001,-13.741090855589102
-0.3117,-13.872659006476551
-0.3127000000000001,-14.002812446064135
-0.3137,-14.175407224647667
-0.3147000000000001,-14.30273124163552
-0.3157,-14.444202371622024
-0.3167000000000001,-14.61396772760583
-0.3177,-14.69885040559773
-0.3187000000000001,-14.783733083589633
-0.3197,-14.925204213576137
-0.3207000000000001,-15.05252823056399
-0.3217,-15.179852247551842
-0.3227000000000001,-15.264734925543747
-0.3237,-15.448647394526201
-0.3247000000000001,-15.618412750510005
-0.3257,-15.78817810649381
-0.3267000000000001,-15.972090575476265
-0.3277,-16.141855931460068
-0.3287000000000001,-16.311621287443874
-0.3297,-16.396503965435777
-0.3307000000000001,-16.580416434418233
-0.3317,-16.70774045140608
-0.3327000000000001,-16.835064468393938
-0.3337,-17.018976937376394
-0.3347000000000001,-17.146300954364243
-0.3357,-17.316066310348052
-0.3367000000000001,-17.48583166633185
-0.3377,-17.669744135314307
-0.3387000000000001,-17.839509491298113
-0.3397,-18.009274847281915
-0.3407000000000001,-18.19318731626437
-0.3417,-18.362952672248177
-0.3427000000000001,-18.53271802823198
-0.3437,-18.674189158218486
-0.3447000000000001,-18.843954514202288
-0.3457,-19.01371987018609
-0.3467000000000001,-19.197632339168546
-0.3477,-19.367397695152352
-0.3487000000000001,-19.636192842126707
-0.3497,-19.805958198110513
-0.3507000000000001,-20.01816489309027
-0.3517,-20.244518701068674
-0.3527000000000001,-20.414284057052477
-0.3537,-20.584049413036283
-0.3547000000000001,-20.72552054302279
-0.3557,-20.89528589900659
-0.35670000000000013,-21.065051254990397
-0.3577,-21.291405062968803
-0.35870000000000013,-21.503611757948562
-0.3597,-21.729965565926964
-0.36070000000000013,-21.98461359990267
-0.3617,-22.15437895588647
-0.3626999999999999,-22.38073276386488
-0.3637,-22.592939458844636
-0.3646999999999999,-22.819293266823045
-0.3657,-23.031499961802798
-0.3666999999999999,-23.24370665678255
-0.3677,-23.427619125765005
-0.3686999999999999,-23.639825820744765
-0.36970000000000003,-23.86617962872317
-0.3706999999999999,-24.078386323702922
-0.37170000000000003,-24.34718147067728
-0.3726999999999999,-24.559388165657033
-0.37370000000000003,-24.771594860636792
-0.3746999999999999,-24.997948668615198
-0.37570000000000003,-25.210155363594954
-0.3766999999999999,-25.43650917157336
-0.37770000000000004,-25.691157205549064
-0.3786999999999999,-25.959952352523427
-0.37970000000000004,-26.21460038649913
-0.3806999999999999,-26.483395533473487
-0.38170000000000004,-26.69560222845324
-0.38269999999999993,-26.9643973754276
-0.38370000000000004,-27.219045409403304
-0.38469999999999993,-27.487840556377662
-0.38570000000000004,-27.700047251357418
-0.38669999999999993,-27.954695285333123
-0.38770000000000004,-28.18104909331153
-0.38869999999999993,-28.435697127287238
-0.38970000000000005,-28.704492274261593
-0.39069999999999994,-29.001581647233255
-0.39170000000000005,-29.27037679420761
-0.39269999999999994,-29.581613280177915
-0.39370000000000005,-29.836261314153624
-0.39469999999999994,-30.10505646112798
-0.39570000000000005,-30.402145834099635
-0.39669999999999994,-30.670940981073993
-0.39770000000000005,-30.925589015049702
-0.39869999999999994,-31.23682550102001
-0.39970000000000006,-31.49147353499572
-0.40069999999999995,-31.802710020966025
-0.40170000000000006,-32.09979939393769
-0.40269999999999995,-32.368594540912035
-0.40370000000000006,-32.66568391388369
-0.40469999999999995,-32.93447906085806
-0.40570000000000006,-33.231568433829715
-0.40669999999999995,-33.54280491980002
-0.40770000000000006,-33.89648274476628
-0.40869999999999995,-34.193572117737936
-0.40970000000000006,-34.50480860370825
-0.41069999999999995,-34.8018979766799
-0.41170000000000007,-35.11313446265021
-0.41269999999999996,-35.42437094862052
-0.41370000000000007,-35.721460321592176
-0.41469999999999996,-36.03269680756248
-0.41570000000000007,-36.329786180534136
-0.41669999999999996,-36.6834640055004
-0.41770000000000007,-36.99470049147071
-0.41869999999999996,-37.334231203438314
-0.4197000000000001,-37.645467689408626
-0.42069999999999996,-37.99914551437489
-0.4217000000000001,-38.38111756533845
-0.42269999999999996,-38.692354051308754
-0.4237000000000001,-38.98944342428042
-0.42469999999999997,-39.30067991025072
-0.4257000000000001,-39.654357735216976
-0.42669999999999997,-39.95144710818864
-0.4277000000000001,-40.30512493315489
-0.42869999999999997,-40.65880275812115
-0.4297000000000001,-40.99833347008877
-0.43069999999999997,-41.39445263405098
-0.4317000000000001,-41.74813045901723
-0.4327,-42.130102509980794
-0.4337000000000001,-42.483780334947056
-0.4347,-42.837458159913304
-0.4357000000000001,-43.23357732387552
-0.4367,-43.57310803584313
-0.4377000000000001,-43.92678586080939
-0.4387,-44.3229050247716
-0.4397000000000001,-44.66243573673921
-0.4407,-45.05855490070142
-0.4417000000000001,-45.45467406466363
-0.4427,-45.85079322862584
-0.4437000000000001,-46.2327652795894
-0.4447,-46.628884443551605
-0.4457000000000001,-47.02500360751382
-0.4467,-47.40697565847737
-0.4477000000000001,-47.80309482243959
-0.4487,-48.1992139864018
-0.4497000000000001,-48.59533315036401
-0.4507,-48.97730520132757
-0.4517000000000001,-49.41586570428573
-0.4527,-49.81198486824794
-0.4537000000000001,-50.2505453712061
-0.4547,-50.64666453516831
-0.4557000000000001,-51.071077925127824
-0.4567,-51.46719708909004
-0.4577000000000001,-51.86331625305225
-0.4587,-52.30187675601041
-0.4597000000000001,-52.74043725896857
-0.4607,-53.16485064892808
-0.4617000000000001,-53.603411151886235
-0.4627,-53.999530315848446
-0.4637000000000001,-54.43809081880661
-0.4647,-54.919092660760725
-0.4657000000000001,-55.357653163718886
-0.4667,-55.7820665536784
-0.4677000000000001,-56.22062705663656
-0.4687,-56.65918755959472
-0.4697000000000001,-57.097748062552874
-0.4707,-57.53630856551105
-0.4717000000000001,-58.017310407465146
-0.4727,-58.45587091042332
-0.4737000000000001,-58.92272563937878
-0.4747,-59.36128614233694
-0.4757000000000001,-59.842287984291055
-0.4767,-60.28084848724921
-0.4777000000000001,-60.761850329203334
-0.4787,-61.242852171157445
-0.4797000000000001,-61.6814126741156
-0.4807,-62.16241451606972
-0.48170000000000013,-62.58682790602922
-0.4827,-63.02538840898739
-0.48370000000000013,-63.5063902509415
-0.4847,-63.98739209289561
-0.48570000000000013,-64.51083527384567
-0.4867,-64.25618723986996
-0.48570000000000013,-62.94050573099548
-0.4847,-61.851178030099405
-0.48370000000000013,-60.93161568518713
-0.4827,-60.11108313126541
-0.48170000000000013,-59.31884480334099
-0.4807,-58.54075358841522
-0.4797000000000001,-57.8333979384827
-0.4787,-57.14018940154883
-0.4777000000000001,-56.489422203610914
-0.4767,-55.881096344668954
-0.4757000000000001,-55.21618203373238
-0.4747,-54.65029751378637
-0.4737000000000001,-54.0419716548444
-0.4727,-53.476087134898386
-0.4717000000000001,-52.91020261495237
-0.4707,-52.30187675601041
-0.4697000000000001,-51.73599223606439
-0.4687,-51.127666377122424
-0.4677000000000001,-50.547634744177756
-0.4667,-49.98175022423175
-0.4657000000000001,-49.41586570428573
-0.4647,-48.84998118433972
-0.4637000000000001,-48.2840966643937
-0.4627,-47.76065348344364
-0.4617000000000001,-47.23721030249357
