Potential V vs RHE, Current mA cm-2
0.013299999999999867,-0.2202705493889862
0.012299999999999978,-1.0490084288499246
0.011299999999999866,-1.6594563547416883
0.010299999999999976,-2.1390434853959355
0.009299999999999864,-2.532333226758415
0.008299999999999974,-2.794054817233447
0.007299999999999862,-3.0119203574126634
0.006299999999999972,-3.1859298472960624
0.00529999999999986,-3.273641947887695
0.0042999999999999705,-3.403795387475278
0.0032999999999998586,-3.4915074880669104
0.0022999999999999687,-3.623075638954359
0.0012999999999998568,-3.7093730282461257
0.00029999999999996696,-3.7532290785419424
-0.000700000000000145,-3.7970851288377587
-0.0017000000000000348,-3.7970851288377587
-0.0027000000000001467,-3.840941179133574
-0.0037000000000000366,-3.840941179133574
-0.0047000000000001485,-3.884797229429391
-0.005700000000000038,-3.927238568425342
-0.00670000000000015,-3.971094618721158
-0.00770000000000004,-3.971094618721158
-0.008700000000000152,-3.971094618721158
-0.009700000000000042,-3.971094618721158
-0.010700000000000154,-3.971094618721158
-0.011700000000000044,-3.971094618721158
-0.012700000000000156,-4.014950669016974
-0.013700000000000045,-4.0588067193127895
-0.014700000000000157,-4.0588067193127895
-0.015700000000000047,-4.0588067193127895
-0.01670000000000016,-4.0588067193127895
-0.01770000000000005,-4.0588067193127895
-0.01870000000000016,-4.0588067193127895
-0.01970000000000005,-4.0588067193127895
-0.020700000000000163,-4.0588067193127895
-0.021700000000000053,-4.102662769608606
-0.022700000000000164,-4.146518819904423
-0.023700000000000054,-4.146518819904423
-0.024700000000000166,-4.146518819904423
-0.025700000000000056,-4.146518819904423
-0.026700000000000168,-4.102662769608606
-0.027700000000000058,-4.146518819904423
-0.02870000000000017,-4.146518819904423
-0.02970000000000006,-4.146518819904423
-0.03070000000000017,-4.1889601589003735
-0.03170000000000006,-4.1889601589003735
-0.03270000000000017,-4.23281620919619
-0.03370000000000006,-4.1889601589003735
-0.034700000000000175,-4.1889601589003735
-0.035700000000000065,-4.1889601589003735
-0.03670000000000018,-4.1889601589003735
-0.03770000000000007,-4.1889601589003735
-0.03870000000000018,-4.1889601589003735
-0.03970000000000007,-4.23281620919619
-0.04070000000000018,-4.276672259492005
-0.04170000000000007,-4.276672259492005
-0.04270000000000018,-4.23281620919619
-0.04370000000000007,-4.23281620919619
-0.044700000000000184,-4.23281620919619
-0.045700000000000074,-4.23281620919619
-0.046700000000000186,-4.23281620919619
-0.047700000000000076,-4.276672259492005
-0.04870000000000019,-4.3205283097878215
-0.04970000000000008,-4.3205283097878215
-0.05070000000000019,-4.276672259492005
-0.05170000000000008,-4.276672259492005
-0.05270000000000019,-4.276672259492005
-0.05370000000000008,-4.276672259492005
-0.05470000000000019,-4.276672259492005
-0.05570000000000008,-4.276672259492005
-0.056700000000000195,-4.3205283097878215
-0.057700000000000085,-4.3205283097878215
-0.058700000000000196,-4.3205283097878215
-0.059700000000000086,-4.3205283097878215
-0.0607000000000002,-4.276672259492005
-0.06170000000000009,-4.3205283097878215
-0.0627000000000002,-4.3205283097878215
-0.06370000000000009,-4.3205283097878215
-0.0647000000000002,-4.364384360083638
-0.06570000000000009,-4.364384360083638
-0.0667000000000002,-4.364384360083638
-0.0677000000000001,-4.364384360083638
-0.0687000000000002,-4.3205283097878215
-0.0697000000000001,-4.3205283097878215
-0.07070000000000021,-4.3205283097878215
-0.0717000000000001,-4.364384360083638
-0.07270000000000021,-4.364384360083638
-0.0737000000000001,-4.406825699079589
-0.07470000000000021,-4.364384360083638
-0.0757000000000001,-4.406825699079589
-0.07670000000000021,-4.364384360083638
-0.0777000000000001,-4.364384360083638
-0.07870000000000021,-4.364384360083638
-0.0797000000000001,-4.364384360083638
-0.08070000000000022,-4.364384360083638
-0.0817000000000001,-4.364384360083638
-0.08270000000000022,-4.406825699079589
-0.08370000000000011,-4.364384360083638
-0.08470000000000022,-4.364384360083638
-0.08570000000000011,-4.364384360083638
-0.08670000000000022,-4.364384360083638
-0.08770000000000011,-4.364384360083638
-0.08870000000000022,-4.364384360083638
-0.08970000000000011,-4.406825699079589
-0.09070000000000022,-4.406825699079589
-0.09170000000000011,-4.406825699079589
-0.09270000000000023,-4.364384360083638
-0.09370000000000012,-4.364384360083638
-0.09470000000000023,-4.364384360083638
-0.09570000000000012,-4.364384360083638
-0.09670000000000023,-4.364384360083638
-0.09770000000000012,-4.406825699079589
-0.09870000000000023,-4.406825699079589
-0.09970000000000012,-4.450681749375406
-0.10070000000000023,-4.406825699079589
-0.10170000000000012,-4.406825699079589
-0.10270000000000024,-4.406825699079589
-0.10370000000000013,-4.364384360083638
-0.10470000000000024,-4.406825699079589
-0.10570000000000013,-4.406825699079589
-0.10670000000000024,-4.406825699079589
-0.10770000000000013,-4.450681749375406
-0.10870000000000024,-4.406825699079589
-0.10970000000000013,-4.406825699079589
-0.11070000000000024,-4.406825699079589
-0.11170000000000013,-4.406825699079589
-0.11270000000000002,-4.406825699079589
-0.11370000000000013,-4.406825699079589
-0.11470000000000002,-4.450681749375406
-0.11570000000000014,-4.450681749375406
-0.11670000000000003,-4.450681749375406
-0.11770000000000014,-4.450681749375406
-0.11870000000000003,-4.406825699079589
-0.11970000000000014,-4.406825699079589
-0.12070000000000003,-4.406825699079589
-0.12170000000000014,-4.406825699079589
-0.12270000000000003,-4.450681749375406
-0.12370000000000014,-4.450681749375406
-0.12470000000000003,-4.494537799671222
-0.12570000000000014,-4.494537799671222
-0.12670000000000003,-4.450681749375406
-0.12770000000000015,-4.450681749375406
-0.12870000000000004,-4.450681749375406
-0.12970000000000015,-4.450681749375406
-0.13070000000000004,-4.494537799671222
-0.13170000000000015,-4.494537799671222
-0.13270000000000004,-4.538393849967037
-0.13370000000000015,-4.494537799671222
-0.13470000000000004,-4.494537799671222
-0.13570000000000015,-4.450681749375406
-0.13670000000000004,-4.494537799671222
-0.13770000000000016,-4.494537799671222
-0.13870000000000005,-4.538393849967037
-0.13970000000000016,-4.538393849967037
-0.14070000000000005,-4.538393849967037
-0.14170000000000016,-4.582249900262854
-0.14270000000000005,-4.538393849967037
-0.14370000000000016,-4.538393849967037
-0.14470000000000005,-4.538393849967037
-0.14570000000000016,-4.538393849967037
-0.14670000000000005,-4.538393849967037
-0.14770000000000016,-4.582249900262854
-0.14870000000000005,-4.626105950558669
-0.14970000000000017,-4.582249900262854
-0.15070000000000006,-4.626105950558669
-0.15170000000000017,-4.582249900262854
-0.15270000000000006,-4.582249900262854
-0.15370000000000017,-4.582249900262854
-0.15470000000000006,-4.582249900262854
-0.15570000000000017,-4.626105950558669
-0.15670000000000006,-4.626105950558669
-0.15770000000000017,-4.668547289554621
-0.15870000000000006,-4.668547289554621
-0.15970000000000018,-4.626105950558669
-0.16070000000000007,-4.668547289554621
-0.16170000000000018,-4.626105950558669
-0.16270000000000007,-4.668547289554621
-0.16370000000000018,-4.668547289554621
-0.16470000000000007,-4.712403339850438
-0.16570000000000018,-4.756259390146253
-0.16670000000000007,-4.712403339850438
-0.16770000000000018,-4.712403339850438
-0.16870000000000007,-4.712403339850438
-0.16970000000000018,-4.712403339850438
-0.17070000000000007,-4.712403339850438
-0.17170000000000019,-4.756259390146253
-0.17270000000000008,-4.800115440442069
-0.1737000000000002,-4.800115440442069
-0.17470000000000008,-4.843971490737885
-0.1757000000000002,-4.843971490737885
-0.17670000000000008,-4.800115440442069
-0.1777000000000002,-4.800115440442069
-0.17870000000000008,-4.843971490737885
-0.1797000000000002,-4.843971490737885
-0.18070000000000008,-4.887827541033701
-0.1817000000000002,-4.9302688800296535
-0.18270000000000008,-4.9302688800296535
-0.1837000000000002,-4.887827541033701
-0.1847000000000001,-4.9302688800296535
-0.1857000000000002,-4.9302688800296535
-0.1867000000000001,-4.9302688800296535
-0.1877000000000002,-4.974124930325469
-0.1887000000000001,-4.974124930325469
-0.1897000000000002,-5.017980980621284
-0.1907000000000001,-5.017980980621284
-0.1917000000000001,-5.0618370309171015
-0.19269999999999998,-5.0618370309171015
-0.1937000000000001,-5.0618370309171015
-0.19469999999999998,-5.0618370309171015
-0.1957000000000001,-5.105693081212917
-0.19669999999999999,-5.105693081212917
-0.1977000000000001,-5.149549131508733
-0.1987,-5.191990470504685
-0.1997000000000001,-5.191990470504685
-0.2007,-5.235846520800501
-0.2017000000000001,-5.191990470504685
-0.2027,-5.235846520800501
-0.2037000000000001,-5.235846520800501
-0.2047,-5.279702571096316
-0.2057000000000001,-5.323558621392133
-0.2067,-5.367414671687949
-0.2077000000000001,-5.367414671687949
-0.2087,-5.411270721983764
-0.2097000000000001,-5.411270721983764
-0.2107,-5.411270721983764
-0.2117000000000001,-5.453712060979717
-0.2127,-5.453712060979717
-0.2137000000000001,-5.497568111275533
-0.2147,-5.5414241615713475
-0.2157000000000001,-5.629136262162981
-0.2167,-5.672992312458796
-0.21770000000000012,-5.672992312458796
-0.2187,-5.672992312458796
-0.21970000000000012,-5.672992312458796
-0.2207,-5.715433651454749
-0.22170000000000012,-5.715433651454749
-0.2227,-5.80314575204638
-0.22370000000000012,-5.847001802342197
-0.2247,-5.847001802342197
-0.22570000000000012,-5.890857852638012
-0.2267,-5.890857852638012
-0.22770000000000012,-5.9347139029338285
-0.22870000000000001,-5.9347139029338285
-0.22970000000000013,-5.977155241929781
-0.23070000000000002,-6.064867342521412
-0.23170000000000013,-6.108723392817228
-0.23270000000000002,-6.152579443113044
-0.23370000000000013,-6.196435493408861
-0.23470000000000002,-6.196435493408861
-0.23570000000000013,-6.238876832404812
-0.23670000000000002,-6.238876832404812
-0.2376999999999999,-6.326588932996443
-0.23870000000000002,-6.37044498329226
-0.2396999999999999,-6.414301033588076
-0.24070000000000003,-6.500598422879844
-0.24169999999999991,-6.500598422879844
-0.24270000000000003,-6.54445447317566
-0.24369999999999992,-6.588310523471475
-0.24470000000000003,-6.632166573767292
-0.24569999999999992,-6.6760226240631075
-0.24670000000000003,-6.719878674358924
-0.24769999999999992,-6.806176063650692
-0.24870000000000003,-6.850032113946507
-0.24969999999999992,-6.893888164242324
-0.25070000000000003,-6.93774421453814
-0.2516999999999999,-6.981600264833956
-0.25270000000000004,-7.067897654125724
-0.2536999999999999,-7.067897654125724
-0.25470000000000004,-7.155609754717355
-0.2556999999999999,-7.243321855308987
-0.25670000000000004,-7.28576319430494
-0.25769999999999993,-7.37347529489657
-0.25870000000000004,-7.37347529489657
-0.25969999999999993,-7.461187395488204
-0.26070000000000004,-7.50504344578402
-0.26169999999999993,-7.591340835075788
-0.26270000000000004,-7.679052935667419
-0.26369999999999993,-7.679052935667419
-0.26470000000000005,-7.809206375255003
-0.26569999999999994,-7.853062425550818
-0.26670000000000005,-7.940774526142452
-0.26769999999999994,-7.984630576438266
-0.26870000000000005,-8.027071915434218
-0.26969999999999994,-8.11478401602585
-0.27070000000000005,-8.202496116617484
-0.27169999999999994,-8.288793505909249
-0.27270000000000005,-8.332649556205066
-0.27369999999999994,-8.4203616567967
-0.27470000000000006,-8.508073757388331
-0.27569999999999995,-8.594371146680096
-0.27670000000000006,-8.638227196975913
-0.27769999999999995,-8.725939297567548
-0.27870000000000006,-8.769795347863363
-0.27969999999999995,-8.899948787450944
-0.28070000000000006,-8.987660888042578
-0.28169999999999995,-9.11781432763016
-0.28270000000000006,-9.161670377925978
-0.28369999999999995,-9.24938247851761
-0.28470000000000006,-9.293238528813426
-0.28569999999999995,-9.379535918105192
-0.28670000000000007,-9.511104068992642
-0.28769999999999996,-9.59740145828441
-0.28870000000000007,-9.728969609171857
-0.28969999999999996,-9.81668170976349
-0.29070000000000007,-9.946835149351072
-0.29169999999999996,-10.034547249942705
-0.29270000000000007,-10.078403300238522
-0.29369999999999996,-10.164700689530287
-0.2947000000000001,-10.296268840417738
-0.29569999999999996,-10.382566229709504
-0.2967000000000001,-10.514134380596953
-0.29769999999999996,-10.644287820184536
-0.2987000000000001,-10.731999920776168
-0.29969999999999997,-10.819712021367803
-0.3007000000000001,-10.949865460955383
-0.30169999999999997,-11.037577561547016
-0.3027000000000001,-11.123874950838783
-0.30369999999999997,-11.255443101726232
-0.3047000000000001,-11.343155202317865
-0.30569999999999997,-11.517164692201263
-0.3067000000000001,-11.647318131788847
-0.3077,-11.778886282676295
-0.3087000000000001,-11.86659838326793
-0.3097,-11.996751822855511
-0.3107000000000001,-12.12831997374296
-0.3117,-12.258473413330542
-0.3127000000000001,-12.390041564217992
-0.3137,-12.520195003805576
-0.3147000000000001,-12.651763154693022
-0.3157,-12.825772644576423
-0.3167000000000001,-12.913484745168056
-0.3177,-13.043638184755638
-0.3187000000000001,-13.175206335643086
-0.3197,-13.349215825526485
-0.3207000000000001,-13.47936926511407
-0.3217,-13.610937416001518
-0.3227000000000001,-13.784946905884919
-0.3237,-13.960371107068182
-0.3247000000000001,-14.090524546655764
-0.3257,-14.26028990263957
-0.3267000000000001,-14.401761032626075
-0.3277,-14.529085049613924
-0.3287000000000001,-14.65640906660178
-0.3297,-14.826174422585586
-0.3307000000000001,-15.05252823056399
-0.3317,-15.222293586547794
-0.3327000000000001,-15.3920589425316
-0.3337,-15.491088733522153
-0.3347000000000001,-15.660854089505953
-0.3357,-15.78817810649381
-0.3367000000000001,-15.972090575476265
-0.3377,-16.141855931460068
-0.3387000000000001,-16.311621287443874
-0.3397,-16.495533756426326
-0.3407000000000001,-16.70774045140608
-0.3417,-16.835064468393938
-0.3427000000000001,-17.018976937376394
-0.3437,-17.188742293360193
-0.3447000000000001,-17.358507649344002
-0.3457,-17.542420118326454
-0.3467000000000001,-17.75462681330621
-0.3477,-17.924392169290012
-0.3487000000000001,-18.15074597726842
-0.3497,-18.320511333252224
-0.3507000000000001,-18.49027668923603
-0.3517,-18.716630497214435
-0.3527000000000001,-18.88639585319824
-0.3537,-19.056161209182044
-0.3547000000000001,-19.28251501716045
-0.3557,-19.49472171214021
-0.35670000000000013,-19.721075520118614
-0.3577,-19.93328221509837
-0.35870000000000013,-20.159636023076775
-0.3597,-20.286960040064624
-0.36070000000000013,-20.499166735044383
-0.3617,-20.76796188201874
-0.3626999999999999,-20.93772723800254
-0.3637,-21.2065223849769
-0.3646999999999999,-21.461170418952605
-0.3657,-21.67337711393236
-0.3666999999999999,-21.94217226090672
-0.3677,-22.111937616890522
-0.3686999999999999,-22.38073276386488
-0.36970000000000003,-22.592939458844636
-0.3706999999999999,-22.819293266823045
-0.37170000000000003,-23.031499961802798
-0.3726999999999999,-23.300295108777156
-0.37370000000000003,-23.55494314275286
-0.3746999999999999,-23.767149837732617
-0.37570000000000003,-24.035944984706973
-0.3766999999999999,-24.24815167968673
-0.37770000000000004,-24.474505487665134
-0.3786999999999999,-24.686712182644893
-0.37970000000000004,-24.997948668615198
-0.3806999999999999,-25.210155363594954
-0.38170000000000004,-25.478950510569312
-0.38269999999999993,-25.77603988354097
-0.38370000000000004,-25.959952352523427
-0.38469999999999993,-26.21460038649913
-0.38570000000000004,-26.483395533473487
-0.38669999999999993,-26.738043567449193
-0.38770000000000004,-27.00683871442355
-0.38869999999999993,-27.261486748399253
-0.38970000000000005,-27.530281895373616
-0.39069999999999994,-27.78492992934932
-0.39170000000000005,-28.05372507632368
-0.39269999999999994,-28.308373110299385
-0.39370000000000005,-28.619609596269694
-0.39469999999999994,-28.8742576302454
-0.39570000000000005,-29.18549411621571
-0.39669999999999994,-29.482583489187363
-0.39770000000000005,-29.751378636161718
-0.39869999999999994,-30.04846800913338
-0.39970000000000006,-30.317263156107735
-0.40069999999999995,-30.614352529079397
-0.40170000000000006,-30.88314767605375
-0.40269999999999995,-31.19438416202406
-0.40370000000000006,-31.49147353499572
-0.40469999999999995,-31.84515135996197
-0.40570000000000006,-32.14224073293363
-0.40669999999999995,-32.45347721890394
-0.40770000000000006,-32.764713704874254
-0.40869999999999995,-33.01936173884996
-0.40970000000000006,-33.330598224820264
-0.41069999999999995,-33.627687597791926
-0.41170000000000007,-33.93892408376223
-0.41269999999999996,-34.278454795729836
-0.41370000000000007,-34.58969128170015
-0.41469999999999996,-34.94336910666641
-0.41570000000000007,-35.240458479638065
-0.41669999999999996,-35.55169496560837
-0.41770000000000007,-35.848784338580025
-0.41869999999999996,-36.20246216354629
-0.4197000000000001,-36.55613998851254
-0.42069999999999996,-36.8532293614842
-0.4217000000000001,-37.206907186450465
-0.42269999999999996,-37.56058501141672
-0.4237000000000001,-37.90011572338433
-0.42469999999999997,-38.253793548350586
-0.4257000000000001,-38.5650300343209
-0.42669999999999997,-38.90456074628851
-0.4277000000000001,-39.21579723225882
-0.42869999999999997,-39.56947505722508
-0.4297000000000001,-39.90900576919269
-0.43069999999999997,-40.26268359415894
-0.4317000000000001,-40.65880275812115
-0.4327,-41.04077480908471
-0.4337000000000001,-41.39445263405098
-0.4347,-41.74813045901723
-0.4357000000000001,-42.087661170984845
-0.4367,-42.483780334947056
-0.4377000000000001,-42.837458159913304
-0.4387,-43.23357732387552
-0.4397000000000001,-43.61554937483908
-0.4407,-44.054109877797245
-0.4417000000000001,-44.45022904175945
-0.4427,-44.80390686672572
-0.4437000000000001,-45.18587891768927
-0.4447,-45.53955674265553
-0.4457000000000001,-45.93567590661774
-0.4467,-46.3176479575813
-0.4477000000000001,-46.713767121543505
-0.4487,-47.15232762450167
-0.4497000000000001,-47.54844678846388
-0.4507,-47.93041883942744
-0.4517000000000001,-48.2840966643937
-0.4527,-48.68021582835591
-0.4537000000000001,-49.076334992318124
-0.4547,-49.458307043281685
-0.4557000000000001,-49.939308885235796
-0.4567,-50.335428049198
-0.4577000000000001,-50.73154721316022
-0.4587,-51.127666377122424
-0.4597000000000001,-51.509638428085985
-0.4607,-51.90575759204819
-0.4617000000000001,-52.30187675601041
-0.4627,-52.69799591997262
-0.4637000000000001,-53.03752663194023
-0.4647,-53.476087134898386
-0.4657000000000001,-53.9570889768525
-0.4667,-54.43809081880661
-0.4677000000000001,-54.961533999756675
-0.4687,-55.442535841710786
-0.4697000000000001,-55.881096344668954
-0.4707,-56.1781857176406
-0.4717000000000001,-56.489422203610914
-0.4727,-56.82895291557852
-0.4737000000000001,-57.30995475753264
-0.4747,-57.93242772947325
-0.4757000000000001,-58.498312249419264
-0.4767,-59.02175543036933
-0.4777000000000001,-59.54519861131939
-0.4787,-59.884729323287
-0.4797000000000001,-60.23840714825326
-0.4807,-60.54964363422357
-0.48170000000000013,-60.93161568518713
-0.4827,-61.455058866137186
-0.48370000000000013,-61.97850204708726
-0.4847,-62.58682790602922
-0.48570000000000013,-63.02538840898739
-0.4867,-62.81318171400764
-0.48570000000000013,-61.49750020513315
-0.4847,-60.45061384323302
-0.48370000000000013,-59.587639950315335
-0.4827,-58.83784296138688
-0.48170000000000013,-58.14463442445301
-0.4807,-57.53630856551105
-0.4797000000000001,-56.97042404556503
-0.4787,-56.36209818662306
-0.4777000000000001,-55.73962521468245
-0.4767,-55.13129935574048
-0.4757000000000001,-54.52297349679851
-0.4747,-53.9570889768525
-0.4737000000000001,-53.348763117910536
-0.4727,-52.78287859796452
-0.4717000000000001,-52.17455273902255
-0.4707,-51.69355089706845
-0.4697000000000001,-51.17010771611838
-0.4687,-50.64666453516831
-0.4677000000000001,-50.1656626932142
-0.4667,-49.642219512264134
-0.4657000000000001,-49.076334992318124
-0.4647,-48.45386202037751
-0.4637000000000001,-47.84553616143554
-0.4627,-47.32209298048547
-0.4617000000000001,-46.79864979953541
