Potential V vs RHE, Current mA cm-2
0.013299999999999867,0.2594580523952477
0.012299999999999978,-0.6564260431373771
0.011299999999999866,-1.3543031273607997
0.010299999999999976,-2.052746096104168
0.009299999999999864,-2.706342716641815
0.008299999999999974,-3.403795387475278
0.007299999999999862,-4.0588067193127895
0.006299999999999972,-4.712403339850438
0.00529999999999986,-5.191990470504685
0.0042999999999999705,-5.629136262162981
0.0032999999999998586,-5.977155241929781
0.0022999999999999687,-6.282732882700628
0.0012999999999998568,-6.6760226240631075
0.00029999999999996696,-7.067897654125724
-0.000700000000000145,-7.5474847847799715
-0.0017000000000000348,-7.984630576438266
-0.0027000000000001467,-8.332649556205066
-0.0037000000000000366,-8.638227196975913
-0.0047000000000001485,-8.85609273715513
-0.005700000000000038,-8.987660888042578
-0.00670000000000015,-9.24938247851761
-0.00770000000000004,-9.511104068992642
-0.008700000000000152,-9.81668170976349
-0.009700000000000042,-10.164700689530287
-0.010700000000000154,-10.470278330301136
-0.011700000000000044,-10.688143870480351
-0.012700000000000156,-10.775855971071984
-0.013700000000000045,-10.906009410659568
-0.014700000000000157,-11.037577561547016
-0.015700000000000047,-11.255443101726232
-0.01670000000000016,-11.473308641905447
-0.01770000000000005,-11.778886282676295
-0.01870000000000016,-11.996751822855511
-0.01970000000000005,-12.170761312738911
-0.020700000000000163,-12.214617363034726
-0.021700000000000053,-12.258473413330542
-0.022700000000000164,-12.346185513922174
-0.023700000000000054,-12.476338953509758
-0.024700000000000166,-12.651763154693022
-0.025700000000000056,-12.869628694872238
-0.026700000000000168,-13.043638184755638
-0.027700000000000058,-13.217647674639037
-0.02870000000000017,-13.261503724934855
-0.02970000000000006,-13.261503724934855
-0.03070000000000017,-13.261503724934855
-0.03170000000000006,-13.30535977523067
-0.03270000000000017,-13.436927926118118
-0.03370000000000006,-13.567081365705702
-0.034700000000000175,-13.698649516593148
-0.035700000000000065,-13.828802956180734
-0.03670000000000018,-13.872659006476551
-0.03770000000000007,-13.872659006476551
-0.03870000000000018,-13.828802956180734
-0.03970000000000007,-13.828802956180734
-0.04070000000000018,-13.916515056772363
-0.04170000000000007,-14.002812446064135
-0.04270000000000018,-14.175407224647667
-0.04370000000000007,-14.30273124163552
-0.044700000000000184,-14.345172580631472
-0.045700000000000074,-14.345172580631472
-0.046700000000000186,-14.30273124163552
-0.047700000000000076,-14.26028990263957
-0.04870000000000019,-14.26028990263957
-0.04970000000000008,-14.345172580631472
-0.05070000000000019,-14.444202371622024
-0.05170000000000008,-14.57152638860988
-0.05270000000000019,-14.61396772760583
-0.05370000000000008,-14.57152638860988
-0.05470000000000019,-14.529085049613924
-0.05570000000000008,-14.444202371622024
-0.056700000000000195,-14.444202371622024
-0.057700000000000085,-14.486643710617974
-0.058700000000000196,-14.57152638860988
-0.059700000000000086,-14.65640906660178
-0.0607000000000002,-14.741291744593681
-0.06170000000000009,-14.69885040559773
-0.0627000000000002,-14.65640906660178
-0.06370000000000009,-14.57152638860988
-0.0647000000000002,-14.529085049613924
-0.06570000000000009,-14.57152638860988
-0.0667000000000002,-14.65640906660178
-0.0677000000000001,-14.741291744593681
-0.0687000000000002,-14.826174422585586
-0.0697000000000001,-14.826174422585586
-0.07070000000000021,-14.741291744593681
-0.0717000000000001,-14.65640906660178
-0.07270000000000021,-14.61396772760583
-0.0737000000000001,-14.57152638860988
-0.07470000000000021,-14.65640906660178
-0.0757000000000001,-14.783733083589633
-0.07670000000000021,-14.868615761581536
-0.0777000000000001,-14.925204213576137
-0.07870000000000021,-14.868615761581536
-0.0797000000000001,-14.826174422585586
-0.08070000000000022,-14.69885040559773
-0.0817000000000001,-14.65640906660178
-0.08270000000000022,-14.61396772760583
-0.08370000000000011,-14.65640906660178
-0.08470000000000022,-14.69885040559773
-0.08570000000000011,-14.69885040559773
-0.08670000000000022,-14.61396772760583
-0.08770000000000011,-14.486643710617974
-0.08870000000000022,-14.345172580631472
-0.08970000000000011,-14.26028990263957
-0.09070000000000022,-14.217848563643619
-0.09170000000000011,-14.217848563643619
-0.09270000000000023,-14.30273124163552
-0.09370000000000012,-14.345172580631472
-0.09470000000000023,-14.30273124163552
-0.09570000000000012,-14.217848563643619
-0.09670000000000023,-14.13438059695158
-0.09770000000000012,-14.090524546655764
-0.09870000000000023,-14.090524546655764
-0.09970000000000012,-14.175407224647667
-0.10070000000000023,-14.30273124163552
-0.10170000000000012,-14.345172580631472
-0.10270000000000024,-14.30273124163552
-0.10370000000000013,-14.217848563643619
-0.10470000000000024,-14.046668496359947
-0.10570000000000013,-13.916515056772363
-0.10670000000000024,-13.784946905884919
-0.10770000000000013,-13.784946905884919
-0.10870000000000024,-13.872659006476551
-0.10970000000000013,-13.916515056772363
-0.11070000000000024,-13.960371107068182
-0.11170000000000013,-13.916515056772363
-0.11270000000000002,-13.784946905884919
-0.11370000000000013,-13.698649516593148
-0.11470000000000002,-13.654793466297335
-0.11570000000000014,-13.698649516593148
-0.11670000000000003,-13.741090855589102
-0.11770000000000014,-13.872659006476551
-0.11870000000000003,-13.916515056772363
-0.11970000000000014,-13.916515056772363
-0.12070000000000003,-13.828802956180734
-0.12170000000000014,-13.698649516593148
-0.12270000000000003,-13.610937416001518
-0.12370000000000014,-13.567081365705702
-0.12470000000000003,-13.567081365705702
-0.12570000000000014,-13.610937416001518
-0.12670000000000003,-13.654793466297335
-0.12770000000000015,-13.654793466297335
-0.12870000000000004,-13.610937416001518
-0.12970000000000015,-13.47936926511407
-0.13070000000000004,-13.3930718758223
-0.13170000000000015,-13.30535977523067
-0.13270000000000004,-13.30535977523067
-0.13370000000000015,-13.349215825526485
-0.13470000000000004,-13.436927926118118
-0.13570000000000015,-13.436927926118118
-0.13670000000000004,-13.436927926118118
-0.13770000000000016,-13.349215825526485
-0.13870000000000005,-13.217647674639037
-0.13970000000000016,-13.13135028534727
-0.14070000000000005,-13.13135028534727
-0.14170000000000016,-13.13135028534727
-0.14270000000000005,-13.217647674639037
-0.14370000000000016,-13.261503724934855
-0.14470000000000005,-13.261503724934855
-0.14570000000000016,-13.175206335643086
-0.14670000000000005,-13.043638184755638
-0.14770000000000016,-12.99978213445982
-0.14870000000000005,-12.955926084164007
-0.14970000000000017,-12.99978213445982
-0.15070000000000006,-13.043638184755638
-0.15170000000000017,-13.13135028534727
-0.15270000000000006,-13.175206335643086
-0.15370000000000017,-13.087494235051453
-0.15470000000000006,-12.99978213445982
-0.15570000000000017,-12.913484745168056
-0.15670000000000006,-12.825772644576423
-0.15770000000000017,-12.869628694872238
-0.15870000000000006,-12.913484745168056
-0.15970000000000018,-12.99978213445982
-0.16070000000000007,-13.043638184755638
-0.16170000000000018,-12.99978213445982
-0.16270000000000007,-12.913484745168056
-0.16370000000000018,-12.825772644576423
-0.16470000000000007,-12.781916594280606
-0.16570000000000018,-12.781916594280606
-0.16670000000000007,-12.869628694872238
-0.16770000000000018,-12.955926084164007
-0.16870000000000007,-13.043638184755638
-0.16970000000000018,-13.043638184755638
-0.17070000000000007,-12.99978213445982
-0.17170000000000019,-12.955926084164007
-0.17270000000000008,-12.869628694872238
-0.1737000000000002,-12.869628694872238
-0.17470000000000008,-12.913484745168056
-0.1757000000000002,-12.99978213445982
-0.17670000000000008,-13.043638184755638
-0.1777000000000002,-13.13135028534727
-0.17870000000000008,-13.13135028534727
-0.1797000000000002,-13.175206335643086
-0.18070000000000008,-13.087494235051453
-0.1817000000000002,-13.043638184755638
-0.18270000000000008,-13.087494235051453
-0.1837000000000002,-13.13135028534727
-0.1847000000000001,-13.175206335643086
-0.1857000000000002,-13.175206335643086
-0.1867000000000001,-13.087494235051453
-0.1877000000000002,-12.99978213445982
-0.1887000000000001,-12.869628694872238
-0.1897000000000002,-12.869628694872238
-0.1907000000000001,-12.913484745168056
-0.1917000000000001,-13.043638184755638
-0.19269999999999998,-13.13135028534727
-0.1937000000000001,-13.175206335643086
-0.19469999999999998,-13.175206335643086
-0.1957000000000001,-13.087494235051453
-0.19669999999999999,-12.99978213445982
-0.1977000000000001,-12.913484745168056
-0.1987,-12.955926084164007
-0.1997000000000001,-13.043638184755638
-0.2007,-13.13135028534727
-0.2017000000000001,-13.261503724934855
-0.2027,-13.30535977523067
-0.2037000000000001,-13.30535977523067
-0.2047,-13.261503724934855
-0.2057000000000001,-13.217647674639037
-0.2067,-13.217647674639037
-0.2077000000000001,-13.261503724934855
-0.2087,-13.349215825526485
-0.2097000000000001,-13.436927926118118
-0.2107,-13.47936926511407
-0.2117000000000001,-13.436927926118118
-0.2127,-13.349215825526485
-0.2137000000000001,-13.261503724934855
-0.2147,-13.217647674639037
-0.2157000000000001,-13.30535977523067
-0.2167,-13.3930718758223
-0.21770000000000012,-13.523225315409885
-0.2187,-13.610937416001518
-0.21970000000000012,-13.654793466297335
-0.2207,-13.610937416001518
-0.22170000000000012,-13.523225315409885
-0.2227,-13.47936926511407
-0.22370000000000012,-13.47936926511407
-0.2247,-13.523225315409885
-0.22570000000000012,-13.654793466297335
-0.2267,-13.741090855589102
-0.22770000000000012,-13.784946905884919
-0.22870000000000001,-13.698649516593148
-0.22970000000000013,-13.610937416001518
-0.23070000000000002,-13.47936926511407
-0.23170000000000013,-13.47936926511407
-0.23270000000000002,-13.523225315409885
-0.23370000000000013,-13.654793466297335
-0.23470000000000002,-13.784946905884919
-0.23570000000000013,-13.872659006476551
-0.23670000000000002,-13.872659006476551
-0.2376999999999999,-13.828802956180734
-0.23870000000000002,-13.698649516593148
-0.2396999999999999,-13.654793466297335
-0.24070000000000003,-13.654793466297335
-0.24169999999999991,-13.784946905884919
-0.24270000000000003,-13.916515056772363
-0.24369999999999992,-14.002812446064135
-0.24470000000000003,-14.046668496359947
-0.24569999999999992,-14.002812446064135
-0.24670000000000003,-13.960371107068182
-0.24769999999999992,-13.916515056772363
-0.24870000000000003,-13.916515056772363
-0.24969999999999992,-14.002812446064135
-0.25070000000000003,-14.175407224647667
-0.2516999999999999,-14.26028990263957
-0.25270000000000004,-14.30273124163552
-0.2536999999999999,-14.26028990263957
-0.25470000000000004,-14.175407224647667
-0.2556999999999999,-14.046668496359947
-0.25670000000000004,-14.046668496359947
-0.25769999999999993,-14.046668496359947
-0.25870000000000004,-14.13438059695158
-0.25969999999999993,-14.217848563643619
-0.26070000000000004,-14.345172580631472
-0.26169999999999993,-14.345172580631472
-0.26270000000000004,-14.345172580631472
-0.26369999999999993,-14.30273124163552
-0.26470000000000005,-14.345172580631472
-0.26569999999999994,-14.444202371622024
-0.26670000000000005,-14.57152638860988
-0.26769999999999994,-14.741291744593681
-0.26870000000000005,-14.868615761581536
-0.26969999999999994,-14.925204213576137
-0.27070000000000005,-14.868615761581536
-0.27169999999999994,-14.783733083589633
-0.27270000000000005,-14.741291744593681
-0.27369999999999994,-14.69885040559773
-0.27470000000000006,-14.741291744593681
-0.27569999999999995,-14.826174422585586
-0.27670000000000006,-14.868615761581536
-0.27769999999999995,-14.967645552572087
-0.27870000000000006,-14.925204213576137
-0.27969999999999995,-14.868615761581536
-0.28070000000000006,-14.741291744593681
-0.28169999999999995,-14.741291744593681
-0.28270000000000006,-14.783733083589633
-0.28369999999999995,-14.868615761581536
-0.28470000000000006,-15.01008689156804
-0.28569999999999995,-15.094969569559943
-0.28670000000000007,-15.137410908555893
-0.28769999999999996,-15.137410908555893
-0.28870000000000007,-15.094969569559943
-0.28969999999999996,-15.137410908555893
-0.29070000000000007,-15.222293586547794
-0.29169999999999996,-15.349617603535648
-0.29270000000000007,-15.448647394526201
-0.29369999999999996,-15.575971411514052
-0.2947000000000001,-15.575971411514052
-0.29569999999999996,-15.533530072518102
-0.2967000000000001,-15.491088733522153
-0.29769999999999996,-15.533530072518102
-0.2987000000000001,-15.575971411514052
-0.29969999999999997,-15.74573676749786
-0.3007000000000001,-15.91550212348166
-0.30169999999999997,-16.056973253468165
-0.3027000000000001,-16.184297270456018
-0.30369999999999997,-16.22673860945197
-0.3047000000000001,-16.22673860945197
-0.30569999999999997,-16.22673860945197
-0.3067000000000001,-16.22673860945197
-0.3077,-16.311621287443874
-0.3087000000000001,-16.495533756426326
-0.3097,-16.622857773414182
-0.3107000000000001,-16.792623129397985
-0.3117,-16.835064468393938
-0.3127000000000001,-16.877505807389888
-0.3137,-16.877505807389888
-0.3147000000000001,-16.962388485381787
-0.3157,-17.061418276372343
-0.3167000000000001,-17.231183632356142
-0.3177,-17.4433903273359
-0.3187000000000001,-17.627302796318357
-0.3197,-17.75462681330621
-0.3207000000000001,-17.797068152302163
-0.3217,-17.839509491298113
-0.3227000000000001,-17.839509491298113
-0.3237,-17.881950830294063
-0.3247000000000001,-18.06586329927652
-0.3257,-18.27806999425627
-0.3267000000000001,-18.49027668923603
-0.3277,-18.674189158218486
-0.3287000000000001,-18.80151317520634
-0.3297,-18.88639585319824
-0.3307000000000001,-18.88639585319824
-0.3317,-18.97127853119014
-0.3327000000000001,-19.056161209182044
-0.3337,-19.2400736781645
-0.3347000000000001,-19.452280373144255
-0.3357,-19.678634181122664
-0.3367000000000001,-19.848399537106463
-0.3377,-19.97572355409432
-0.3387000000000001,-20.01816489309027
-0.3397,-20.159636023076775
-0.3407000000000001,-20.286960040064624
-0.3417,-20.541608074040333
-0.3427000000000001,-20.810403221014692
-0.3437,-21.022609915994444
-0.3447000000000001,-21.2065223849769
-0.3457,-21.333846401964752
-0.3467000000000001,-21.418729079956652
-0.3477,-21.58849443594046
-0.3487000000000001,-21.772406904922917
-0.3497,-22.069496277894572
-0.3507000000000001,-22.38073276386488
-0.3517,-22.63538079784059
-0.3527000000000001,-22.904175944814945
-0.3537,-23.073941300798747
-0.3547000000000001,-23.24370665678255
-0.3557,-23.385177786769056
-0.35670000000000013,-23.639825820744765
-0.3577,-23.951062306715073
-0.35870000000000013,-24.34718147067728
-0.3597,-24.729153521640843
-0.36070000000000013,-25.04039000761115
-0.3617,-25.252596702590903
-0.3626999999999999,-25.39406783257741
-0.3637,-25.521391849565262
-0.3646999999999999,-25.691157205549064
-0.3657,-25.91751101352747
-0.3666999999999999,-26.34192440348698
-0.3677,-26.780484906445146
-0.3686999999999999,-27.261486748399253
-0.36970000000000003,-27.700047251357418
-0.3706999999999999,-28.05372507632368
-0.37170000000000003,-28.393255788291288
-0.3726999999999999,-28.704492274261593
-0.37370000000000003,-29.058170099227848
-0.3746999999999999,-29.525024828183312
-0.37570000000000003,-30.04846800913338
-0.3766999999999999,-30.571911190083444
-0.37770000000000004,-31.095354371033505
-0.3786999999999999,-31.57635621298762
-0.37970000000000004,-32.05735805494172
-0.3806999999999999,-32.53835989689585
-0.38170000000000004,-33.10424441684186
-0.38269999999999993,-33.85404140577033
-0.38370000000000004,-34.717015298688004
-0.38469999999999993,-35.636577643600276
-0.38570000000000004,-36.55613998851254
-0.38669999999999993,-36.6834640055004
-0.38570000000000004,-35.594136304604326
-0.38469999999999993,-34.8018979766799
-0.38370000000000004,-34.193572117737936
-0.38269999999999993,-33.85404140577033
-0.38170000000000004,-33.712570275783825
-0.3806999999999999,-33.712570275783825
-0.37970000000000004,-33.755011614779775
-0.3786999999999999,-33.85404140577033
-0.37770000000000004,-33.89648274476628
-0.3766999999999999,-33.89648274476628
-0.37570000000000003,-33.89648274476628
-0.3746999999999999,-33.93892408376223
-0.37370000000000003,-34.10868943974604
-0.3726999999999999,-34.33504324772444
-0.37170000000000003,-34.50480860370825
-0.3706999999999999,-34.67457395969205
-0.36970000000000003,-34.717015298688004
-0.3686999999999999,-34.67457395969205
-0.3677,-34.632132620696105
-0.3666999999999999,-34.58969128170015
-0.3657,-34.632132620696105
-0.3646999999999999,-34.75945663768395
-0.3637,-34.85848642867451
-0.3626999999999999,-34.90092776767045
-0.3617,-34.85848642867451
-0.36070000000000013,-34.75945663768395
-0.3597,-34.632132620696105
-0.35870000000000013,-34.5472499427042
-0.3577,-34.462367264712285
-0.35670000000000013,-34.462367264712285
-0.3557,-34.41992592571634
-0.3547000000000001,-34.33504324772444
-0.3537,-34.193572117737936
-0.3527000000000001,-33.93892408376223
-0.3517,-33.627687597791926
-0.3507000000000001,-33.373039563816214
-0.3497,-33.14668575583781
-0.3487000000000001,-32.97692039985401
-0.3477,-32.84959638286615
-0.3467000000000001,-32.70812525287965
-0.3457,-32.53835989689585
-0.3447000000000001,-32.283711862920136
-0.3437,-31.930034037953877
-0.3427000000000001,-31.57635621298762
-0.3417,-31.27926684001596
-0.3407000000000001,-31.010471693041605
-0.3397,-30.8407063370578
-0.3387000000000001,-30.670940981073993
-0.3377,-30.444587173095588
-0.3367000000000001,-30.10505646112798
-0.3357,-29.751378636161718
-0.3347000000000001,-29.35525947219951
-0.3337,-29.001581647233255
-0.3327000000000001,-28.704492274261593
-0.3317,-28.435697127287238
-0.3307000000000001,-28.22349043230748
-0.3297,-27.912253946337174
-0.3287000000000001,-27.615164573365515
-0.3277,-27.261486748399253
-0.3267000000000001,-26.86536758443705
-0.3257,-26.525836872469437
-0.3247000000000001,-26.17215904750318
-0.3237,-25.91751101352747
-0.3227000000000001,-25.648715866553115
-0.3217,-25.39406783257741
-0.3207000000000001,-25.12527268560305
-0.3197,-24.771594860636792
-0.3187000000000001,-24.389622809673234
-0.3177,-23.951062306715073
-0.3167000000000001,-23.55494314275286
-0.3157,-23.2012653177866
-0.3147000000000001,-22.946617283810895
-0.3137,-22.63538079784059
-0.3127000000000001,-22.33829142486893
-0.3117,-21.98461359990267
-0.3107000000000001,-21.54605309694451
-0.3097,-21.022609915994444
-0.3087000000000001,-20.541608074040333
-0.3077,-20.159636023076775
-0.3067000000000001,-19.805958198110513
-0.30569999999999997,-19.452280373144255
-0.3047000000000001,-19.112749661176647
-0.30369999999999997,-18.759071836210385
-0.3027000000000001,-18.320511333252224
-0.30169999999999997,-17.881950830294063
-0.3007000000000001,-17.40094898833995
-0.29969999999999997,-17.018976937376394
-0.2987000000000001,-16.665299112410132
-0.29769999999999996,-16.354062626439823
-0.2967000000000001,-16.056973253468165
-0.29569999999999996,-15.70329542850191
-0.2947000000000001,-15.264734925543747
-0.29369999999999996,-14.826174422585586
-0.29270000000000007,-14.345172580631472
-0.29169999999999996,-13.916515056772363
-0.29070000000000007,-13.610937416001518
-0.28969999999999996,-13.349215825526485
-0.28870000000000007,-13.13135028534727
-0.28769999999999996,-12.869628694872238
-0.28670000000000007,-12.520195003805576
-0.28569999999999995,-12.084463923447142
-0.28470000000000006,-11.604876792792895
-0.28369999999999995,-11.123874950838783
-0.28270000000000006,-10.731999920776168
-0.28169999999999995,-10.42642228000532
-0.28070000000000006,-10.120844639234473
-0.27969999999999995,-9.81668170976349
-0.27870000000000006,-9.467248018696827
-0.27769999999999995,-9.073958277334345
-0.27670000000000006,-8.594371146680096
-0.27569999999999995,-8.158640066321666
-0.27470000000000006,-7.809206375255003
-0.27369999999999994,-7.50504344578402
-0.27270000000000005,-7.199465805013171
-0.27169999999999994,-6.93774421453814
-0.27070000000000005,-6.632166573767292
-0.26969999999999994,-6.282732882700628
