Potential V vs RHE, Current mA cm-2
0.013299999999999867,-0.3947044526623452
0.012299999999999978,-1.3107300193249565
0.011299999999999866,-1.7910245056291363
0.010299999999999976,-2.1390434853959355
0.009299999999999864,-2.4007650758709675
0.008299999999999974,-2.618630616050183
0.007299999999999862,-2.794054817233447
0.006299999999999972,-2.924208256821031
0.00529999999999986,-3.0119203574126634
0.0042999999999999705,-3.0996324580042955
0.0032999999999998586,-3.1859298472960624
0.0022999999999999687,-3.273641947887695
0.0012999999999998568,-3.361354048479327
0.00029999999999996696,-3.447651437771094
-0.000700000000000145,-3.5353635383627267
-0.0017000000000000348,-3.579219588658543
-0.0027000000000001467,-3.623075638954359
-0.0037000000000000366,-3.7093730282461257
-0.0047000000000001485,-3.7970851288377587
-0.005700000000000038,-3.884797229429391
-0.00670000000000015,-3.927238568425342
-0.00770000000000004,-3.971094618721158
-0.008700000000000152,-4.014950669016974
-0.009700000000000042,-4.014950669016974
-0.010700000000000154,-4.0588067193127895
-0.011700000000000044,-4.146518819904423
-0.012700000000000156,-4.1889601589003735
-0.013700000000000045,-4.1889601589003735
-0.014700000000000157,-4.23281620919619
-0.015700000000000047,-4.23281620919619
-0.01670000000000016,-4.276672259492005
-0.01770000000000005,-4.3205283097878215
-0.01870000000000016,-4.406825699079589
-0.01970000000000005,-4.494537799671222
-0.020700000000000163,-4.538393849967037
-0.021700000000000053,-4.582249900262854
-0.022700000000000164,-4.582249900262854
-0.023700000000000054,-4.626105950558669
-0.024700000000000166,-4.668547289554621
-0.025700000000000056,-4.712403339850438
-0.026700000000000168,-4.756259390146253
-0.027700000000000058,-4.756259390146253
-0.02870000000000017,-4.756259390146253
-0.02970000000000006,-4.756259390146253
-0.03070000000000017,-4.756259390146253
-0.03170000000000006,-4.800115440442069
-0.03270000000000017,-4.843971490737885
-0.03370000000000006,-4.887827541033701
-0.034700000000000175,-4.887827541033701
-0.035700000000000065,-4.9302688800296535
-0.03670000000000018,-4.974124930325469
-0.03770000000000007,-5.017980980621284
-0.03870000000000018,-5.0618370309171015
-0.03970000000000007,-5.105693081212917
-0.04070000000000018,-5.105693081212917
-0.04170000000000007,-5.105693081212917
-0.04270000000000018,-5.0618370309171015
-0.04370000000000007,-5.0618370309171015
-0.044700000000000184,-5.0618370309171015
-0.045700000000000074,-5.105693081212917
-0.046700000000000186,-5.105693081212917
-0.047700000000000076,-5.017980980621284
-0.04870000000000019,-5.017980980621284
-0.04970000000000008,-4.9302688800296535
-0.05070000000000019,-4.887827541033701
-0.05170000000000008,-4.9302688800296535
-0.05270000000000019,-4.974124930325469
-0.05370000000000008,-5.105693081212917
-0.05470000000000019,-5.149549131508733
-0.05570000000000008,-5.235846520800501
-0.056700000000000195,-5.279702571096316
-0.057700000000000085,-5.323558621392133
-0.058700000000000196,-5.323558621392133
-0.059700000000000086,-5.323558621392133
-0.0607000000000002,-5.279702571096316
-0.06170000000000009,-5.191990470504685
-0.0627000000000002,-5.149549131508733
-0.06370000000000009,-5.0618370309171015
-0.0647000000000002,-5.0618370309171015
-0.06570000000000009,-5.105693081212917
-0.0667000000000002,-5.105693081212917
-0.0677000000000001,-5.0618370309171015
-0.0687000000000002,-5.0618370309171015
-0.0697000000000001,-5.0618370309171015
-0.07070000000000021,-5.0618370309171015
-0.0717000000000001,-5.105693081212917
-0.07270000000000021,-5.105693081212917
-0.0737000000000001,-5.105693081212917
-0.07470000000000021,-5.105693081212917
-0.0757000000000001,-5.0618370309171015
-0.07670000000000021,-4.974124930325469
-0.0777000000000001,-4.974124930325469
-0.07870000000000021,-4.9302688800296535
-0.0797000000000001,-4.9302688800296535
-0.08070000000000022,-4.9302688800296535
-0.0817000000000001,-4.887827541033701
-0.08270000000000022,-4.843971490737885
-0.08370000000000011,-4.800115440442069
-0.08470000000000022,-4.800115440442069
-0.08570000000000011,-4.800115440442069
-0.08670000000000022,-4.800115440442069
-0.08770000000000011,-4.800115440442069
-0.08870000000000022,-4.756259390146253
-0.08970000000000011,-4.712403339850438
-0.09070000000000022,-4.712403339850438
-0.09170000000000011,-4.712403339850438
-0.09270000000000023,-4.712403339850438
-0.09370000000000012,-4.712403339850438
-0.09470000000000023,-4.668547289554621
-0.09570000000000012,-4.582249900262854
-0.09670000000000023,-4.538393849967037
-0.09770000000000012,-4.538393849967037
-0.09870000000000023,-4.494537799671222
-0.09970000000000012,-4.538393849967037
-0.10070000000000023,-4.494537799671222
-0.10170000000000012,-4.494537799671222
-0.10270000000000024,-4.494537799671222
-0.10370000000000013,-4.450681749375406
-0.10470000000000024,-4.494537799671222
-0.10570000000000013,-4.494537799671222
-0.10670000000000024,-4.494537799671222
-0.10770000000000013,-4.450681749375406
-0.10870000000000024,-4.406825699079589
-0.10970000000000013,-4.364384360083638
-0.11070000000000024,-4.364384360083638
-0.11170000000000013,-4.364384360083638
-0.11270000000000002,-4.364384360083638
-0.11370000000000013,-4.364384360083638
-0.11470000000000002,-4.3205283097878215
-0.11570000000000014,-4.3205283097878215
-0.11670000000000003,-4.276672259492005
-0.11770000000000014,-4.276672259492005
-0.11870000000000003,-4.276672259492005
-0.11970000000000014,-4.3205283097878215
-0.12070000000000003,-4.276672259492005
-0.12170000000000014,-4.276672259492005
-0.12270000000000003,-4.1889601589003735
-0.12370000000000014,-4.1889601589003735
-0.12470000000000003,-4.146518819904423
-0.12570000000000014,-4.146518819904423
-0.12670000000000003,-4.146518819904423
-0.12770000000000015,-4.146518819904423
-0.12870000000000004,-4.146518819904423
-0.12970000000000015,-4.102662769608606
-0.13070000000000004,-4.102662769608606
-0.13170000000000015,-4.102662769608606
-0.13270000000000004,-4.102662769608606
-0.13370000000000015,-4.146518819904423
-0.13470000000000004,-4.102662769608606
-0.13570000000000015,-4.0588067193127895
-0.13670000000000004,-4.0588067193127895
-0.13770000000000016,-4.014950669016974
-0.13870000000000005,-4.0588067193127895
-0.13970000000000016,-4.014950669016974
-0.14070000000000005,-4.014950669016974
-0.14170000000000016,-3.971094618721158
-0.14270000000000005,-3.927238568425342
-0.14370000000000016,-3.927238568425342
-0.14470000000000005,-3.927238568425342
-0.14570000000000016,-3.927238568425342
-0.14670000000000005,-3.971094618721158
-0.14770000000000016,-3.971094618721158
-0.14870000000000005,-3.927238568425342
-0.14970000000000017,-3.884797229429391
-0.15070000000000006,-3.927238568425342
-0.15170000000000017,-3.884797229429391
-0.15270000000000006,-3.927238568425342
-0.15370000000000017,-3.884797229429391
-0.15470000000000006,-3.840941179133574
-0.15570000000000017,-3.840941179133574
-0.15670000000000006,-3.7970851288377587
-0.15770000000000017,-3.7970851288377587
-0.15870000000000006,-3.7970851288377587
-0.15970000000000018,-3.7970851288377587
-0.16070000000000007,-3.7970851288377587
-0.16170000000000018,-3.7532290785419424
-0.16270000000000007,-3.7093730282461257
-0.16370000000000018,-3.7532290785419424
-0.16470000000000007,-3.7532290785419424
-0.16570000000000018,-3.7532290785419424
-0.16670000000000007,-3.7532290785419424
-0.16770000000000018,-3.7532290785419424
-0.16870000000000007,-3.7093730282461257
-0.16970000000000018,-3.7093730282461257
-0.17070000000000007,-3.7093730282461257
-0.17170000000000019,-3.7093730282461257
-0.17270000000000008,-3.7093730282461257
-0.1737000000000002,-3.7093730282461257
-0.17470000000000008,-3.6655169779503103
-0.1757000000000002,-3.623075638954359
-0.17670000000000008,-3.623075638954359
-0.1777000000000002,-3.623075638954359
-0.17870000000000008,-3.623075638954359
-0.1797000000000002,-3.623075638954359
-0.18070000000000008,-3.623075638954359
-0.1817000000000002,-3.623075638954359
-0.18270000000000008,-3.579219588658543
-0.1837000000000002,-3.579219588658543
-0.1847000000000001,-3.579219588658543
-0.1857000000000002,-3.623075638954359
-0.1867000000000001,-3.623075638954359
-0.1877000000000002,-3.623075638954359
-0.1887000000000001,-3.579219588658543
-0.1897000000000002,-3.5353635383627267
-0.1907000000000001,-3.5353635383627267
-0.1917000000000001,-3.4915074880669104
-0.19269999999999998,-3.5353635383627267
-0.1937000000000001,-3.4915074880669104
-0.19469999999999998,-3.4915074880669104
-0.1957000000000001,-3.447651437771094
-0.19669999999999999,-3.447651437771094
-0.1977000000000001,-3.447651437771094
-0.1987,-3.447651437771094
-0.1997000000000001,-3.4915074880669104
-0.2007,-3.4915074880669104
-0.2017000000000001,-3.4915074880669104
-0.2027,-3.447651437771094
-0.2037000000000001,-3.447651437771094
-0.2047,-3.447651437771094
-0.2057000000000001,-3.447651437771094
-0.2067,-3.447651437771094
-0.2077000000000001,-3.403795387475278
-0.2087,-3.403795387475278
-0.2097000000000001,-3.361354048479327
-0.2107,-3.317497998183511
-0.2117000000000001,-3.361354048479327
-0.2127,-3.361354048479327
-0.2137000000000001,-3.361354048479327
-0.2147,-3.361354048479327
-0.2157000000000001,-3.403795387475278
-0.2167,-3.361354048479327
-0.21770000000000012,-3.361354048479327
-0.2187,-3.403795387475278
-0.21970000000000012,-3.403795387475278
-0.2207,-3.361354048479327
-0.22170000000000012,-3.361354048479327
-0.2227,-3.317497998183511
-0.22370000000000012,-3.317497998183511
-0.2247,-3.273641947887695
-0.22570000000000012,-3.317497998183511
-0.2267,-3.273641947887695
-0.22770000000000012,-3.273641947887695
-0.22870000000000001,-3.273641947887695
-0.22970000000000013,-3.2297858975918787
-0.23070000000000002,-3.273641947887695
-0.23170000000000013,-3.273641947887695
-0.23270000000000002,-3.317497998183511
-0.23370000000000013,-3.317497998183511
-0.23470000000000002,-3.317497998183511
-0.23570000000000013,-3.317497998183511
-0.23670000000000002,-3.273641947887695
-0.2376999999999999,-3.273641947887695
-0.23870000000000002,-3.273641947887695
-0.2396999999999999,-3.273641947887695
-0.24070000000000003,-3.273641947887695
-0.24169999999999991,-3.2297858975918787
-0.24270000000000003,-3.1859298472960624
-0.24369999999999992,-3.2297858975918787
-0.24470000000000003,-3.1859298472960624
-0.24569999999999992,-3.2297858975918787
-0.24670000000000003,-3.2297858975918787
-0.24769999999999992,-3.2297858975918787
-0.24870000000000003,-3.2297858975918787
-0.24969999999999992,-3.2297858975918787
-0.25070000000000003,-3.2297858975918787
-0.2516999999999999,-3.273641947887695
-0.25270000000000004,-3.273641947887695
-0.2536999999999999,-3.273641947887695
-0.25470000000000004,-3.273641947887695
-0.2556999999999999,-3.2297858975918787
-0.25670000000000004,-3.2297858975918787
-0.25769999999999993,-3.2297858975918787
-0.25870000000000004,-3.2297858975918787
-0.25969999999999993,-3.273641947887695
-0.26070000000000004,-3.2297858975918787
-0.26169999999999993,-3.2297858975918787
-0.26270000000000004,-3.2297858975918787
-0.26369999999999993,-3.2297858975918787
-0.26470000000000005,-3.273641947887695
-0.26569999999999994,-3.273641947887695
-0.26670000000000005,-3.317497998183511
-0.26769999999999994,-3.317497998183511
-0.26870000000000005,-3.317497998183511
-0.26969999999999994,-3.273641947887695
-0.27070000000000005,-3.273641947887695
-0.27169999999999994,-3.317497998183511
-0.27270000000000005,-3.361354048479327
-0.27369999999999994,-3.361354048479327
-0.27470000000000006,-3.317497998183511
-0.27569999999999995,-3.361354048479327
-0.27670000000000006,-3.361354048479327
-0.27769999999999995,-3.361354048479327
-0.27870000000000006,-3.361354048479327
-0.27969999999999995,-3.403795387475278
-0.28070000000000006,-3.403795387475278
-0.28169999999999995,-3.403795387475278
-0.28270000000000006,-3.403795387475278
-0.28369999999999995,-3.403795387475278
-0.28470000000000006,-3.403795387475278
-0.28569999999999995,-3.447651437771094
-0.28670000000000007,-3.4915074880669104
-0.28769999999999996,-3.4915074880669104
-0.28870000000000007,-3.4915074880669104
-0.28969999999999996,-3.4915074880669104
-0.29070000000000007,-3.4915074880669104
-0.29169999999999996,-3.5353635383627267
-0.29270000000000007,-3.579219588658543
-0.29369999999999996,-3.623075638954359
-0.2947000000000001,-3.623075638954359
-0.29569999999999996,-3.623075638954359
-0.2967000000000001,-3.623075638954359
-0.29769999999999996,-3.6655169779503103
-0.2987000000000001,-3.7093730282461257
-0.29969999999999997,-3.7970851288377587
-0.3007000000000001,-3.7970851288377587
-0.30169999999999997,-3.7970851288377587
-0.3027000000000001,-3.7970851288377587
-0.30369999999999997,-3.840941179133574
-0.3047000000000001,-3.884797229429391
-0.30569999999999997,-3.927238568425342
-0.3067000000000001,-3.971094618721158
-0.3077,-4.014950669016974
-0.3087000000000001,-4.0588067193127895
-0.3097,-4.0588067193127895
-0.3107000000000001,-4.146518819904423
-0.3117,-4.1889601589003735
-0.3127000000000001,-4.276672259492005
-0.3137,-4.3205283097878215
-0.3147000000000001,-4.364384360083638
-0.3157,-4.406825699079589
-0.3167000000000001,-4.450681749375406
-0.3177,-4.538393849967037
-0.3187000000000001,-4.626105950558669
-0.3197,-4.712403339850438
-0.3207000000000001,-4.800115440442069
-0.3217,-4.843971490737885
-0.3227000000000001,-4.9302688800296535
-0.3237,-5.017980980621284
-0.3247000000000001,-5.105693081212917
-0.3257,-5.235846520800501
-0.3267000000000001,-5.367414671687949
-0.3277,-5.453712060979717
-0.3287000000000001,-5.585280211867165
-0.3297,-5.672992312458796
-0.3307000000000001,-5.759289701750564
-0.3317,-5.890857852638012
-0.3327000000000001,-6.021011292225596
-0.3337,-6.196435493408861
-0.3347000000000001,-6.326588932996443
-0.3357,-6.458157083883892
-0.3367000000000001,-6.588310523471475
-0.3377,-6.762320013354876
-0.3387000000000001,-6.93774421453814
-0.3397,-7.155609754717355
-0.3407000000000001,-7.329619244600755
-0.3417,-7.50504344578402
-0.3427000000000001,-7.722908985963235
-0.3437,-7.940774526142452
-0.3447000000000001,-8.158640066321666
-0.3457,-8.4203616567967
-0.3467000000000001,-8.638227196975913
-0.3477,-8.85609273715513
-0.3487000000000001,-9.073958277334345
-0.3497,-9.335679867809377
-0.3507000000000001,-9.59740145828441
-0.3517,-9.902979099055257
-0.3527000000000001,-10.208556739826104
-0.3537,-10.514134380596953
-0.3547000000000001,-10.863568071663616
-0.3557,-11.211587051430415
-0.35670000000000013,-11.604876792792895
-0.3577,-12.040607873151327
-0.35870000000000013,-12.476338953509758
-0.3597,-12.913484745168056
-0.36070000000000013,-13.349215825526485
-0.3617,-13.828802956180734
-0.3626999999999999,-14.26028990263957
-0.3637,-14.741291744593681
-0.3646999999999999,-15.222293586547794
-0.3657,-15.74573676749786
-0.3666999999999999,-16.269179948447924
-0.3677,-16.792623129397985
-0.3686999999999999,-17.316066310348052
-0.36970000000000003,-17.881950830294063
-0.3706999999999999,-18.49027668923603
-0.37170000000000003,-19.155191000172596
-0.3726999999999999,-19.890840876102416
-0.37370000000000003,-20.584049413036283
-0.3746999999999999,-21.333846401964752
-0.37570000000000003,-22.069496277894572
-0.3766999999999999,-22.904175944814945
-0.37770000000000004,-23.724708498736668
-0.3786999999999999,-24.64427084364894
-0.37970000000000004,-25.60627452755716
-0.3806999999999999,-26.568278211465387
-0.38170000000000004,-27.572723234369565
-0.38269999999999993,-28.577168257273744
-0.38370000000000004,-29.62405461917387
-0.38469999999999993,-30.7558236590659
-0.38570000000000004,-31.887592698957924
-0.38669999999999993,-33.01936173884996
-0.38770000000000004,-34.193572117737936
-0.38869999999999993,-35.282899818634014
-0.38970000000000005,-36.47125731052064
-0.39069999999999994,-37.73035036740053
-0.39170000000000005,-38.98944342428042
-0.39269999999999994,-40.34756627215084
-0.39370000000000005,-41.79057179801318
-0.39469999999999994,-43.27601866287147
-0.39570000000000005,-44.80390686672572
-0.39669999999999994,-46.3176479575813
-0.39770000000000005,-47.84553616143554
-0.39869999999999994,-49.373424365289786
-0.39970000000000006,-50.943753908139975
-0.40069999999999995,-52.59896612898206
-0.40170000000000006,-54.31076680181876
-0.40269999999999995,-55.96597902266086
-0.40370000000000006,-57.66363258249889
-0.40469999999999995,-59.403727481332886
-0.40570000000000006,-61.20041083216149
-0.40669999999999995,-63.02538840898739
-0.40770000000000006,-64.86451309881193
-0.40869999999999995,-66.73193201463377
-0.40970000000000006,-68.57105670445833
-0.41069999999999995,-70.53750541127073
-0.41170000000000007,-72.44736566608852
-0.41269999999999996,-74.32893169490903
-0.41370000000000007,-76.06902659374302
-0.41469999999999996,-77.76668015358106
-0.41570000000000007,-79.42189237442317
-0.41669999999999996,-80.9497805782774
-0.41770000000000007,-82.47766878213164
-0.41869999999999996,-84.04799832498183
-0.4197000000000001,-85.57588652883607
-0.42069999999999996,-87.23109874967815
-0.4217000000000001,-88.9853407615108
-0.42269999999999996,-90.89520101632861
-0.4237000000000001,-92.86164972314101
-0.42469999999999997,-94.95542244694126
-0.4257000000000001,-97.17651918772938
-0.42669999999999997,-99.35517458952152
-0.4277000000000001,-101.50553576531638
-0.42869999999999997,-103.45783735913014
-0.4297000000000001,-105.25452070995874
-0.43069999999999997,-106.90973293080083
-0.4317000000000001,-108.52250381264696
-0.4327,-110.09283335549715
-0.4337000000000001,-111.57828022035544
-0.4347,-113.14860976320564
-0.4357000000000001,-114.76138064505177
-0.4367,-116.33171018790196
-0.4377000000000001,-117.90203973075215
-0.4387,-119.51481061259831
-0.4397000000000001,-121.17002283344038
-0.4407,-123.00914752326493
-0.4417000000000001,-124.9614491170787
-0.4427,-126.9278978238911
-0.4437000000000001,-128.93678786969946
-0.4447,-130.84664812451723
-0.4457000000000001,-132.6857728143418
-0.4467,-134.29854369618792
-0.4477000000000001,-135.6991078830543
-0.4487,-136.95820093993422
-0.4497000000000001,-138.17485265781812
-0.4507,-139.53297550568857
-0.4517000000000001,-141.06086370954282
-0.4527,-142.6028990263957
-0.4537000000000001,-144.15908145624724
-0.4547,-145.7152638860988
-0.4557000000000001,-147.27144631595033
-0.4567,-148.82762874580186
-0.4577000000000001,-150.24234004566688
-0.4587,-151.37410908555893
-0.4597000000000001,-152.64734925543743
-0.4607,-154.0620605553025
-0.4617000000000001,-155.75971411514055
-0.4627,-157.59883880496508
-0.4637000000000001,-159.43796349478964
-0.4647,-161.41855931460069
-0.4657000000000001,-163.39915513441173
-0.4667,-165.5212220842093
-0.4677000000000001,-167.36034677403384
-0.4687,-168.91652920388537
-0.4697000000000001,-170.33124050375042
-0.4707,-171.60448067362896
-0.4717000000000001,-172.59477858353446
-0.4727,-173.302134233467
-0.4737000000000001,-174.0094898833995
-0.4747,-174.57537440334553
-0.4757000000000001,-175.42420118326456
-0.4767,-176.55597022315658
-0.4777000000000001,-178.25362378299462
-0.4787,-180.23421960280567
-0.4797000000000001,-182.35628655260325
-0.4807,-184.47835350240078
-0.48170000000000013,-186.45894932221185
-0.4827,-188.15660288204987
-0.48370000000000013,-189.8542564418879
-0.4847,-191.41043887173947
-0.48570000000000013,-192.966621301591
-0.4867,-194.52280373144254
-0.4876999999999999,-196.0789861612941
-0.4887,-197.35222633117263
-0.4896999999999999,-198.48399537106465
-0.4907,-199.33282215098367
-0.4916999999999999,-200.18164893090267
-0.4927,-200.88900458083523
-0.4936999999999999,-201.87930249074074
-0.49470000000000003,-202.86960040064628
-0.4956999999999999,-204.14284057052478
-0.49670000000000003,-205.69902300037634
-0.4976999999999999,-207.3966765602144
-0.49870000000000003,-209.23580125003892
-0.4996999999999999,-211.35786819983647
-0.5007,-213.33846401964755
-0.5016999999999999,-215.31905983945856
-0.5027,-216.87524226931012
-0.5036999999999999,-218.00701130920217
-0.5047,-218.85583808912116
-0.5056999999999999,-219.7046648690402
-0.5067,-220.5534916489592
-0.5076999999999999,-221.26084729889175
-0.5087,-222.25114520879725
