Potential V vs RHE, Current mA cm-2
0.013299999999999867,-0.09307385641812077
0.012299999999999978,-0.270209858274222
0.011299999999999866,-0.3427845479572984
0.010299999999999976,-0.3947044526623452
0.009299999999999864,-0.4384190318281749
0.008299999999999974,-0.46812796912534066
0.007299999999999862,-0.4911877633131407
0.006299999999999972,-0.5189161047904954
0.00529999999999986,-0.5411270721983766
0.0042999999999999705,-0.5631965684762711
0.0032999999999998586,-0.578333979384827
0.0022999999999999687,-0.5907834388236393
0.0012999999999998568,-0.6090332145918983
0.00029999999999996696,-0.6237462121104946
-0.000700000000000145,-0.6421374590087401
-0.0017000000000000348,-0.6502013134179708
-0.0027000000000001467,-0.6562845720073905
-0.0037000000000000366,-0.6707146272660139
-0.0047000000000001485,-0.6838714423547588
-0.005700000000000038,-0.6930670658038814
-0.00670000000000015,-0.7012723913430987
-0.00770000000000004,-0.7032529871629097
-0.008700000000000152,-0.7144292064318436
-0.009700000000000042,-0.7254639545707907
-0.010700000000000154,-0.7380548851395896
-0.011700000000000044,-0.736498702709738
-0.012700000000000156,-0.7407428366093332
-0.013700000000000045,-0.7413087211292793
-0.014700000000000157,-0.7567290742978081
-0.015700000000000047,-0.7598414391575111
-0.01670000000000016,-0.7632367462771872
-0.01770000000000005,-0.7619635061073088
-0.01870000000000016,-0.7632367462771872
-0.01970000000000005,-0.7734226676362155
-0.020700000000000163,-0.7771009170158646
-0.021700000000000053,-0.7771009170158646
-0.022700000000000164,-0.773564138766202
-0.023700000000000054,-0.7732811965062291
-0.024700000000000166,-0.7840330023852033
-0.025700000000000056,-0.788984491934731
-0.026700000000000168,-0.7867209538549468
-0.027700000000000058,-0.7748373789360805
-0.02870000000000017,-0.7831841756052842
-0.02970000000000006,-0.7817694643054193
-0.03070000000000017,-0.7908236166245554
-0.03170000000000006,-0.7819109354354057
-0.03270000000000017,-0.7786570994457161
-0.03370000000000006,-0.7830427044752977
-0.034700000000000175,-0.7834671178652574
-0.035700000000000065,-0.7826182910853382
-0.03670000000000018,-0.7816279931754327
-0.03770000000000007,-0.7714420718164045
-0.03870000000000018,-0.7763935613659322
-0.03970000000000007,-0.77526179232604
-0.04070000000000018,-0.774978850066067
-0.04170000000000007,-0.7739885521561616
-0.04270000000000018,-0.7584267278576461
-0.04370000000000007,-0.7639441019271197
-0.044700000000000184,-0.7742714944161345
-0.045700000000000074,-0.7660661688769174
-0.046700000000000186,-0.7656417554869578
-0.047700000000000076,-0.7529093537881726
-0.04870000000000019,-0.75503142073797
-0.04970000000000008,-0.7606902659374303
-0.05070000000000019,-0.7553143629979431
-0.05170000000000008,-0.7536167094381051
-0.05270000000000019,-0.7466846240687663
-0.05370000000000008,-0.7417331345192387
-0.05470000000000019,-0.7422990190391847
-0.05570000000000008,-0.7492311044085235
-0.056700000000000195,-0.7379134140096032
-0.057700000000000085,-0.735083991409873
-0.058700000000000196,-0.729991030730359
-0.059700000000000086,-0.7338107512399946
-0.0607000000000002,-0.732254568810143
-0.06170000000000009,-0.7315472131602104
-0.0627000000000002,-0.7205124650212632
-0.06370000000000009,-0.7224930608410742
-0.0647000000000002,-0.7216442340611552
-0.06570000000000009,-0.7288592616904669
-0.0667000000000002,-0.7097606591422889
-0.0677000000000001,-0.711175370442154
-0.0687000000000002,-0.710609485922208
-0.0697000000000001,-0.7104680147922214
-0.07070000000000021,-0.712590081742019
-0.0717000000000001,-0.7036774005528693
-0.07270000000000021,-0.6960379595335981
-0.0737000000000001,-0.7007065068231527
-0.07470000000000021,-0.6999991511732202
-0.0757000000000001,-0.7005650356931662
-0.07670000000000021,-0.6961794306635846
-0.0777000000000001,-0.6841543846147318
-0.07870000000000021,-0.6875496917344079
-0.0797000000000001,-0.6852861536546238
-0.08070000000000022,-0.6882570473843403
-0.0817000000000001,-0.6803346641050962
-0.08270000000000022,-0.6792028950652041
-0.08370000000000011,-0.6738269921257171
-0.08470000000000022,-0.6842958557447183
-0.08570000000000011,-0.6722708096958655
-0.08670000000000022,-0.6777881837653391
-0.08770000000000011,-0.6609531192969451
-0.08870000000000022,-0.6647728398065808
-0.08970000000000011,-0.6668949067563783
-0.09070000000000022,-0.6653387243265267
-0.09170000000000011,-0.6591139946071205
-0.09270000000000023,-0.6531722071476874
-0.09370000000000012,-0.6503427845479574
-0.09470000000000023,-0.653313678277674
-0.09570000000000012,-0.6514745535878493
-0.09670000000000023,-0.6480792464681732
-0.09770000000000012,-0.6425618723986997
-0.09870000000000023,-0.638742151889064
-0.09970000000000012,-0.6419959878787537
-0.10070000000000023,-0.6449668816084703
-0.10170000000000012,-0.6380347962391315
-0.10270000000000024,-0.6339321334695229
-0.10370000000000013,-0.6318100665197254
-0.10470000000000024,-0.6326588932996443
-0.10570000000000013,-0.637044498329226
-0.10670000000000024,-0.6275659326201303
-0.10770000000000013,-0.6226144430706027
-0.10870000000000024,-0.6231803275905486
-0.10970000000000013,-0.6228973853305756
-0.11070000000000024,-0.6255853368003192
-0.11170000000000013,-0.617380011261102
-0.11270000000000002,-0.6107308681517364
-0.11370000000000013,-0.6158238288312504
-0.11470000000000002,-0.6129944062315204
-0.11570000000000014,-0.6152579443113044
-0.11670000000000003,-0.6156823577012639
-0.11770000000000014,-0.6028084848724922
-0.11870000000000003,-0.6064867342521413
-0.11970000000000014,-0.6091746857218847
-0.12070000000000003,-0.6105893970217499
-0.12170000000000014,-0.6074770321620467
-0.12270000000000003,-0.5970081685430455
-0.12370000000000014,-0.5975740530629915
-0.12470000000000003,-0.6037987827823976
-0.12570000000000014,-0.601393773572627
-0.12670000000000003,-0.5992717066228296
-0.12770000000000015,-0.5916322656035584
-0.12870000000000004,-0.5902175543036933
-0.12970000000000015,-0.5999790622727621
-0.13070000000000004,-0.599696120012789
-0.13170000000000015,-0.594886101593248
-0.13270000000000004,-0.5855490070141387
-0.13370000000000015,-0.5876710739639363
-0.13470000000000004,-0.5914907944735719
-0.13570000000000015,-0.5961593417631265
-0.13670000000000004,-0.5858319492741116
-0.13770000000000016,-0.5847001802342197
-0.13870000000000005,-0.577768094864881
-0.13970000000000016,-0.5869637183140037
-0.14070000000000005,-0.5858319492741116
-0.14170000000000016,-0.5790413350347595
-0.14270000000000005,-0.577202210344935
-0.14370000000000016,-0.5750801433951374
-0.14470000000000005,-0.578051037124854
-0.14570000000000016,-0.5832854689343547
-0.14670000000000005,-0.5735239609652859
-0.14770000000000016,-0.5692798270656908
-0.14870000000000005,-0.5698457115856368
-0.14970000000000017,-0.5749386722651508
-0.15070000000000006,-0.5747972011351644
-0.15170000000000017,-0.5742313166152184
-0.15270000000000006,-0.5677236446358392
-0.15370000000000017,-0.5694212981956773
-0.15470000000000006,-0.5689968848057178
-0.15570000000000017,-0.5718263074054479
-0.15670000000000006,-0.5708360094955423
-0.15770000000000017,-0.5631965684762711
-0.15870000000000006,-0.5622062705663656
-0.15970000000000018,-0.5692798270656908
-0.16070000000000007,-0.5674407023758662
-0.16170000000000018,-0.5709774806255288
-0.16270000000000007,-0.5630550973462846
-0.16370000000000018,-0.5646112797761362
-0.16470000000000007,-0.5689968848057178
-0.16570000000000018,-0.5691383559357043
-0.16670000000000007,-0.5657430488160282
-0.16770000000000018,-0.557254781016838
-0.16870000000000007,-0.5581036077967569
-0.16970000000000018,-0.5677236446358392
-0.17070000000000007,-0.5647527509061226
-0.17170000000000019,-0.5606500881365141
-0.17270000000000008,-0.5596597902266085
-0.1737000000000002,-0.5581036077967569
-0.17470000000000008,-0.5653186354260686
-0.1757000000000002,-0.5636209818662306
-0.17670000000000008,-0.5640453952561902
-0.1777000000000002,-0.5612159726564601
-0.17870000000000008,-0.5602256747465546
-0.1797000000000002,-0.562913626216298
-0.18070000000000008,-0.5701286538456097
-0.1817000000000002,-0.5610745015264736
-0.18270000000000008,-0.5600842036165681
-0.1837000000000002,-0.5603671458765411
-0.1847000000000001,-0.5685724714157583
-0.1857000000000002,-0.5706945383655557
-0.1867000000000001,-0.5656015776860417
-0.1877000000000002,-0.562347741696352
-0.1887000000000001,-0.5656015776860417
-0.1897000000000002,-0.5681480580257988
-0.1907000000000001,-0.5709774806255288
-0.1917000000000001,-0.5692798270656908
-0.19269999999999998,-0.5624892128263386
-0.1937000000000001,-0.5691383559357043
-0.19469999999999998,-0.5725336630553803
-0.1957000000000001,-0.5742313166152184
-0.19669999999999999,-0.576070441305043
-0.1977000000000001,-0.5685724714157583
-0.1987,-0.5730995475753263
-0.1997000000000001,-0.577485152604908
-0.2007,-0.5804560463346246
-0.2017000000000001,-0.5790413350347595
-0.2027,-0.5735239609652859
-0.2037000000000001,-0.5779095659948674
-0.2047,-0.5863978337940576
-0.2057000000000001,-0.5886613718738418
-0.2067,-0.5868222471840172
-0.2077000000000001,-0.5841342957142737
-0.2087,-0.5854075358841522
-0.2097000000000001,-0.5924810923834773
-0.2107,-0.5970081685430455
-0.2117000000000001,-0.5930469769034233
-0.2127,-0.5947446304632614
-0.2137000000000001,-0.5938958036833424
-0.2147,-0.6074770321620467
-0.2157000000000001,-0.6105893970217499
-0.2167,-0.6070526187720873
-0.21770000000000012,-0.6060623208621817
-0.2187,-0.6070526187720873
-0.21970000000000012,-0.618228838041021
-0.2207,-0.6209167895107646
-0.22170000000000012,-0.6186532514309806
-0.2227,-0.619360607080913
-0.22370000000000012,-0.6203509049908186
-0.2247,-0.6291221150499817
-0.22570000000000012,-0.6394495075389965
-0.2267,-0.6366200849392665
-0.22770000000000012,-0.6367615560692529
-0.22870000000000001,-0.6451083527384567
-0.22970000000000013,-0.6506257268079303
-0.23070000000000002,-0.6591139946071205
-0.23170000000000013,-0.658689581217161
-0.23270000000000002,-0.6571333987873096
-0.23370000000000013,-0.6671778490163512
-0.23470000000000002,-0.672695223085825
-0.23570000000000013,-0.6813249620150017
-0.23670000000000002,-0.6809005486250422
-0.2376999999999999,-0.6857105670445833
-0.23870000000000002,-0.6800517218451232
-0.2396999999999999,-0.7042432850728153
-0.24070000000000003,-0.6992917955232877
-0.24169999999999991,-0.7104680147922214
-0.24270000000000003,-0.7062238808926263
-0.24369999999999992,-0.7142877353018571
-0.24470000000000003,-0.7278689637805613
-0.24569999999999992,-0.733386337850035
-0.24670000000000003,-0.7400354809594006
-0.24769999999999992,-0.7437137303390498
-0.24870000000000003,-0.7519190558782669
-0.24969999999999992,-0.7677638224367553
-0.25070000000000003,-0.7751203211960536
-0.2516999999999999,-0.7787985705757027
-0.25270000000000004,-0.7888430208047444
-0.2536999999999999,-0.7973312886039347
-0.25470000000000004,-0.8152981221122206
-0.2556999999999999,-0.826332870251168
-0.25670000000000004,-0.8343967246603987
-0.25769999999999993,-0.845148530539373
-0.25870000000000004,-0.8577394611081718
-0.25969999999999993,-0.8748574678365387
-0.26070000000000004,-0.8908437055250136
-0.26169999999999993,-0.9001808001041228
-0.26270000000000004,-0.9123473172829621
-0.26369999999999993,-0.926070016891653
-0.26470000000000005,-0.9516762914192101
-0.26569999999999994,-0.9692187115375367
-0.26670000000000005,-0.9876099584357821
-0.26769999999999994,-1.0020400136944054
-0.26870000000000005,-1.025241279012192
-0.26969999999999994,-1.0504231401497897
-0.27070000000000005,-1.073624405467576
-0.27169999999999994,-1.0941377193156194
-0.27270000000000005,-1.112104552823905
-0.27369999999999994,-1.13983289430126
-0.27470000000000006,-1.1689759470784797
-0.27569999999999995,-1.201372835845389
-0.27670000000000006,-1.2327794267023928
-0.27769999999999995,-1.2602248259197746
-0.27870000000000006,-1.29318759920663
-0.27969999999999995,-1.336619236112487
-0.28070000000000006,-1.3722699608690856
-0.28169999999999995,-1.4138624730851177
-0.28270000000000006,-1.4444202371622026
-0.28369999999999995,-1.4939351326574788
-0.28470000000000006,-1.54486473945262
-0.28569999999999995,-1.5943796349478963
-0.28670000000000007,-1.643894530443173
-0.28769999999999996,-1.6891652920388538
-0.28870000000000007,-1.7514125892329155
-0.28969999999999996,-1.822148154226167
-0.29070000000000007,-1.8886395853198237
-0.29169999999999996,-1.9494721712140204
-0.29270000000000007,-2.0286960040064623
-0.29369999999999996,-2.0994315689997145
-0.2947000000000001,-2.205534916489592
-0.29569999999999996,-2.2776851927827093
-0.2967000000000001,-2.3767149837732613
-0.29769999999999996,-2.464427084364894
-0.2987000000000001,-2.5747745657543666
-0.29969999999999997,-2.6851220471438397
-0.3007000000000001,-2.822349043230748
-0.30169999999999997,-2.9341112359200863
-0.3027000000000001,-3.0727529433068597
-0.30369999999999997,-3.1816857133964676
-0.3047000000000001,-3.347206935480677
-0.30569999999999997,-3.4915074880669104
-0.3067000000000001,-3.65702871015112
-0.3077,-3.852258869532495
-0.3087000000000001,-4.05597729671306
-0.3097,-4.251207456094435
-0.3107000000000001,-4.436534636376755
-0.3117,-4.647326620056646
-0.3127000000000001,-4.886412829733837
-0.3137,-5.124084328111163
-0.3147000000000001,-5.384391207286329
-0.3157,-5.617818571764061
-0.3167000000000001,-5.955934572431804
-0.3177,-6.227559142005892
-0.3187000000000001,-6.620848883368372
-0.3197,-6.936329503238276
-0.3207000000000001,-7.345181068899271
-0.3217,-7.645099864470658
-0.3227000000000001,-8.12610170642477
-0.3237,-8.635397774376184
-0.3247000000000001,-9.131961440628812
-0.3257,-9.743116722170507
-0.3267000000000001,-10.195824338127318
-0.3277,-10.722096941677114
-0.3287000000000001,-11.293640306822589
-0.3297,-12.064657965249033
-0.3307000000000001,-13.045052896055504
-0.3317,-13.623669817700303
-0.3327000000000001,-14.359319693630123
-0.3337,-15.02423400456669
-0.3347000000000001,-15.957943462477614
-0.3357,-16.863358694391238
-0.3367000000000001,-17.881950830294063
-0.3377,-18.985425644188794
-0.3387000000000001,-20.187930249074075
-0.3397,-21.22066949797555
-0.3407000000000001,-22.479762554855434
-0.3417,-23.55494314275286
-0.3427000000000001,-24.884771764625995
-0.3437,-26.030687917516673
-0.3447000000000001,-27.261486748399253
-0.3457,-28.53472691827779
-0.3467000000000001,-29.751378636161718
-0.3477,-31.109501484032155
-0.3487000000000001,-32.24127052392419
-0.3497,-33.52865780680137
-0.3507000000000001,-34.75945663768395
-0.3517,-35.848784338580025
-0.3527000000000001,-36.96640626547341
-0.3537,-38.40941179133574
-0.3547000000000001,-39.75338752620753
-0.3557,-41.111510374077966
-0.35670000000000013,-42.229132300971344
-0.3577,-43.44578401885527
-0.35870000000000013,-44.535111719751356
-0.3597,-45.86494034162449
-0.36070000000000013,-47.12403339850438
-0.3617,-48.312390890391
-0.3626999999999999,-49.68466085126009
-0.3637,-50.80228277815347
-0.3646999999999999,-52.1886998520212
-0.3657,-53.476087134898386
-0.3666999999999999,-54.791768643772876
-0.3677,-56.05086170065276
-0.3686999999999999,-56.81480580257987
-0.36970000000000003,-58.41342957142736
-0.3706999999999999,-59.81399375829375
-0.37170000000000003,-60.86088012019388
-0.3726999999999999,-62.33217987205352
-0.37370000000000003,-63.280036442963095
-0.3746999999999999,-64.60986506483623
-0.37570000000000003,-65.8123696697215
-0.3766999999999999,-67.07146272660138
-0.37770000000000004,-68.33055578348127
-0.3786999999999999,-69.56135461436386
-0.37970000000000004,-70.99021302722754
-0.3806999999999999,-72.74445503906018
-0.38170000000000004,-73.86207696595356
-0.38269999999999993,-75.1070229098348
-0.38370000000000004,-76.12561504573763
-0.38469999999999993,-76.81882358267148
-0.38570000000000004,-78.29012333453113
-0.38669999999999993,-79.35115680942992
-0.38770000000000004,-80.8931921262828
-0.38869999999999993,-81.99666694017753
-0.38970000000000005,-83.07184752807495
-0.39069999999999994,-84.23191079396429
-0.39170000000000005,-85.44856251184822
-0.39269999999999994,-86.59447866473889
-0.39370000000000005,-87.76868904362688
-0.39469999999999994,-88.54678025855264
-0.39570000000000005,-90.11710980140283
-0.39669999999999994,-91.30546729328947
-0.39770000000000005,-92.50797189817473
-0.39869999999999994,-93.35679867809377
-0.39970000000000006,-94.77150997795881
-0.40069999999999995,-96.27110395581576
-0.40170000000000006,-97.20481341372668
-0.40269999999999995,-98.4780535836052
-0.40370000000000006,-99.56738128450128
-0.40469999999999995,-100.74159166338926
-0.40570000000000006,-101.76018379929208
-0.40669999999999995,-102.19874430225026
-0.40770000000000006,-104.4056939300397
-0.40869999999999995,-106.08920037687909
-0.40970000000000006,-106.89558581780217
-0.41069999999999995,-107.53220590274144
-0.41170000000000007,-107.8292952757131
-0.41269999999999996,-109.64012573954034
-0.41370000000000007,-110.50309963245802
-0.41469999999999996,-111.83292825433115
-0.41570000000000007,-113.10616842420968
-0.41669999999999996,-113.92670097813141
-0.41770000000000007,-114.91699888803693
-0.41869999999999996,-115.4970305209816
-0.4197000000000001,-116.60050533487632
-0.42069999999999996,-117.68983303577241
-0.4217000000000001,-119.486516386601
-0.42269999999999996,-120.61828542649305
-0.4237000000000001,-122.38667455132433
-0.42469999999999997,-122.91011773227437
-0.4257000000000001,-124.36727037113538
-0.42669999999999997,-124.38141748413402
-0.4277000000000001,-126.8147209199019
-0.42869999999999997,-127.1542516318695
-0.4297000000000001,-128.27187355876288
-0.43069999999999997,-130.50711741254963
-0.4317000000000001,-131.63888645244168
-0.4327,-133.11018620430133
-0.4337000000000001,-133.20921599529186
-0.4347,-134.7653984251434
-0.4357000000000001,-135.14737047610697
-0.4367,-136.03863859502192
-0.4377000000000001,-137.3826143298937
-0.4387,-138.28802956180735
-0.4397000000000001,-139.68859374867372
-0.4407,-140.48083207659815
-0.4417000000000001,-141.27307040452254
-0.4427,-142.4614278964092
-0.4437000000000001,-143.16878354634173
-0.4447,-144.44202371622026
-0.4457000000000001,-145.00790823616626
-0.4467,-146.8470329259908
-0.4477000000000001,-147.6958597059098
-0.4487,-147.6958597059098
-0.4497000000000001,-150.5252823056399
-0.4507,-150.94969569559944
-0.4517000000000001,-152.64734925543743
-0.4527,-152.64734925543743
-0.4537000000000001,-152.93029151541046
-0.4547,-154.203531685289
-0.4557000000000001,-154.0620605553025
-0.4567,-155.19382959519453
-0.4577000000000001,-156.04265637511355
-0.4587,-157.17442541500557
-0.4597000000000001,-158.5891367148706
-0.4607,-159.43796349478964
-0.4617000000000001,-160.5697325346817
-0.4627,-161.84297270456022
-0.4637000000000001,-162.97474174445222
-0.4647,-163.96503965435775
-0.4657000000000001,-164.53092417430375
-0.4667,-165.5212220842093
-0.4677000000000001,-166.93593338407433
-0.4687,-167.21887564404733
-0.4697000000000001,-170.33124050375042
-0.4707,-172.0288940635885
-0.4717000000000001,-172.17036519357498
-0.4727,-174.0094898833995
-0.4737000000000001,-174.150961013386
-0.4747,-174.85831666331853
-0.4757000000000001,-174.43390327335902
-0.4767,-176.6974413531431
-0.4777000000000001,-177.82921039303508
-0.4787,-179.66833508285964
-0.4797000000000001,-178.25362378299462
-0.4807,-179.10245056291362
-0.48170000000000013,-181.79040203265723
-0.4827,-184.47835350240078
-0.48370000000000013,-186.74189158218485
-0.4847,-188.4395451420229
-0.48570000000000013,-190.70308322180696
-0.4867,-191.41043887173947
-0.4876999999999999,-192.2592656516585
-0.4887,-193.3910346915505
-0.4896999999999999,-194.38133260145605
-0.4907,-195.37163051136156
-0.4916999999999999,-196.3619284212671
-0.4927,-198.05958198110514
-0.4936999999999999,-200.04017780091618
-0.49470000000000003,-200.88900458083523
-0.4956999999999999,-202.16224475071377
-0.49670000000000003,-201.4548891007812
-0.4976999999999999,-203.57695605057876
-0.49870000000000003,-204.2843117005113
-0.4996999999999999,-205.13313848043032
-0.5007,-205.84049413036286
-0.5016999999999999,-205.13313848043032
-0.5027,-206.54784978029537
-0.5036999999999999,-207.67961882018741
