Sept. 1, 2024   19:54:25
Cyclic Voltammetry
File: c:/users/guazh/data/20240829_batch_215_500/2024-08-29-exp241\exp241-2024-09-01t19_37_07-h2koh\exp241_cv_sr_800mvs_efin_-1700mv.bin
Data Source:  Experiment
Instrument Model:  CHI760E
Header: CV ran at 800 mVs
Note: 

Init E (V) = -1
High E (V) = -1
Low E (V) = -1.7
Final E (V) = -1
Init P/N = N
Scan Rate (V/s) = 0.8
Segment = 3
Sample Interval (V) = 0.001
Quiet Time (sec) = 2
Sensitivity (A/V) = 0.01
Comp R (ohm) = 1.9

Results:

Channel 1:
Segment 1:

Segment 2:

Segment 3:

Potential/V, Current/A

-1.000, 1.249e-5
-1.001, 3.099e-5
-1.002, 4.024e-5
-1.003, 4.332e-5
-1.004, 4.640e-5
-1.005, 4.640e-5
-1.006, 4.949e-5
-1.007, 5.257e-5
-1.008, 5.257e-5
-1.009, 5.257e-5
-1.010, 5.257e-5
-1.011, 5.565e-5
-1.012, 5.565e-5
-1.013, 5.565e-5
-1.014, 5.565e-5
-1.015, 5.873e-5
-1.016, 5.873e-5
-1.017, 5.873e-5
-1.018, 5.873e-5
-1.019, 5.873e-5
-1.020, 5.873e-5
-1.021, 6.182e-5
-1.022, 5.873e-5
-1.023, 5.873e-5
-1.024, 6.182e-5
-1.025, 6.182e-5
-1.026, 6.182e-5
-1.027, 6.182e-5
-1.028, 6.182e-5
-1.029, 6.182e-5
-1.030, 6.490e-5
-1.031, 6.490e-5
-1.032, 6.490e-5
-1.033, 6.182e-5
-1.034, 6.490e-5
-1.035, 6.490e-5
-1.036, 6.490e-5
-1.037, 6.490e-5
-1.038, 6.490e-5
-1.039, 6.490e-5
-1.040, 6.490e-5
-1.041, 6.490e-5
-1.042, 6.490e-5
-1.043, 6.798e-5
-1.044, 6.490e-5
-1.045, 6.490e-5
-1.046, 6.490e-5
-1.047, 6.490e-5
-1.048, 6.798e-5
-1.049, 6.798e-5
-1.050, 6.798e-5
-1.051, 6.490e-5
-1.052, 6.798e-5
-1.053, 6.798e-5
-1.054, 6.798e-5
-1.055, 6.798e-5
-1.056, 6.798e-5
-1.057, 6.798e-5
-1.058, 6.798e-5
-1.059, 6.798e-5
-1.060, 6.798e-5
-1.061, 6.798e-5
-1.062, 7.107e-5
-1.063, 6.798e-5
-1.064, 7.107e-5
-1.065, 6.798e-5
-1.066, 7.107e-5
-1.067, 7.107e-5
-1.068, 7.107e-5
-1.069, 7.107e-5
-1.070, 7.107e-5
-1.071, 7.107e-5
-1.072, 7.107e-5
-1.073, 7.107e-5
-1.074, 7.107e-5
-1.075, 7.107e-5
-1.076, 7.415e-5
-1.077, 7.415e-5
-1.078, 7.415e-5
-1.079, 7.107e-5
-1.080, 7.107e-5
-1.081, 7.415e-5
-1.082, 7.415e-5
-1.083, 7.415e-5
-1.084, 7.107e-5
-1.085, 7.415e-5
-1.086, 7.415e-5
-1.087, 7.415e-5
-1.088, 7.415e-5
-1.089, 7.415e-5
-1.090, 7.415e-5
-1.091, 7.415e-5
-1.092, 7.415e-5
-1.093, 7.415e-5
-1.094, 7.415e-5
-1.095, 7.415e-5
-1.096, 7.723e-5
-1.097, 7.415e-5
-1.098, 7.415e-5
-1.099, 7.415e-5
-1.100, 7.415e-5
-1.101, 7.415e-5
-1.102, 7.415e-5
-1.103, 7.723e-5
-1.104, 7.723e-5
-1.105, 7.723e-5
-1.106, 7.723e-5
-1.107, 7.723e-5
-1.108, 7.723e-5
-1.109, 7.723e-5
-1.110, 7.723e-5
-1.111, 7.723e-5
-1.112, 7.723e-5
-1.113, 7.723e-5
-1.114, 7.723e-5
-1.115, 7.723e-5
-1.116, 7.723e-5
-1.117, 7.723e-5
-1.118, 7.723e-5
-1.119, 7.723e-5
-1.120, 7.723e-5
-1.121, 7.723e-5
-1.122, 7.723e-5
-1.123, 8.032e-5
-1.124, 8.032e-5
-1.125, 8.032e-5
-1.126, 7.723e-5
-1.127, 8.032e-5
-1.128, 8.032e-5
-1.129, 8.032e-5
-1.130, 7.723e-5
-1.131, 8.032e-5
-1.132, 8.032e-5
-1.133, 8.032e-5
-1.134, 8.032e-5
-1.135, 8.032e-5
-1.136, 8.032e-5
-1.137, 8.032e-5
-1.138, 8.032e-5
-1.139, 8.032e-5
-1.140, 7.723e-5
-1.141, 8.032e-5
-1.142, 8.032e-5
-1.143, 8.032e-5
-1.144, 8.032e-5
-1.145, 8.032e-5
-1.146, 8.032e-5
-1.147, 8.032e-5
-1.148, 8.032e-5
-1.149, 8.032e-5
-1.150, 8.032e-5
-1.151, 8.032e-5
-1.152, 8.032e-5
-1.153, 8.032e-5
-1.154, 8.032e-5
-1.155, 8.032e-5
-1.156, 8.032e-5
-1.157, 8.032e-5
-1.158, 8.032e-5
-1.159, 8.032e-5
-1.160, 8.032e-5
-1.161, 8.032e-5
-1.162, 8.032e-5
-1.163, 8.032e-5
-1.164, 8.032e-5
-1.165, 8.032e-5
-1.166, 8.032e-5
-1.167, 8.032e-5
-1.168, 8.032e-5
-1.169, 8.032e-5
-1.170, 8.032e-5
-1.171, 8.032e-5
-1.172, 8.032e-5
-1.173, 8.032e-5
-1.174, 8.032e-5
-1.175, 8.032e-5
-1.176, 8.032e-5
-1.177, 8.032e-5
-1.178, 8.032e-5
-1.179, 8.032e-5
-1.180, 8.340e-5
-1.181, 8.032e-5
-1.182, 8.032e-5
-1.183, 8.032e-5
-1.184, 8.032e-5
-1.185, 8.032e-5
-1.186, 8.032e-5
-1.187, 8.032e-5
-1.188, 8.340e-5
-1.189, 8.340e-5
-1.190, 8.340e-5
-1.191, 8.032e-5
-1.192, 8.032e-5
-1.193, 8.032e-5
-1.194, 8.032e-5
-1.195, 8.032e-5
-1.196, 8.032e-5
-1.197, 8.032e-5
-1.198, 8.340e-5
-1.199, 8.032e-5
-1.200, 8.032e-5
-1.201, 8.340e-5
-1.202, 8.032e-5
-1.203, 8.032e-5
-1.204, 8.032e-5
-1.205, 8.032e-5
-1.206, 8.032e-5
-1.207, 8.032e-5
-1.208, 8.032e-5
-1.209, 8.032e-5
-1.210, 8.340e-5
-1.211, 8.340e-5
-1.212, 8.032e-5
-1.213, 8.032e-5
-1.214, 8.032e-5
-1.215, 8.032e-5
-1.216, 8.032e-5
-1.217, 8.032e-5
-1.218, 8.032e-5
-1.219, 8.032e-5
-1.220, 8.032e-5
-1.221, 8.032e-5
-1.222, 8.032e-5
-1.223, 8.032e-5
-1.224, 8.032e-5
-1.225, 8.032e-5
-1.226, 8.032e-5
-1.227, 8.340e-5
-1.228, 8.032e-5
-1.229, 8.340e-5
-1.230, 8.340e-5
-1.231, 8.340e-5
-1.232, 8.032e-5
-1.233, 8.032e-5
-1.234, 8.032e-5
-1.235, 8.340e-5
-1.236, 8.032e-5
-1.237, 8.032e-5
-1.238, 8.032e-5
-1.239, 8.340e-5
-1.240, 8.032e-5
-1.241, 8.340e-5
-1.242, 8.032e-5
-1.243, 8.340e-5
-1.244, 8.340e-5
-1.245, 8.340e-5
-1.246, 8.032e-5
-1.247, 8.032e-5
-1.248, 8.032e-5
-1.249, 8.340e-5
-1.250, 8.340e-5
-1.251, 8.340e-5
-1.252, 8.032e-5
-1.253, 8.340e-5
-1.254, 8.340e-5
-1.255, 8.340e-5
-1.256, 8.340e-5
-1.257, 8.340e-5
-1.258, 8.340e-5
-1.259, 8.340e-5
-1.260, 8.340e-5
-1.261, 8.340e-5
-1.262, 8.340e-5
-1.263, 8.340e-5
-1.264, 8.340e-5
-1.265, 8.340e-5
-1.266, 8.340e-5
-1.267, 8.340e-5
-1.268, 8.340e-5
-1.269, 8.340e-5
-1.270, 8.340e-5
-1.271, 8.340e-5
-1.272, 8.340e-5
-1.273, 8.648e-5
-1.274, 8.340e-5
-1.275, 8.340e-5
-1.276, 8.340e-5
-1.277, 8.648e-5
-1.278, 8.340e-5
-1.279, 8.340e-5
-1.280, 8.340e-5
-1.281, 8.648e-5
-1.282, 8.648e-5
-1.283, 8.648e-5
-1.284, 8.340e-5
-1.285, 8.340e-5
-1.286, 8.340e-5
-1.287, 8.648e-5
-1.288, 8.648e-5
-1.289, 8.340e-5
-1.290, 8.340e-5
-1.291, 8.648e-5
-1.292, 8.340e-5
-1.293, 8.648e-5
-1.294, 8.648e-5
-1.295, 8.648e-5
-1.296, 8.648e-5
-1.297, 8.648e-5
-1.298, 8.648e-5
-1.299, 8.340e-5
-1.300, 8.648e-5
-1.301, 8.648e-5
-1.302, 8.648e-5
-1.303, 8.648e-5
-1.304, 8.648e-5
-1.305, 8.648e-5
-1.306, 8.957e-5
-1.307, 8.648e-5
-1.308, 8.648e-5
-1.309, 8.648e-5
-1.310, 8.648e-5
-1.311, 8.648e-5
-1.312, 8.648e-5
-1.313, 8.648e-5
-1.314, 8.648e-5
-1.315, 8.957e-5
-1.316, 8.957e-5
-1.317, 8.957e-5
-1.318, 8.957e-5
-1.319, 8.957e-5
-1.320, 8.957e-5
-1.321, 8.957e-5
-1.322, 8.957e-5
-1.323, 8.957e-5
-1.324, 8.957e-5
-1.325, 8.957e-5
-1.326, 8.957e-5
-1.327, 8.957e-5
-1.328, 8.957e-5
-1.329, 9.265e-5
-1.330, 8.957e-5
-1.331, 8.957e-5
-1.332, 9.265e-5
-1.333, 8.957e-5
-1.334, 9.265e-5
-1.335, 8.957e-5
-1.336, 8.957e-5
-1.337, 9.265e-5
-1.338, 9.265e-5
-1.339, 9.265e-5
-1.340, 9.265e-5
-1.341, 9.265e-5
-1.342, 9.265e-5
-1.343, 9.265e-5
-1.344, 9.265e-5
-1.345, 9.265e-5
-1.346, 9.265e-5
-1.347, 9.265e-5
-1.348, 9.265e-5
-1.349, 9.265e-5
-1.350, 9.265e-5
-1.351, 9.265e-5
-1.352, 9.573e-5
-1.353, 9.573e-5
-1.354, 9.265e-5
-1.355, 9.573e-5
-1.356, 9.573e-5
-1.357, 9.573e-5
-1.358, 9.573e-5
-1.359, 9.573e-5
-1.360, 9.573e-5
-1.361, 9.573e-5
-1.362, 9.573e-5
-1.363, 9.573e-5
-1.364, 9.573e-5
-1.365, 9.573e-5
-1.366, 9.573e-5
-1.367, 9.573e-5
-1.368, 9.573e-5
-1.369, 9.573e-5
-1.370, 9.882e-5
-1.371, 9.882e-5
-1.372, 9.882e-5
-1.373, 9.882e-5
-1.374, 9.882e-5
-1.375, 9.882e-5
-1.376, 9.882e-5
-1.377, 9.882e-5
-1.378, 9.882e-5
-1.379, 9.882e-5
-1.380, 9.882e-5
-1.381, 9.882e-5
-1.382, 9.882e-5
-1.383, 9.882e-5
-1.384, 9.882e-5
-1.385, 1.019e-4
-1.386, 1.019e-4
-1.387, 1.019e-4
-1.388, 9.882e-5
-1.389, 1.019e-4
-1.390, 1.019e-4
-1.391, 1.019e-4
-1.392, 1.019e-4
-1.393, 1.019e-4
-1.394, 1.019e-4
-1.395, 1.019e-4
-1.396, 1.019e-4
-1.397, 1.019e-4
-1.398, 1.019e-4
-1.399, 1.050e-4
-1.400, 1.019e-4
-1.401, 1.050e-4
-1.402, 1.050e-4
-1.403, 1.050e-4
-1.404, 1.050e-4
-1.405, 1.050e-4
-1.406, 1.050e-4
-1.407, 1.050e-4
-1.408, 1.050e-4
-1.409, 1.081e-4
-1.410, 1.050e-4
-1.411, 1.081e-4
-1.412, 1.081e-4
-1.413, 1.081e-4
-1.414, 1.081e-4
-1.415, 1.081e-4
-1.416, 1.081e-4
-1.417, 1.081e-4
-1.418, 1.081e-4
-1.419, 1.081e-4
-1.420, 1.081e-4
-1.421, 1.081e-4
-1.422, 1.111e-4
-1.423, 1.111e-4
-1.424, 1.111e-4
-1.425, 1.111e-4
-1.426, 1.111e-4
-1.427, 1.111e-4
-1.428, 1.111e-4
-1.429, 1.142e-4
-1.430, 1.142e-4
-1.431, 1.142e-4
-1.432, 1.142e-4
-1.433, 1.142e-4
-1.434, 1.142e-4
-1.435, 1.142e-4
-1.436, 1.173e-4
-1.437, 1.173e-4
-1.438, 1.142e-4
-1.439, 1.173e-4
-1.440, 1.173e-4
-1.441, 1.173e-4
-1.442, 1.204e-4
-1.443, 1.173e-4
-1.444, 1.204e-4
-1.445, 1.204e-4
-1.446, 1.204e-4
-1.447, 1.204e-4
-1.448, 1.235e-4
-1.449, 1.204e-4
-1.450, 1.235e-4
-1.451, 1.235e-4
-1.452, 1.235e-4
-1.453, 1.235e-4
-1.454, 1.266e-4
-1.455, 1.266e-4
-1.456, 1.266e-4
-1.457, 1.266e-4
-1.458, 1.296e-4
-1.459, 1.296e-4
-1.460, 1.296e-4
-1.461, 1.296e-4
-1.462, 1.296e-4
-1.463, 1.327e-4
-1.464, 1.327e-4
-1.465, 1.358e-4
-1.466, 1.358e-4
-1.467, 1.358e-4
-1.468, 1.389e-4
-1.469, 1.389e-4
-1.470, 1.389e-4
-1.471, 1.389e-4
-1.472, 1.389e-4
-1.473, 1.420e-4
-1.474, 1.420e-4
-1.475, 1.451e-4
-1.476, 1.451e-4
-1.477, 1.451e-4
-1.478, 1.481e-4
-1.479, 1.512e-4
-1.480, 1.512e-4
-1.481, 1.512e-4
-1.482, 1.512e-4
-1.483, 1.543e-4
-1.484, 1.543e-4
-1.485, 1.543e-4
-1.486, 1.574e-4
-1.487, 1.574e-4
-1.488, 1.605e-4
-1.489, 1.605e-4
-1.490, 1.605e-4
-1.491, 1.636e-4
-1.492, 1.636e-4
-1.493, 1.666e-4
-1.494, 1.666e-4
-1.495, 1.697e-4
-1.496, 1.728e-4
-1.497, 1.728e-4
-1.498, 1.728e-4
-1.499, 1.759e-4
-1.500, 1.759e-4
-1.501, 1.790e-4
-1.502, 1.821e-4
-1.503, 1.821e-4
-1.504, 1.851e-4
-1.505, 1.882e-4
-1.506, 1.882e-4
-1.507, 1.913e-4
-1.508, 1.913e-4
-1.509, 1.944e-4
-1.510, 1.975e-4
-1.511, 2.006e-4
-1.512, 2.006e-4
-1.513, 2.036e-4
-1.514, 2.036e-4
-1.515, 2.098e-4
-1.516, 2.098e-4
-1.517, 2.129e-4
-1.518, 2.129e-4
-1.519, 2.160e-4
-1.520, 2.191e-4
-1.521, 2.221e-4
-1.522, 2.252e-4
-1.523, 2.283e-4
-1.524, 2.283e-4
-1.525, 2.314e-4
-1.526, 2.345e-4
-1.527, 2.376e-4
-1.528, 2.376e-4
-1.529, 2.437e-4
-1.530, 2.468e-4
-1.531, 2.499e-4
-1.532, 2.499e-4
-1.533, 2.530e-4
-1.534, 2.591e-4
-1.535, 2.622e-4
-1.536, 2.653e-4
-1.537, 2.684e-4
-1.538, 2.715e-4
-1.539, 2.746e-4
-1.540, 2.776e-4
-1.541, 2.807e-4
-1.542, 2.838e-4
-1.543, 2.900e-4
-1.544, 2.931e-4
-1.545, 2.961e-4
-1.546, 3.023e-4
-1.547, 3.054e-4
-1.548, 3.085e-4
-1.549, 3.146e-4
-1.550, 3.177e-4
-1.551, 3.208e-4
-1.552, 3.270e-4
-1.553, 3.300e-4
-1.554, 3.331e-4
-1.555, 3.393e-4
-1.556, 3.424e-4
-1.557, 3.485e-4
-1.558, 3.516e-4
-1.559, 3.578e-4
-1.560, 3.640e-4
-1.561, 3.701e-4
-1.562, 3.732e-4
-1.563, 3.794e-4
-1.564, 3.825e-4
-1.565, 3.886e-4
-1.566, 3.948e-4
-1.567, 3.979e-4
-1.568, 4.071e-4
-1.569, 4.102e-4
-1.570, 4.164e-4
-1.571, 4.195e-4
-1.572, 4.287e-4
-1.573, 4.318e-4
-1.574, 4.380e-4
-1.575, 4.441e-4
-1.576, 4.503e-4
-1.577, 4.565e-4
-1.578, 4.626e-4
-1.579, 4.688e-4
-1.580, 4.780e-4
-1.581, 4.811e-4
-1.582, 4.935e-4
-1.583, 4.965e-4
-1.584, 5.058e-4
-1.585, 5.120e-4
-1.586, 5.181e-4
-1.587, 5.274e-4
-1.588, 5.335e-4
-1.589, 5.428e-4
-1.590, 5.489e-4
-1.591, 5.582e-4
-1.592, 5.674e-4
-1.593, 5.736e-4
-1.594, 5.798e-4
-1.595, 5.921e-4
-1.596, 5.983e-4
-1.597, 6.044e-4
-1.598, 6.137e-4
-1.599, 6.229e-4
-1.600, 6.322e-4
-1.601, 6.414e-4
-1.602, 6.507e-4
-1.603, 6.599e-4
-1.604, 6.692e-4
-1.605, 6.784e-4
-1.606, 6.877e-4
-1.607, 7.000e-4
-1.608, 7.093e-4
-1.609, 7.216e-4
-1.610, 7.309e-4
-1.611, 7.401e-4
-1.612, 7.524e-4
-1.613, 7.648e-4
-1.614, 7.771e-4
-1.615, 7.863e-4
-1.616, 7.987e-4
-1.617, 8.110e-4
-1.618, 8.233e-4
-1.619, 8.357e-4
-1.620, 8.480e-4
-1.621, 8.603e-4
-1.622, 8.758e-4
-1.623, 8.881e-4
-1.624, 9.035e-4
-1.625, 9.158e-4
-1.626, 9.282e-4
-1.627, 9.436e-4
-1.628, 9.590e-4
-1.629, 9.744e-4
-1.630, 9.868e-4
-1.631, 1.002e-3
-1.632, 1.018e-3
-1.633, 1.033e-3
-1.634, 1.048e-3
-1.635, 1.064e-3
-1.636, 1.082e-3
-1.637, 1.098e-3
-1.638, 1.116e-3
-1.639, 1.135e-3
-1.640, 1.150e-3
-1.641, 1.172e-3
-1.642, 1.187e-3
-1.643, 1.206e-3
-1.644, 1.221e-3
-1.645, 1.243e-3
-1.646, 1.261e-3
-1.647, 1.283e-3
-1.648, 1.301e-3
-1.649, 1.320e-3
-1.650, 1.338e-3
-1.651, 1.360e-3
-1.652, 1.381e-3
-1.653, 1.403e-3
-1.654, 1.425e-3
-1.655, 1.446e-3
-1.656, 1.471e-3
-1.657, 1.489e-3
-1.658, 1.514e-3
-1.659, 1.536e-3
-1.660, 1.560e-3
-1.661, 1.585e-3
-1.662, 1.610e-3
-1.663, 1.637e-3
-1.664, 1.662e-3
-1.665, 1.687e-3
-1.666, 1.711e-3
-1.667, 1.736e-3
-1.668, 1.764e-3
-1.669, 1.788e-3
-1.670, 1.816e-3
-1.671, 1.844e-3
-1.672, 1.869e-3
-1.673, 1.899e-3
-1.674, 1.927e-3
-1.675, 1.955e-3
-1.676, 1.983e-3
-1.677, 2.013e-3
-1.678, 2.044e-3
-1.679, 2.072e-3
-1.680, 2.103e-3
-1.681, 2.131e-3
-1.682, 2.164e-3
-1.683, 2.195e-3
-1.684, 2.229e-3
-1.685, 2.260e-3
-1.686, 2.291e-3
-1.687, 2.322e-3
-1.688, 2.356e-3
-1.689, 2.386e-3
-1.690, 2.423e-3
-1.691, 2.457e-3
-1.692, 2.491e-3
-1.693, 2.525e-3
-1.694, 2.559e-3
-1.695, 2.590e-3
-1.696, 2.627e-3
-1.697, 2.664e-3
-1.698, 2.698e-3
-1.699, 2.735e-3
-1.700, 2.735e-3
-1.699, 2.692e-3
-1.698, 2.664e-3
-1.697, 2.633e-3
-1.696, 2.605e-3
-1.695, 2.578e-3
-1.694, 2.550e-3
-1.693, 2.525e-3
-1.692, 2.497e-3
-1.691, 2.470e-3
-1.690, 2.445e-3
-1.689, 2.417e-3
-1.688, 2.396e-3
-1.687, 2.368e-3
-1.686, 2.346e-3
-1.685, 2.322e-3
-1.684, 2.297e-3
-1.683, 2.272e-3
-1.682, 2.248e-3
-1.681, 2.220e-3
-1.680, 2.198e-3
-1.679, 2.174e-3
-1.678, 2.152e-3
-1.677, 2.128e-3
-1.676, 2.103e-3
-1.675, 2.078e-3
-1.674, 2.054e-3
-1.673, 2.032e-3
-1.672, 2.007e-3
-1.671, 1.986e-3
-1.670, 1.961e-3
-1.669, 1.936e-3
-1.668, 1.909e-3
-1.667, 1.884e-3
-1.666, 1.862e-3
-1.665, 1.835e-3
-1.664, 1.813e-3
-1.663, 1.788e-3
-1.662, 1.767e-3
-1.661, 1.745e-3
-1.660, 1.721e-3
-1.659, 1.699e-3
-1.658, 1.677e-3
-1.657, 1.656e-3
-1.656, 1.631e-3
-1.655, 1.610e-3
-1.654, 1.588e-3
-1.653, 1.566e-3
-1.652, 1.545e-3
-1.651, 1.523e-3
-1.650, 1.499e-3
-1.649, 1.477e-3
-1.648, 1.455e-3
-1.647, 1.437e-3
-1.646, 1.412e-3
-1.645, 1.391e-3
-1.644, 1.369e-3
-1.643, 1.351e-3
-1.642, 1.329e-3
-1.641, 1.307e-3
-1.640, 1.286e-3
-1.639, 1.264e-3
-1.638, 1.246e-3
-1.637, 1.224e-3
-1.636, 1.203e-3
-1.635, 1.184e-3
-1.634, 1.162e-3
-1.633, 1.144e-3
-1.632, 1.125e-3
-1.631, 1.107e-3
-1.630, 1.085e-3
-1.629, 1.067e-3
-1.628, 1.048e-3
-1.627, 1.030e-3
-1.626, 1.011e-3
-1.625, 9.929e-4
-1.624, 9.744e-4
-1.623, 9.559e-4
-1.622, 9.374e-4
-1.621, 9.189e-4
-1.620, 9.004e-4
-1.619, 8.850e-4
-1.618, 8.696e-4
-1.617, 8.511e-4
-1.616, 8.326e-4
-1.615, 8.172e-4
-1.614, 8.018e-4
-1.613, 7.863e-4
-1.612, 7.709e-4
-1.611, 7.555e-4
-1.610, 7.401e-4
-1.609, 7.247e-4
-1.608, 7.124e-4
-1.607, 6.969e-4
-1.606, 6.815e-4
-1.605, 6.661e-4
-1.604, 6.538e-4
-1.603, 6.384e-4
-1.602, 6.260e-4
-1.601, 6.106e-4
-1.600, 5.983e-4
-1.599, 5.859e-4
-1.598, 5.705e-4
-1.597, 5.582e-4
-1.596, 5.459e-4
-1.595, 5.335e-4
-1.594, 5.212e-4
-1.593, 5.058e-4
-1.592, 4.965e-4
-1.591, 4.842e-4
-1.590, 4.719e-4
-1.589, 4.595e-4
-1.588, 4.503e-4
-1.587, 4.380e-4
-1.586, 4.287e-4
-1.585, 4.164e-4
-1.584, 4.040e-4
-1.583, 3.948e-4
-1.582, 3.825e-4
-1.581, 3.732e-4
-1.580, 3.640e-4
-1.579, 3.516e-4
-1.578, 3.424e-4
-1.577, 3.362e-4
-1.576, 3.270e-4
-1.575, 3.146e-4
-1.574, 3.054e-4
-1.573, 2.961e-4
-1.572, 2.900e-4
-1.571, 2.776e-4
-1.570, 2.715e-4
-1.569, 2.622e-4
-1.568, 2.530e-4
-1.567, 2.468e-4
-1.566, 2.376e-4
-1.565, 2.283e-4
-1.564, 2.221e-4
-1.563, 2.160e-4
-1.562, 2.098e-4
-1.561, 2.006e-4
-1.560, 1.913e-4
-1.559, 1.882e-4
-1.558, 1.821e-4
-1.557, 1.728e-4
-1.556, 1.666e-4
-1.555, 1.605e-4
-1.554, 1.512e-4
-1.553, 1.481e-4
-1.552, 1.420e-4
-1.551, 1.327e-4
-1.550, 1.296e-4
-1.549, 1.266e-4
-1.548, 1.173e-4
-1.547, 1.111e-4
-1.546, 1.081e-4
-1.545, 1.019e-4
-1.544, 9.573e-5
-1.543, 8.957e-5
-1.542, 8.340e-5
-1.541, 8.032e-5
-1.540, 7.723e-5
-1.539, 7.107e-5
-1.538, 6.490e-5
-1.537, 6.182e-5
-1.536, 5.565e-5
-1.535, 5.257e-5
-1.534, 4.949e-5
-1.533, 4.332e-5
-1.532, 4.024e-5
-1.531, 3.715e-5
-1.530, 3.099e-5
-1.529, 2.790e-5
-1.528, 2.482e-5
-1.527, 2.174e-5
-1.526, 1.557e-5
-1.525, 1.249e-5
-1.524, 9.405e-6
-1.523, 6.322e-6
-1.522, 3.239e-6
-1.521, 1.559e-7
-1.520, -2.927e-6
-1.519, -6.010e-6
-1.518, -9.093e-6
-1.517, -9.093e-6
-1.516, -1.526e-5
-1.515, -1.834e-5
-1.514, -2.143e-5
-1.513, -2.451e-5
-1.512, -2.759e-5
-1.511, -3.068e-5
-1.510, -3.376e-5
-1.509, -3.684e-5
-1.508, -3.992e-5
-1.507, -3.992e-5
-1.506, -4.301e-5
-1.505, -4.609e-5
-1.504, -4.609e-5
-1.503, -4.917e-5
-1.502, -5.226e-5
-1.501, -5.226e-5
-1.500, -5.842e-5
-1.499, -5.842e-5
-1.498, -6.151e-5
-1.497, -6.459e-5
-1.496, -6.459e-5
-1.495, -6.767e-5
-1.494, -6.767e-5
-1.493, -7.076e-5
-1.492, -7.384e-5
-1.491, -7.692e-5
-1.490, -7.692e-5
-1.489, -7.692e-5
-1.488, -8.000e-5
-1.487, -8.309e-5
-1.486, -8.309e-5
-1.485, -8.617e-5
-1.484, -8.617e-5
-1.483, -8.617e-5
-1.482, -8.925e-5
-1.481, -9.234e-5
-1.480, -9.234e-5
-1.479, -9.234e-5
-1.478, -9.542e-5
-1.477, -9.850e-5
-1.476, -9.542e-5
-1.475, -9.850e-5
-1.474, -9.850e-5
-1.473, -1.016e-4
-1.472, -1.047e-4
-1.471, -1.047e-4
-1.470, -1.047e-4
-1.469, -1.078e-4
-1.468, -1.078e-4
-1.467, -1.108e-4
-1.466, -1.108e-4
-1.465, -1.108e-4
-1.464, -1.108e-4
-1.463, -1.139e-4
-1.462, -1.139e-4
-1.461, -1.139e-4
-1.460, -1.170e-4
-1.459, -1.170e-4
-1.458, -1.170e-4
-1.457, -1.201e-4
-1.456, -1.201e-4
-1.455, -1.201e-4
-1.454, -1.232e-4
-1.453, -1.232e-4
-1.452, -1.232e-4
-1.451, -1.263e-4
-1.450, -1.263e-4
-1.449, -1.293e-4
-1.448, -1.263e-4
-1.447, -1.293e-4
-1.446, -1.293e-4
-1.445, -1.293e-4
-1.444, -1.324e-4
-1.443, -1.324e-4
-1.442, -1.324e-4
-1.441, -1.324e-4
-1.440, -1.355e-4
-1.439, -1.324e-4
-1.438, -1.324e-4
-1.437, -1.324e-4
-1.436, -1.355e-4
-1.435, -1.355e-4
-1.434, -1.355e-4
-1.433, -1.386e-4
-1.432, -1.386e-4
-1.431, -1.386e-4
-1.430, -1.386e-4
-1.429, -1.386e-4
-1.428, -1.386e-4
-1.427, -1.386e-4
-1.426, -1.417e-4
-1.425, -1.386e-4
-1.424, -1.417e-4
-1.423, -1.386e-4
-1.422, -1.417e-4
-1.421, -1.417e-4
-1.420, -1.448e-4
-1.419, -1.417e-4
-1.418, -1.417e-4
-1.417, -1.417e-4
-1.416, -1.448e-4
-1.415, -1.448e-4
-1.414, -1.448e-4
-1.413, -1.448e-4
-1.412, -1.448e-4
-1.411, -1.448e-4
-1.410, -1.448e-4
-1.409, -1.448e-4
-1.408, -1.448e-4
-1.407, -1.478e-4
-1.406, -1.478e-4
-1.405, -1.448e-4
-1.404, -1.478e-4
-1.403, -1.478e-4
-1.402, -1.478e-4
-1.401, -1.478e-4
-1.400, -1.478e-4
-1.399, -1.478e-4
-1.398, -1.478e-4
-1.397, -1.478e-4
-1.396, -1.478e-4
-1.395, -1.478e-4
-1.394, -1.478e-4
-1.393, -1.478e-4
-1.392, -1.478e-4
-1.391, -1.478e-4
-1.390, -1.478e-4
-1.389, -1.478e-4
-1.388, -1.509e-4
-1.387, -1.478e-4
-1.386, -1.478e-4
-1.385, -1.509e-4
-1.384, -1.509e-4
-1.383, -1.509e-4
-1.382, -1.478e-4
-1.381, -1.509e-4
-1.380, -1.509e-4
-1.379, -1.509e-4
-1.378, -1.509e-4
-1.377, -1.478e-4
-1.376, -1.509e-4
-1.375, -1.509e-4
-1.374, -1.478e-4
-1.373, -1.509e-4
-1.372, -1.478e-4
-1.371, -1.478e-4
-1.370, -1.478e-4
-1.369, -1.509e-4
-1.368, -1.478e-4
-1.367, -1.478e-4
-1.366, -1.478e-4
-1.365, -1.509e-4
-1.364, -1.478e-4
-1.363, -1.478e-4
-1.362, -1.478e-4
-1.361, -1.478e-4
-1.360, -1.478e-4
-1.359, -1.478e-4
-1.358, -1.478e-4
-1.357, -1.478e-4
-1.356, -1.478e-4
-1.355, -1.478e-4
-1.354, -1.448e-4
-1.353, -1.448e-4
-1.352, -1.448e-4
-1.351, -1.448e-4
-1.350, -1.448e-4
-1.349, -1.448e-4
-1.348, -1.448e-4
-1.347, -1.448e-4
-1.346, -1.448e-4
-1.345, -1.417e-4
-1.344, -1.417e-4
-1.343, -1.417e-4
-1.342, -1.448e-4
-1.341, -1.448e-4
-1.340, -1.417e-4
-1.339, -1.417e-4
-1.338, -1.417e-4
-1.337, -1.417e-4
-1.336, -1.417e-4
-1.335, -1.417e-4
-1.334, -1.417e-4
-1.333, -1.386e-4
-1.332, -1.386e-4
-1.331, -1.386e-4
-1.330, -1.386e-4
-1.329, -1.386e-4
-1.328, -1.386e-4
-1.327, -1.386e-4
-1.326, -1.386e-4
-1.325, -1.386e-4
-1.324, -1.386e-4
-1.323, -1.386e-4
-1.322, -1.355e-4
-1.321, -1.386e-4
-1.320, -1.355e-4
-1.319, -1.355e-4
-1.318, -1.355e-4
-1.317, -1.355e-4
-1.316, -1.355e-4
-1.315, -1.355e-4
-1.314, -1.355e-4
-1.313, -1.355e-4
-1.312, -1.355e-4
-1.311, -1.324e-4
-1.310, -1.355e-4
-1.309, -1.355e-4
-1.308, -1.355e-4
-1.307, -1.324e-4
-1.306, -1.324e-4
-1.305, -1.324e-4
-1.304, -1.324e-4
-1.303, -1.324e-4
-1.302, -1.324e-4
-1.301, -1.324e-4
-1.300, -1.324e-4
-1.299, -1.324e-4
-1.298, -1.324e-4
-1.297, -1.293e-4
-1.296, -1.293e-4
-1.295, -1.293e-4
-1.294, -1.324e-4
-1.293, -1.293e-4
-1.292, -1.293e-4
-1.291, -1.293e-4
-1.290, -1.293e-4
-1.289, -1.293e-4
-1.288, -1.293e-4
-1.287, -1.293e-4
-1.286, -1.293e-4
-1.285, -1.293e-4
-1.284, -1.293e-4
-1.283, -1.263e-4
-1.282, -1.263e-4
-1.281, -1.263e-4
-1.280, -1.263e-4
-1.279, -1.263e-4
-1.278, -1.263e-4
-1.277, -1.263e-4
-1.276, -1.263e-4
-1.275, -1.263e-4
-1.274, -1.263e-4
-1.273, -1.263e-4
-1.272, -1.263e-4
-1.271, -1.263e-4
-1.270, -1.232e-4
-1.269, -1.232e-4
-1.268, -1.232e-4
-1.267, -1.232e-4
-1.266, -1.263e-4
-1.265, -1.232e-4
-1.264, -1.232e-4
-1.263, -1.232e-4
-1.262, -1.263e-4
-1.261, -1.232e-4
-1.260, -1.232e-4
-1.259, -1.232e-4
-1.258, -1.232e-4
-1.257, -1.232e-4
-1.256, -1.232e-4
-1.255, -1.232e-4
-1.254, -1.232e-4
-1.253, -1.232e-4
-1.252, -1.232e-4
-1.251, -1.232e-4
-1.250, -1.232e-4
-1.249, -1.232e-4
-1.248, -1.232e-4
-1.247, -1.232e-4
-1.246, -1.232e-4
-1.245, -1.232e-4
-1.244, -1.232e-4
-1.243, -1.263e-4
-1.242, -1.263e-4
-1.241, -1.232e-4
-1.240, -1.232e-4
-1.239, -1.232e-4
-1.238, -1.232e-4
-1.237, -1.232e-4
-1.236, -1.232e-4
-1.235, -1.232e-4
-1.234, -1.232e-4
-1.233, -1.263e-4
-1.232, -1.232e-4
-1.231, -1.232e-4
-1.230, -1.232e-4
-1.229, -1.263e-4
-1.228, -1.263e-4
-1.227, -1.263e-4
-1.226, -1.263e-4
-1.225, -1.263e-4
-1.224, -1.232e-4
-1.223, -1.263e-4
-1.222, -1.263e-4
-1.221, -1.263e-4
-1.220, -1.263e-4
-1.219, -1.263e-4
-1.218, -1.263e-4
-1.217, -1.263e-4
-1.216, -1.263e-4
-1.215, -1.263e-4
-1.214, -1.263e-4
-1.213, -1.263e-4
-1.212, -1.263e-4
-1.211, -1.263e-4
-1.210, -1.263e-4
-1.209, -1.263e-4
-1.208, -1.263e-4
-1.207, -1.263e-4
-1.206, -1.263e-4
-1.205, -1.293e-4
-1.204, -1.263e-4
-1.203, -1.293e-4
-1.202, -1.293e-4
-1.201, -1.293e-4
-1.200, -1.293e-4
-1.199, -1.293e-4
-1.198, -1.293e-4
-1.197, -1.293e-4
-1.196, -1.293e-4
-1.195, -1.293e-4
-1.194, -1.293e-4
-1.193, -1.293e-4
-1.192, -1.324e-4
-1.191, -1.293e-4
-1.190, -1.293e-4
-1.189, -1.293e-4
-1.188, -1.293e-4
-1.187, -1.324e-4
-1.186, -1.324e-4
-1.185, -1.293e-4
-1.184, -1.293e-4
-1.183, -1.324e-4
-1.182, -1.324e-4
-1.181, -1.324e-4
-1.180, -1.324e-4
-1.179, -1.324e-4
-1.178, -1.324e-4
-1.177, -1.324e-4
-1.176, -1.324e-4
-1.175, -1.324e-4
-1.174, -1.324e-4
-1.173, -1.324e-4
-1.172, -1.324e-4
-1.171, -1.324e-4
-1.170, -1.355e-4
-1.169, -1.355e-4
-1.168, -1.355e-4
-1.167, -1.355e-4
-1.166, -1.355e-4
-1.165, -1.355e-4
-1.164, -1.355e-4
-1.163, -1.355e-4
-1.162, -1.355e-4
-1.161, -1.355e-4
-1.160, -1.355e-4
-1.159, -1.355e-4
-1.158, -1.355e-4
-1.157, -1.355e-4
-1.156, -1.355e-4
-1.155, -1.386e-4
-1.154, -1.386e-4
-1.153, -1.355e-4
-1.152, -1.355e-4
-1.151, -1.386e-4
-1.150, -1.386e-4
-1.149, -1.355e-4
-1.148, -1.386e-4
-1.147, -1.386e-4
-1.146, -1.386e-4
-1.145, -1.386e-4
-1.144, -1.386e-4
-1.143, -1.386e-4
-1.142, -1.386e-4
-1.141, -1.386e-4
-1.140, -1.386e-4
-1.139, -1.386e-4
-1.138, -1.386e-4
-1.137, -1.386e-4
-1.136, -1.417e-4
-1.135, -1.417e-4
-1.134, -1.386e-4
-1.133, -1.386e-4
-1.132, -1.417e-4
-1.131, -1.417e-4
-1.130, -1.417e-4
-1.129, -1.417e-4
-1.128, -1.417e-4
-1.127, -1.417e-4
-1.126, -1.417e-4
-1.125, -1.417e-4
-1.124, -1.417e-4
-1.123, -1.417e-4
-1.122, -1.417e-4
-1.121, -1.448e-4
-1.120, -1.417e-4
-1.119, -1.417e-4
-1.118, -1.417e-4
-1.117, -1.448e-4
-1.116, -1.448e-4
-1.115, -1.417e-4
-1.114, -1.417e-4
-1.113, -1.448e-4
-1.112, -1.448e-4
-1.111, -1.448e-4
-1.110, -1.448e-4
-1.109, -1.448e-4
-1.108, -1.448e-4
-1.107, -1.448e-4
-1.106, -1.448e-4
-1.105, -1.448e-4
-1.104, -1.448e-4
-1.103, -1.478e-4
-1.102, -1.478e-4
-1.101, -1.478e-4
-1.100, -1.448e-4
-1.099, -1.478e-4
-1.098, -1.478e-4
-1.097, -1.478e-4
-1.096, -1.448e-4
-1.095, -1.478e-4
-1.094, -1.478e-4
-1.093, -1.509e-4
-1.092, -1.478e-4
-1.091, -1.478e-4
-1.090, -1.478e-4
-1.089, -1.509e-4
-1.088, -1.509e-4
-1.087, -1.509e-4
-1.086, -1.509e-4
-1.085, -1.509e-4
-1.084, -1.509e-4
-1.083, -1.509e-4
-1.082, -1.509e-4
-1.081, -1.509e-4
-1.080, -1.509e-4
-1.079, -1.509e-4
-1.078, -1.509e-4
-1.077, -1.509e-4
-1.076, -1.509e-4
-1.075, -1.540e-4
-1.074, -1.540e-4
-1.073, -1.540e-4
-1.072, -1.540e-4
-1.071, -1.540e-4
-1.070, -1.540e-4
-1.069, -1.540e-4
-1.068, -1.540e-4
-1.067, -1.540e-4
-1.066, -1.540e-4
-1.065, -1.540e-4
-1.064, -1.540e-4
-1.063, -1.540e-4
-1.062, -1.540e-4
-1.061, -1.540e-4
-1.060, -1.571e-4
-1.059, -1.571e-4
-1.058, -1.571e-4
-1.057, -1.571e-4
-1.056, -1.571e-4
-1.055, -1.571e-4
-1.054, -1.571e-4
-1.053, -1.571e-4
-1.052, -1.571e-4
-1.051, -1.571e-4
-1.050, -1.571e-4
-1.049, -1.571e-4
-1.048, -1.571e-4
-1.047, -1.602e-4
-1.046, -1.602e-4
-1.045, -1.571e-4
-1.044, -1.571e-4
-1.043, -1.602e-4
-1.042, -1.602e-4
-1.041, -1.602e-4
-1.040, -1.602e-4
-1.039, -1.602e-4
-1.038, -1.602e-4
-1.037, -1.602e-4
-1.036, -1.602e-4
-1.035, -1.602e-4
-1.034, -1.602e-4
-1.033, -1.632e-4
-1.032, -1.602e-4
-1.031, -1.602e-4
-1.030, -1.602e-4
-1.029, -1.632e-4
-1.028, -1.632e-4
-1.027, -1.632e-4
-1.026, -1.632e-4
-1.025, -1.632e-4
-1.024, -1.632e-4
-1.023, -1.632e-4
-1.022, -1.632e-4
-1.021, -1.632e-4
-1.020, -1.663e-4
-1.019, -1.663e-4
-1.018, -1.663e-4
-1.017, -1.663e-4
-1.016, -1.663e-4
-1.015, -1.663e-4
-1.014, -1.663e-4
-1.013, -1.694e-4
-1.012, -1.663e-4
-1.011, -1.663e-4
-1.010, -1.663e-4
-1.009, -1.694e-4
-1.008, -1.694e-4
-1.007, -1.694e-4
-1.006, -1.694e-4
-1.005, -1.694e-4
-1.004, -1.694e-4
-1.003, -1.694e-4
-1.002, -1.694e-4
-1.001, -1.694e-4
