Potential V vs RHE, Current mA cm-2
0.013299999999999867,-0.19070308322180693
0.012299999999999978,-2.4064239210704272
0.011299999999999866,-4.237060343095785
0.010299999999999976,-5.463615040078771
0.009299999999999864,-6.289806439199953
0.008299999999999974,-7.230589453610202
0.007299999999999862,-7.9888747103378615
0.006299999999999972,-8.363773204802097
0.00529999999999986,-8.860336871054725
0.0042999999999999705,-9.45734503959777
0.0032999999999998586,-9.675210579776985
0.0022999999999999687,-9.911467366854446
0.0012999999999998568,-10.391054497508694
0.00029999999999996696,-10.596187635989125
-0.000700000000000145,-10.662679067082781
-0.0017000000000000348,-11.013527469449311
-0.0027000000000001467,-11.295055018122452
-0.0037000000000000366,-11.273834348624478
-0.0047000000000001485,-11.480382198404772
-0.005700000000000038,-11.812839353873056
-0.00670000000000015,-11.819912910372382
-0.00770000000000004,-11.853865981569143
-0.008700000000000152,-12.166517178839316
-0.009700000000000042,-12.249985145531353
-0.010700000000000154,-12.194811404836617
-0.011700000000000044,-12.440971171013134
-0.012700000000000156,-12.613565949596667
-0.013700000000000045,-12.494730200408004
-0.014700000000000157,-12.65034844339316
-0.015700000000000047,-12.919143590367515
-0.01670000000000016,-12.883775807870888
-0.01770000000000005,-12.879531673971293
-0.01870000000000016,-13.139838553146461
-0.01970000000000005,-13.190768159941602
-0.020700000000000163,-13.073347122052803
-0.021700000000000053,-13.275650837933506
-0.022700000000000164,-13.421366101819604
-0.023700000000000054,-13.281309683132966
-0.024700000000000166,-13.401560143621493
-0.025700000000000056,-13.644890487198278
-0.026700000000000168,-13.572740210905161
-0.027700000000000058,-13.569910788305432
-0.02870000000000017,-13.814655843182084
-0.02970000000000006,-13.827388244880868
-0.03070000000000017,-13.714211340891666
-0.03170000000000006,-13.885391408175334
-0.03270000000000017,-14.021203692962377
-0.03370000000000006,-13.872659006476551
-0.034700000000000175,-13.956126973168587
-0.035700000000000065,-14.175407224647667
-0.03670000000000018,-14.09193925795563
-0.03770000000000007,-14.06930387715779
-0.03870000000000018,-14.316878354634172
-0.03970000000000007,-14.331025467632822
-0.04070000000000018,-14.217848563643619
-0.04170000000000007,-14.401761032626075
-0.04270000000000018,-14.500790823616628
-0.04370000000000007,-14.345172580631472
-0.044700000000000184,-14.415908145624723
-0.045700000000000074,-14.62811484060448
-0.046700000000000186,-14.514937936615278
-0.047700000000000076,-14.486643710617974
-0.04870000000000019,-14.741291744593681
-0.04970000000000008,-14.783733083589633
-0.05070000000000019,-14.65640906660178
-0.05170000000000008,-14.854468648582884
-0.05270000000000019,-14.967645552572087
-0.05370000000000008,-14.812027309586934
-0.05470000000000019,-14.896909987578834
-0.05570000000000008,-15.094969569559943
-0.056700000000000195,-14.995939778569388
-0.057700000000000085,-14.953498439573437
-0.058700000000000196,-15.165705134553193
-0.059700000000000086,-15.193999360550496
-0.0607000000000002,-15.05252823056399
-0.06170000000000009,-15.264734925543747
-0.0627000000000002,-15.4203531685289
-0.06370000000000009,-15.236440699546446
-0.0647000000000002,-15.307176264539699
-0.06570000000000009,-15.519382959519453
-0.0667000000000002,-15.3920589425316
-0.0677000000000001,-15.349617603535648
-0.0687000000000002,-15.575971411514052
-0.0697000000000001,-15.575971411514052
-0.07070000000000021,-15.448647394526201
-0.0717000000000001,-15.618412750510005
-0.07270000000000021,-15.759883880496508
-0.0737000000000001,-15.604265637511356
-0.07470000000000021,-15.675001202504609
-0.0757000000000001,-15.901355010483012
-0.07670000000000021,-15.78817810649381
-0.0777000000000001,-15.74573676749786
-0.07870000000000021,-15.986237688474914
-0.0797000000000001,-15.986237688474914
-0.08070000000000022,-15.858913671487063
-0.0817000000000001,-16.02867902747086
-0.08270000000000022,-16.15600304445872
-0.08370000000000011,-16.014531914472215
-0.08470000000000022,-16.085267479465468
-0.08570000000000011,-16.325768400442524
-0.08670000000000022,-16.25503283544927
-0.08770000000000011,-16.21259149645332
-0.08870000000000022,-16.453092417430376
-0.08970000000000011,-16.481386643427676
-0.09070000000000022,-16.325768400442524
-0.09170000000000011,-16.52382798242363
-0.09270000000000023,-16.637004886412832
-0.09370000000000012,-16.481386643427676
-0.09470000000000023,-16.55212220842093
-0.09570000000000012,-16.764328903400685
-0.09670000000000023,-16.665299112410132
-0.09770000000000012,-16.622857773414182
-0.09870000000000023,-16.835064468393938
-0.09970000000000012,-16.877505807389888
-0.10070000000000023,-16.750181790402035
-0.10170000000000012,-16.919947146385837
-0.10270000000000024,-17.061418276372343
-0.10370000000000013,-16.919947146385837
-0.10470000000000024,-16.99068271137909
-0.10570000000000013,-17.20288940635885
-0.10670000000000024,-17.118006728366943
-0.10770000000000013,-17.07556538937099
-0.10870000000000024,-17.301919197349395
-0.10970000000000013,-17.34436053634535
-0.11070000000000024,-17.217036519357496
-0.11170000000000013,-17.40094898833995
-0.11270000000000002,-17.542420118326454
-0.11370000000000013,-17.40094898833995
-0.11470000000000002,-17.4433903273359
-0.11570000000000014,-17.683891248312957
-0.11670000000000003,-17.599008570321057
-0.11770000000000014,-17.542420118326454
-0.11870000000000003,-17.797068152302163
-0.11970000000000014,-17.839509491298113
-0.12070000000000003,-17.72633258730891
-0.12170000000000014,-17.910245056291366
-0.12270000000000003,-18.06586329927652
-0.12370000000000014,-17.952686395287316
-0.12470000000000003,-18.03756907327922
-0.12570000000000014,-18.263922881257624
-0.12670000000000003,-18.221481542261674
-0.12770000000000015,-18.19318731626437
-0.12870000000000004,-18.44783535024008
-0.12970000000000015,-18.504423802234676
-0.13070000000000004,-18.362952672248177
-0.13170000000000015,-18.561012254229283
-0.13270000000000004,-18.759071836210385
-0.13370000000000015,-18.660042045219836
-0.13470000000000004,-18.759071836210385
-0.13570000000000015,-18.97127853119014
-0.13670000000000004,-18.92883719219419
-0.13770000000000016,-18.858101627200938
-0.13870000000000005,-19.098602548177997
-0.13970000000000016,-19.141043887173947
-0.14070000000000005,-18.95713141819149
-0.14170000000000016,-19.126896774175293
-0.14270000000000005,-19.28251501716045
-0.14370000000000016,-19.141043887173947
-0.14470000000000005,-19.211779452167196
-0.14570000000000016,-19.4381332601456
-0.14670000000000005,-19.353250582153702
-0.14770000000000016,-19.296662130159103
-0.14870000000000005,-19.523015938137508
-0.14970000000000017,-19.551310164134804
-0.15070000000000006,-19.423986147146955
-0.15170000000000017,-19.593751503130758
-0.15270000000000006,-19.763516859114564
-0.15370000000000017,-19.636192842126707
-0.15470000000000006,-19.70692840711996
-0.15570000000000017,-19.97572355409432
-0.15670000000000006,-19.93328221509837
-0.15770000000000017,-19.890840876102416
-0.15870000000000006,-20.14548891007812
-0.15970000000000018,-20.159636023076775
-0.16070000000000007,-20.01816489309027
-0.16170000000000018,-20.17378313607542
-0.16270000000000007,-20.315254266061928
-0.16370000000000018,-20.202077362072725
-0.16470000000000007,-20.301107153063278
-0.16570000000000018,-20.555755187038983
-0.16670000000000007,-20.499166735044383
-0.16770000000000018,-20.44257828304978
-0.16870000000000007,-20.683079204026836
-0.16970000000000018,-20.75381476902009
-0.17070000000000007,-20.654784978029536
-0.17170000000000019,-20.85284456001064
-0.17270000000000008,-21.022609915994444
-0.1737000000000002,-20.89528589900659
-0.17470000000000008,-20.95187435100119
-0.1757000000000002,-21.19237527197825
-0.17670000000000008,-21.093345480987697
-0.1777000000000002,-21.065051254990397
-0.17870000000000008,-21.30555217596745
-0.1797000000000002,-21.376287740960702
-0.18070000000000008,-21.2348166109742
-0.1817000000000002,-21.418729079956652
-0.18270000000000008,-21.602641548939108
-0.1837000000000002,-21.461170418952605
-0.1847000000000001,-21.531905983945855
-0.1857000000000002,-21.772406904922917
-0.1867000000000001,-21.67337711393236
-0.1877000000000002,-21.61678866193776
-0.1887000000000001,-21.885583808912116
-0.1897000000000002,-21.94217226090672
-0.1907000000000001,-21.857289582914817
-0.1917000000000001,-22.027054938898623
-0.19269999999999998,-22.225114520879725
-0.1937000000000001,-22.111937616890522
-0.19469999999999998,-22.168526068885125
-0.1957000000000001,-22.42317410286083
-0.19669999999999999,-22.36658565086623
-0.1977000000000001,-22.33829142486893
-0.1987,-22.592939458844636
-0.1997000000000001,-22.67782213683654
-0.2007,-22.592939458844636
-0.2017000000000001,-22.833440379821692
-0.2027,-23.059794187800097
-0.2037000000000001,-22.974911509808198
-0.2047,-23.059794187800097
-0.2057000000000001,-23.342736447773106
-0.2067,-23.314442221775803
-0.2077000000000001,-23.286147995778503
-0.2087,-23.58323736875016
-0.2097000000000001,-23.66812004674206
-0.2107,-23.56909025575151
-0.2117000000000001,-23.795444063729917
-0.2127,-24.021797871708326
-0.2137000000000001,-23.92276808071777
-0.2147,-24.035944984706973
-0.2157000000000001,-24.37547569667458
-0.2167,-24.33303435767863
-0.21770000000000012,-24.304740131681328
-0.2187,-24.57353527865569
-0.21970000000000012,-24.67256506964624
-0.2207,-24.587682391654337
-0.22170000000000012,-24.799889086634096
-0.2227,-25.04039000761115
-0.22370000000000012,-24.95550732961925
-0.2247,-25.06868423360845
-0.22570000000000012,-25.36577360658011
-0.2267,-25.37992071957876
-0.22770000000000012,-25.39406783257741
-0.22870000000000001,-25.705304318547718
-0.22970000000000013,-25.846775448534224
-0.23070000000000002,-25.832628335535567
-0.23170000000000013,-26.087276369511276
-0.23270000000000002,-26.38436574248293
-0.23370000000000013,-26.356071516485635
-0.23470000000000002,-26.511689759470787
-0.23570000000000013,-26.879514697435695
-0.23670000000000002,-26.936103149430302
-0.2376999999999999,-27.00683871442355
-0.23870000000000002,-27.38881076538711
-0.2396999999999999,-27.572723234369565
-0.24070000000000003,-27.58687034736821
-0.24169999999999991,-27.898106833338524
-0.24270000000000003,-28.19519620631018
-0.24369999999999992,-28.22349043230748
-0.24470000000000003,-28.435697127287238
-0.24569999999999992,-28.789374952253496
-0.24670000000000003,-28.831816291249446
-0.24769999999999992,-28.9025518562427
-0.24870000000000003,-29.32696524620221
-0.24969999999999992,-29.55331905418062
-0.25070000000000003,-29.581613280177915
-0.2516999999999999,-29.935291105144174
-0.25270000000000004,-30.274821817111786
-0.2536999999999999,-30.359704495103685
-0.25470000000000004,-30.600205416080744
-0.2556999999999999,-31.052913032037555
-0.25670000000000004,-31.23682550102001
-0.25769999999999993,-31.420737970002463
-0.25870000000000004,-31.84515135996197
-0.25969999999999993,-32.12809361993498
-0.26070000000000004,-32.22712341092554
-0.26169999999999993,-32.62324257488775
-0.26270000000000004,-33.04765596484726
-0.26369999999999993,-33.14668575583781
-0.26470000000000005,-33.45792224180811
-0.26569999999999994,-33.96721830975953
-0.26670000000000005,-34.207719230736586
-0.26769999999999994,-34.41992592571634
-0.26870000000000005,-34.94336910666641
-0.26969999999999994,-35.282899818634014
-0.27070000000000005,-35.43851806161916
-0.27169999999999994,-35.87707856457733
-0.27270000000000005,-36.329786180534136
-0.27369999999999994,-36.49955153651795
-0.27470000000000006,-36.8532293614842
-0.27569999999999995,-37.44740810742752
-0.27670000000000006,-37.73035036740053
-0.27769999999999995,-38.01329262737354
-0.27870000000000006,-38.6216184863155
-0.27969999999999995,-39.046031876275016
-0.28070000000000006,-39.272385684253415
-0.28169999999999995,-39.80997597820213
-0.28270000000000006,-40.34756627215084
-0.28369999999999995,-40.602214306126555
-0.28470000000000006,-41.02662769608606
-0.28569999999999995,-41.69154200702263
-0.28670000000000007,-42.087661170984845
-0.28769999999999996,-42.4413389959511
-0.28870000000000007,-43.148694645883616
-0.28969999999999996,-43.672137826833676
-0.29070000000000007,-43.99752142580264
-0.29169999999999996,-44.619994397743255
-0.29270000000000007,-45.27076159568118
-0.29369999999999996,-45.624439420647434
-0.2947000000000001,-46.204471053592094
-0.29569999999999996,-46.94012092952192
-0.2967000000000001,-47.40697565847737
-0.29769999999999996,-47.87383038743284
-0.2987000000000001,-48.65192160235861
-0.29969999999999997,-49.28854168729788
-0.3007000000000001,-49.72710219025603
-0.30169999999999997,-50.47689917918451
-0.3027000000000001,-51.25499039411028
-0.30369999999999997,-51.665256671071134
-0.3047000000000001,-52.24528830401581
-0.30569999999999997,-53.079967970936174
-0.3067000000000001,-53.64585249088219
-0.3077,-54.24003123682551
-0.3087000000000001,-55.13129935574048
-0.3097,-55.8669492316703
-0.3107000000000001,-56.37624529962171
-0.3117,-57.15433651454749
-0.3127000000000001,-57.9465748424719
-0.3137,-58.498312249419264
-0.3147000000000001,-59.20566789935179
-0.3157,-60.21011292225596
-0.3167000000000001,-60.93161568518713
-0.3177,-61.58238288312505
-0.3187000000000001,-62.53023945403463
-0.3197,-63.3366248949577
-0.3207000000000001,-63.95909786689831
-0.3217,-64.87866021181057
-0.3227000000000001,-65.86895812171612
-0.3237,-66.56216665864997
-0.3247000000000001,-67.41099343856901
-0.3257,-68.50032113946509
-0.3267000000000001,-69.2925594673895
-0.3277,-70.04235645631796
-0.3287000000000001,-71.15997838321134
-0.3297,-72.10783495412092
-0.3307000000000001,-72.84348483005074
-0.3317,-73.8762240789522
-0.3327000000000001,-74.9089633278537
-0.3337,-75.68705454277946
-0.3347000000000001,-76.64905822668769
-0.3357,-77.83741571857432
-0.3367000000000001,-78.79941940248254
-0.3377,-79.69068752139752
-0.3387000000000001,-80.8366036742882
-0.3397,-81.88349003618832
-0.3407000000000001,-82.76061104210466
-0.3417,-83.93482142099262
-0.3427000000000001,-85.15147313887655
-0.3437,-86.07103548378883
-0.3447000000000001,-87.14621607168625
-0.3457,-88.44775046756209
-0.3467000000000001,-89.50878394246087
-0.3477,-90.5839645303583
-0.3487000000000001,-91.97038160422603
-0.3497,-93.21532754810727
-0.3507000000000001,-94.33294947500065
-0.3517,-95.70521943586974
-0.3527000000000001,-97.11993073573475
-0.3537,-98.2234055496295
-0.3547000000000001,-99.38346881551882
-0.3557,-100.71329743739196
-0.35670000000000013,-101.84506647728399
-0.3577,-102.93439417818009
-0.35870000000000013,-104.27836991305185
-0.3597,-105.42428606594254
-0.36070000000000013,-106.457025314844
-0.3617,-107.88588372770771
-0.3626999999999999,-109.3147421405714
-0.3637,-110.43236406746476
-0.3646999999999999,-111.69145712434464
-0.3657,-113.10616842420968
-0.3666999999999999,-114.28037880309766
-0.3677,-115.5253247469789
-0.3686999999999999,-117.05321295083314
-0.36970000000000003,-118.35474734670898
-0.3706999999999999,-119.4299279346064
-0.37170000000000003,-120.87293346046872
-0.3726999999999999,-122.33008609932973
-0.37370000000000003,-123.5042964782177
-0.3746999999999999,-124.80583087409354
-0.37570000000000003,-126.37616041694372
-0.3766999999999999,-127.72013615181551
-0.37770000000000004,-129.03581766069
-0.3786999999999999,-130.64858854253615
-0.37970000000000004,-132.16232963339172
-0.3806999999999999,-133.40727557727294
-0.38170000000000004,-134.87857532913262
-0.38269999999999993,-136.47719909798008
-0.38370000000000004,-137.75043926785864
-0.38469999999999993,-139.19344479372097
-0.38570000000000004,-140.89109835355902
-0.38669999999999993,-139.61785818368048
-0.38570000000000004,-135.96790303002868
-0.38469999999999993,-133.40727557727294
-0.38370000000000004,-131.1720317234862
-0.38269999999999993,-128.8377580787089
-0.38170000000000004,-126.89960359789379
-0.3806999999999999,-125.08877313406653
-0.37970000000000004,-123.00914752326493
-0.3786999999999999,-121.0851401554485
-0.37770000000000004,-119.44407504760505
-0.3766999999999999,-117.61909747077915
-0.37570000000000003,-115.77997278095461
-0.3746999999999999,-114.19549612510575
-0.37370000000000003,-112.52613679126502
-0.3726999999999999,-110.64457076244452
-0.37170000000000003,-109.06009410659567
-0.3706999999999999,-107.58879435473604
-0.36970000000000003,-105.84869945590204
-0.3686999999999999,-104.16519300906265
-0.3677,-102.693893257203
-0.3666999999999999,-100.96794547136767
-0.3657,-99.19955634653638
-0.3646999999999999,-97.77069793367268
-0.3637,-96.20036839082249
-0.3626999999999999,-94.4602734919885
-0.3617,-92.9748266271302
-0.36070000000000013,-91.53182110126787
-0.3597,-89.83416754142982
-0.35870000000000013,-88.26383799857963
-0.3577,-86.9623036027038
-0.35670000000000013,-85.33538560785901
-0.3557,-83.65187916101961
-0.3547000000000001,-82.32205053914649
-0.3537,-80.90733923928146
-0.3527000000000001,-79.2945683574353
-0.3517,-78.00718107455812
-0.3507000000000001,-76.79052935667418
-0.3497,-75.23434692682265
-0.3487000000000001,-73.80548851395896
-0.3477,-72.60298390907369
-0.3467000000000001,-71.2590081742019
-0.3457,-69.88673821333282
-0.3447000000000001,-68.8115576254354
-0.3437,-67.63734724654739
-0.3427000000000001,-66.20848883368372
-0.3417,-65.06257268079304
-0.3407000000000001,-63.98739209289561
-0.3397,-62.60097501902788
-0.3387000000000001,-61.398470414142594
-0.3377,-60.46476095623167
-0.3367000000000001,-59.304697690342344
-0.3357,-58.116340198455696
-0.3347000000000001,-57.182630740544774
-0.3337,-56.14989149164331
-0.3327000000000001,-54.834209982768826
-0.3317,-53.77317650787004
-0.3307000000000001,-52.79702571096317
-0.3297,-51.495491315087335
-0.3287000000000001,-50.3637222751953
-0.3277,-49.514895495276285
-0.3267000000000001,-48.38312645538425
-0.3257,-47.19476896349763
-0.3247000000000001,-46.30350084458265
-0.3237,-45.27076159568118
-0.3227000000000001,-44.068256990795895
-0.3217,-43.148694645883616
-0.3207000000000001,-42.29986786596459
-0.3197,-41.083216148080666
-0.3187000000000001,-39.97974133418594
-0.3177,-39.159208780264215
-0.3167000000000001,-38.12646953136274
-0.3157,-37.05128894346531
-0.3147000000000001,-36.30149195453684
-0.3137,-35.45266517461782
-0.3127000000000001,-34.36333747372174
-0.3117,-33.57109914579732
-0.3107000000000001,-32.79300793087155
-0.3097,-31.77441579496872
-0.3087000000000001,-30.91144190205105
-0.3077,-30.260674704113132
-0.3067000000000001,-29.34111235920086
-0.30569999999999997,-28.379108675292635
-0.3047000000000001,-27.700047251357418
-0.30369999999999997,-26.97854448842625
-0.3027000000000001,-26.016540804518023
-0.30169999999999997,-25.36577360658011
-0.3007000000000001,-24.771594860636792
-0.29969999999999997,-23.86617962872317
-0.2987000000000001,-23.1163826397947
-0.29769999999999996,-22.578792345845983
-0.2967000000000001,-21.772406904922917
-0.29569999999999996,-20.90943301200524
-0.2947000000000001,-20.357695605057877
-0.29369999999999996,-19.70692840711996
-0.29270000000000007,-18.829807401203638
-0.29169999999999996,-18.249775768258974
-0.29070000000000007,-17.74047970030756
-0.28969999999999996,-16.94824137238314
-0.28870000000000007,-16.28332706144657
-0.28769999999999996,-15.844766558488407
-0.28670000000000007,-15.123263795557243
-0.28569999999999995,-14.373466806628771
-0.28470000000000006,-13.913685634172637
-0.28369999999999995,-13.33931284642743
-0.28270000000000006,-12.568295188000986
-0.28169999999999995,-12.060413831349438
-0.28070000000000006,-11.60629150409276
-0.27969999999999995,-10.866397494263348
-0.27870000000000006,-10.270804037020167
-0.27769999999999995,-9.944005726751344
-0.27670000000000006,-9.327191600010188
-0.27569999999999995,-8.643886042175374
-0.27470000000000006,-8.3029406189079
-0.27369999999999994,-7.865794827249602
-0.27270000000000005,-7.149950909517895
-0.27169999999999994,-6.7481729003562245
-0.27070000000000005,-6.397324497989696
-0.26969999999999994,-5.7706073921494845
-0.26870000000000005,-5.252823056398881
-0.26769999999999994,-4.979783775524929
