June 30, 2026   09:25:59
Cyclic Voltammetry
File: c:/users/guazh/data/20260623_doe_duplica2/2026-06-24-exp49\exp49-2026-06-30t09_03_07-h2koh\exp49_cv_sr_300mvs_efin_-1800mv.bin
Data Source:  Experiment
Instrument Model:  CHI760E
Header: CV ran at 300 mVs
Note: 

Init E (V) = -1
High E (V) = -1
Low E (V) = -1.8
Final E (V) = -1
Init P/N = N
Scan Rate (V/s) = 0.3
Segment = 3
Sample Interval (V) = 0.001
Quiet Time (sec) = 2
Sensitivity (A/V) = 0.01
Comp R (ohm) = 2.0

Results:

Channel 1:
Segment 1:

Segment 2:

Segment 3:

Potential/V, Current/A

-1.000, 1.559e-7
-1.001, 3.239e-6
-1.002, 6.322e-6
-1.003, 6.322e-6
-1.004, 9.405e-6
-1.005, 9.405e-6
-1.006, 9.405e-6
-1.007, 1.249e-5
-1.008, 1.249e-5
-1.009, 1.249e-5
-1.010, 1.249e-5
-1.011, 1.557e-5
-1.012, 1.557e-5
-1.013, 1.557e-5
-1.014, 1.865e-5
-1.015, 1.865e-5
-1.016, 1.557e-5
-1.017, 1.865e-5
-1.018, 1.865e-5
-1.019, 1.865e-5
-1.020, 1.865e-5
-1.021, 2.174e-5
-1.022, 2.174e-5
-1.023, 2.174e-5
-1.024, 2.174e-5
-1.025, 2.174e-5
-1.026, 2.174e-5
-1.027, 2.174e-5
-1.028, 2.174e-5
-1.029, 2.482e-5
-1.030, 2.482e-5
-1.031, 2.482e-5
-1.032, 2.482e-5
-1.033, 2.482e-5
-1.034, 2.482e-5
-1.035, 2.482e-5
-1.036, 2.482e-5
-1.037, 2.790e-5
-1.038, 2.482e-5
-1.039, 2.790e-5
-1.040, 2.482e-5
-1.041, 2.790e-5
-1.042, 2.790e-5
-1.043, 2.790e-5
-1.044, 2.790e-5
-1.045, 2.790e-5
-1.046, 2.790e-5
-1.047, 2.790e-5
-1.048, 2.790e-5
-1.049, 2.790e-5
-1.050, 2.790e-5
-1.051, 2.790e-5
-1.052, 3.099e-5
-1.053, 2.790e-5
-1.054, 2.790e-5
-1.055, 3.099e-5
-1.056, 2.790e-5
-1.057, 3.099e-5
-1.058, 3.099e-5
-1.059, 3.099e-5
-1.060, 3.099e-5
-1.061, 3.099e-5
-1.062, 3.099e-5
-1.063, 3.099e-5
-1.064, 3.099e-5
-1.065, 3.099e-5
-1.066, 3.099e-5
-1.067, 3.099e-5
-1.068, 3.099e-5
-1.069, 3.099e-5
-1.070, 3.099e-5
-1.071, 3.099e-5
-1.072, 3.099e-5
-1.073, 3.099e-5
-1.074, 3.099e-5
-1.075, 3.099e-5
-1.076, 3.099e-5
-1.077, 3.099e-5
-1.078, 3.099e-5
-1.079, 3.099e-5
-1.080, 3.099e-5
-1.081, 3.099e-5
-1.082, 3.099e-5
-1.083, 3.099e-5
-1.084, 3.099e-5
-1.085, 3.099e-5
-1.086, 3.099e-5
-1.087, 2.790e-5
-1.088, 3.099e-5
-1.089, 3.099e-5
-1.090, 3.099e-5
-1.091, 2.790e-5
-1.092, 3.099e-5
-1.093, 3.099e-5
-1.094, 3.099e-5
-1.095, 2.790e-5
-1.096, 2.790e-5
-1.097, 3.099e-5
-1.098, 2.790e-5
-1.099, 3.099e-5
-1.100, 2.790e-5
-1.101, 2.790e-5
-1.102, 3.099e-5
-1.103, 3.099e-5
-1.104, 2.790e-5
-1.105, 2.790e-5
-1.106, 2.790e-5
-1.107, 2.790e-5
-1.108, 2.790e-5
-1.109, 2.790e-5
-1.110, 2.790e-5
-1.111, 2.790e-5
-1.112, 2.790e-5
-1.113, 2.790e-5
-1.114, 2.790e-5
-1.115, 2.790e-5
-1.116, 2.790e-5
-1.117, 2.790e-5
-1.118, 2.790e-5
-1.119, 2.790e-5
-1.120, 2.790e-5
-1.121, 2.482e-5
-1.122, 2.790e-5
-1.123, 2.482e-5
-1.124, 2.482e-5
-1.125, 2.790e-5
-1.126, 2.482e-5
-1.127, 2.790e-5
-1.128, 2.790e-5
-1.129, 2.482e-5
-1.130, 2.790e-5
-1.131, 2.482e-5
-1.132, 2.482e-5
-1.133, 2.482e-5
-1.134, 2.482e-5
-1.135, 2.482e-5
-1.136, 2.482e-5
-1.137, 2.482e-5
-1.138, 2.482e-5
-1.139, 2.482e-5
-1.140, 2.482e-5
-1.141, 2.482e-5
-1.142, 2.482e-5
-1.143, 2.482e-5
-1.144, 2.482e-5
-1.145, 2.482e-5
-1.146, 2.482e-5
-1.147, 2.482e-5
-1.148, 2.482e-5
-1.149, 2.482e-5
-1.150, 2.482e-5
-1.151, 2.482e-5
-1.152, 2.482e-5
-1.153, 2.482e-5
-1.154, 2.482e-5
-1.155, 2.174e-5
-1.156, 2.174e-5
-1.157, 2.482e-5
-1.158, 2.174e-5
-1.159, 2.174e-5
-1.160, 2.174e-5
-1.161, 2.174e-5
-1.162, 2.482e-5
-1.163, 2.174e-5
-1.164, 2.174e-5
-1.165, 2.174e-5
-1.166, 2.174e-5
-1.167, 2.482e-5
-1.168, 2.174e-5
-1.169, 2.174e-5
-1.170, 2.174e-5
-1.171, 2.174e-5
-1.172, 2.174e-5
-1.173, 2.174e-5
-1.174, 2.174e-5
-1.175, 2.174e-5
-1.176, 2.174e-5
-1.177, 2.174e-5
-1.178, 2.174e-5
-1.179, 2.174e-5
-1.180, 2.174e-5
-1.181, 2.482e-5
-1.182, 2.174e-5
-1.183, 2.174e-5
-1.184, 2.174e-5
-1.185, 2.174e-5
-1.186, 2.174e-5
-1.187, 2.174e-5
-1.188, 2.174e-5
-1.189, 2.174e-5
-1.190, 2.174e-5
-1.191, 2.174e-5
-1.192, 2.174e-5
-1.193, 2.174e-5
-1.194, 2.174e-5
-1.195, 2.174e-5
-1.196, 2.174e-5
-1.197, 2.174e-5
-1.198, 2.174e-5
-1.199, 2.174e-5
-1.200, 2.174e-5
-1.201, 2.174e-5
-1.202, 2.174e-5
-1.203, 2.174e-5
-1.204, 2.174e-5
-1.205, 2.174e-5
-1.206, 2.174e-5
-1.207, 2.174e-5
-1.208, 2.174e-5
-1.209, 2.174e-5
-1.210, 2.174e-5
-1.211, 2.174e-5
-1.212, 2.174e-5
-1.213, 2.174e-5
-1.214, 2.174e-5
-1.215, 2.174e-5
-1.216, 2.174e-5
-1.217, 2.174e-5
-1.218, 2.482e-5
-1.219, 2.482e-5
-1.220, 2.174e-5
-1.221, 2.174e-5
-1.222, 2.174e-5
-1.223, 2.174e-5
-1.224, 2.174e-5
-1.225, 2.482e-5
-1.226, 2.174e-5
-1.227, 2.174e-5
-1.228, 2.482e-5
-1.229, 2.174e-5
-1.230, 2.482e-5
-1.231, 2.482e-5
-1.232, 2.482e-5
-1.233, 2.482e-5
-1.234, 2.482e-5
-1.235, 2.482e-5
-1.236, 2.482e-5
-1.237, 2.482e-5
-1.238, 2.482e-5
-1.239, 2.482e-5
-1.240, 2.482e-5
-1.241, 2.482e-5
-1.242, 2.482e-5
-1.243, 2.482e-5
-1.244, 2.482e-5
-1.245, 2.482e-5
-1.246, 2.482e-5
-1.247, 2.482e-5
-1.248, 2.482e-5
-1.249, 2.482e-5
-1.250, 2.482e-5
-1.251, 2.790e-5
-1.252, 2.790e-5
-1.253, 2.482e-5
-1.254, 2.790e-5
-1.255, 2.790e-5
-1.256, 2.790e-5
-1.257, 2.790e-5
-1.258, 2.790e-5
-1.259, 2.790e-5
-1.260, 2.790e-5
-1.261, 2.790e-5
-1.262, 2.790e-5
-1.263, 2.790e-5
-1.264, 2.790e-5
-1.265, 3.099e-5
-1.266, 2.790e-5
-1.267, 2.790e-5
-1.268, 3.099e-5
-1.269, 3.099e-5
-1.270, 3.099e-5
-1.271, 3.099e-5
-1.272, 3.099e-5
-1.273, 3.099e-5
-1.274, 3.099e-5
-1.275, 3.099e-5
-1.276, 3.099e-5
-1.277, 3.099e-5
-1.278, 3.407e-5
-1.279, 3.407e-5
-1.280, 3.407e-5
-1.281, 3.407e-5
-1.282, 3.407e-5
-1.283, 3.407e-5
-1.284, 3.407e-5
-1.285, 3.715e-5
-1.286, 3.715e-5
-1.287, 3.715e-5
-1.288, 3.715e-5
-1.289, 3.715e-5
-1.290, 3.715e-5
-1.291, 3.715e-5
-1.292, 4.024e-5
-1.293, 4.024e-5
-1.294, 4.024e-5
-1.295, 4.024e-5
-1.296, 4.024e-5
-1.297, 4.332e-5
-1.298, 4.332e-5
-1.299, 4.332e-5
-1.300, 4.332e-5
-1.301, 4.332e-5
-1.302, 4.332e-5
-1.303, 4.640e-5
-1.304, 4.640e-5
-1.305, 4.640e-5
-1.306, 4.640e-5
-1.307, 4.640e-5
-1.308, 4.949e-5
-1.309, 4.949e-5
-1.310, 4.949e-5
-1.311, 4.949e-5
-1.312, 4.949e-5
-1.313, 5.257e-5
-1.314, 5.257e-5
-1.315, 5.257e-5
-1.316, 5.257e-5
-1.317, 5.565e-5
-1.318, 5.565e-5
-1.319, 5.565e-5
-1.320, 5.565e-5
-1.321, 5.873e-5
-1.322, 5.873e-5
-1.323, 5.873e-5
-1.324, 5.873e-5
-1.325, 6.182e-5
-1.326, 6.182e-5
-1.327, 6.490e-5
-1.328, 6.490e-5
-1.329, 6.490e-5
-1.330, 6.490e-5
-1.331, 6.798e-5
-1.332, 6.798e-5
-1.333, 6.798e-5
-1.334, 7.107e-5
-1.335, 7.107e-5
-1.336, 7.415e-5
-1.337, 7.415e-5
-1.338, 7.415e-5
-1.339, 7.723e-5
-1.340, 7.723e-5
-1.341, 7.723e-5
-1.342, 8.032e-5
-1.343, 8.032e-5
-1.344, 8.032e-5
-1.345, 8.340e-5
-1.346, 8.648e-5
-1.347, 8.648e-5
-1.348, 8.648e-5
-1.349, 8.957e-5
-1.350, 8.957e-5
-1.351, 8.957e-5
-1.352, 9.265e-5
-1.353, 9.265e-5
-1.354, 9.573e-5
-1.355, 9.882e-5
-1.356, 9.882e-5
-1.357, 9.882e-5
-1.358, 1.019e-4
-1.359, 1.019e-4
-1.360, 1.050e-4
-1.361, 1.050e-4
-1.362, 1.081e-4
-1.363, 1.081e-4
-1.364, 1.111e-4
-1.365, 1.111e-4
-1.366, 1.142e-4
-1.367, 1.142e-4
-1.368, 1.173e-4
-1.369, 1.173e-4
-1.370, 1.204e-4
-1.371, 1.204e-4
-1.372, 1.235e-4
-1.373, 1.235e-4
-1.374, 1.266e-4
-1.375, 1.266e-4
-1.376, 1.296e-4
-1.377, 1.327e-4
-1.378, 1.327e-4
-1.379, 1.358e-4
-1.380, 1.358e-4
-1.381, 1.389e-4
-1.382, 1.420e-4
-1.383, 1.420e-4
-1.384, 1.451e-4
-1.385, 1.451e-4
-1.386, 1.481e-4
-1.387, 1.512e-4
-1.388, 1.512e-4
-1.389, 1.543e-4
-1.390, 1.543e-4
-1.391, 1.574e-4
-1.392, 1.605e-4
-1.393, 1.605e-4
-1.394, 1.636e-4
-1.395, 1.666e-4
-1.396, 1.666e-4
-1.397, 1.697e-4
-1.398, 1.697e-4
-1.399, 1.728e-4
-1.400, 1.759e-4
-1.401, 1.759e-4
-1.402, 1.790e-4
-1.403, 1.790e-4
-1.404, 1.821e-4
-1.405, 1.851e-4
-1.406, 1.851e-4
-1.407, 1.882e-4
-1.408, 1.913e-4
-1.409, 1.913e-4
-1.410, 1.944e-4
-1.411, 1.975e-4
-1.412, 2.006e-4
-1.413, 2.006e-4
-1.414, 2.036e-4
-1.415, 2.067e-4
-1.416, 2.067e-4
-1.417, 2.098e-4
-1.418, 2.129e-4
-1.419, 2.129e-4
-1.420, 2.160e-4
-1.421, 2.191e-4
-1.422, 2.191e-4
-1.423, 2.221e-4
-1.424, 2.252e-4
-1.425, 2.283e-4
-1.426, 2.283e-4
-1.427, 2.314e-4
-1.428, 2.345e-4
-1.429, 2.345e-4
-1.430, 2.376e-4
-1.431, 2.406e-4
-1.432, 2.437e-4
-1.433, 2.437e-4
-1.434, 2.468e-4
-1.435, 2.499e-4
-1.436, 2.499e-4
-1.437, 2.530e-4
-1.438, 2.561e-4
-1.439, 2.591e-4
-1.440, 2.622e-4
-1.441, 2.622e-4
-1.442, 2.653e-4
-1.443, 2.684e-4
-1.444, 2.684e-4
-1.445, 2.715e-4
-1.446, 2.746e-4
-1.447, 2.776e-4
-1.448, 2.776e-4
-1.449, 2.807e-4
-1.450, 2.838e-4
-1.451, 2.869e-4
-1.452, 2.900e-4
-1.453, 2.900e-4
-1.454, 2.931e-4
-1.455, 2.961e-4
-1.456, 2.992e-4
-1.457, 2.992e-4
-1.458, 3.023e-4
-1.459, 3.054e-4
-1.460, 3.085e-4
-1.461, 3.115e-4
-1.462, 3.146e-4
-1.463, 3.146e-4
-1.464, 3.177e-4
-1.465, 3.208e-4
-1.466, 3.239e-4
-1.467, 3.270e-4
-1.468, 3.300e-4
-1.469, 3.300e-4
-1.470, 3.331e-4
-1.471, 3.362e-4
-1.472, 3.393e-4
-1.473, 3.424e-4
-1.474, 3.455e-4
-1.475, 3.455e-4
-1.476, 3.485e-4
-1.477, 3.516e-4
-1.478, 3.547e-4
-1.479, 3.578e-4
-1.480, 3.609e-4
-1.481, 3.640e-4
-1.482, 3.670e-4
-1.483, 3.670e-4
-1.484, 3.701e-4
-1.485, 3.732e-4
-1.486, 3.763e-4
-1.487, 3.794e-4
-1.488, 3.825e-4
-1.489, 3.855e-4
-1.490, 3.886e-4
-1.491, 3.886e-4
-1.492, 3.948e-4
-1.493, 3.979e-4
-1.494, 3.979e-4
-1.495, 4.010e-4
-1.496, 4.040e-4
-1.497, 4.071e-4
-1.498, 4.102e-4
-1.499, 4.133e-4
-1.500, 4.164e-4
-1.501, 4.195e-4
-1.502, 4.225e-4
-1.503, 4.256e-4
-1.504, 4.287e-4
-1.505, 4.318e-4
-1.506, 4.349e-4
-1.507, 4.380e-4
-1.508, 4.410e-4
-1.509, 4.441e-4
-1.510, 4.472e-4
-1.511, 4.503e-4
-1.512, 4.534e-4
-1.513, 4.565e-4
-1.514, 4.595e-4
-1.515, 4.626e-4
-1.516, 4.657e-4
-1.517, 4.719e-4
-1.518, 4.719e-4
-1.519, 4.750e-4
-1.520, 4.811e-4
-1.521, 4.842e-4
-1.522, 4.873e-4
-1.523, 4.904e-4
-1.524, 4.935e-4
-1.525, 4.965e-4
-1.526, 4.996e-4
-1.527, 5.058e-4
-1.528, 5.058e-4
-1.529, 5.120e-4
-1.530, 5.150e-4
-1.531, 5.181e-4
-1.532, 5.212e-4
-1.533, 5.274e-4
-1.534, 5.305e-4
-1.535, 5.335e-4
-1.536, 5.366e-4
-1.537, 5.428e-4
-1.538, 5.459e-4
-1.539, 5.489e-4
-1.540, 5.520e-4
-1.541, 5.582e-4
-1.542, 5.613e-4
-1.543, 5.644e-4
-1.544, 5.705e-4
-1.545, 5.736e-4
-1.546, 5.767e-4
-1.547, 5.829e-4
-1.548, 5.859e-4
-1.549, 5.890e-4
-1.550, 5.952e-4
-1.551, 5.983e-4
-1.552, 6.044e-4
-1.553, 6.075e-4
-1.554, 6.137e-4
-1.555, 6.168e-4
-1.556, 6.229e-4
-1.557, 6.260e-4
-1.558, 6.322e-4
-1.559, 6.353e-4
-1.560, 6.384e-4
-1.561, 6.445e-4
-1.562, 6.507e-4
-1.563, 6.538e-4
-1.564, 6.599e-4
-1.565, 6.661e-4
-1.566, 6.723e-4
-1.567, 6.754e-4
-1.568, 6.815e-4
-1.569, 6.877e-4
-1.570, 6.939e-4
-1.571, 6.969e-4
-1.572, 7.031e-4
-1.573, 7.093e-4
-1.574, 7.154e-4
-1.575, 7.216e-4
-1.576, 7.278e-4
-1.577, 7.339e-4
-1.578, 7.401e-4
-1.579, 7.463e-4
-1.580, 7.524e-4
-1.581, 7.555e-4
-1.582, 7.648e-4
-1.583, 7.709e-4
-1.584, 7.771e-4
-1.585, 7.833e-4
-1.586, 7.894e-4
-1.587, 7.987e-4
-1.588, 8.048e-4
-1.589, 8.110e-4
-1.590, 8.172e-4
-1.591, 8.264e-4
-1.592, 8.326e-4
-1.593, 8.418e-4
-1.594, 8.480e-4
-1.595, 8.573e-4
-1.596, 8.634e-4
-1.597, 8.727e-4
-1.598, 8.788e-4
-1.599, 8.881e-4
-1.600, 8.943e-4
-1.601, 9.035e-4
-1.602, 9.128e-4
-1.603, 9.220e-4
-1.604, 9.313e-4
-1.605, 9.405e-4
-1.606, 9.498e-4
-1.607, 9.590e-4
-1.608, 9.683e-4
-1.609, 9.775e-4
-1.610, 9.868e-4
-1.611, 9.960e-4
-1.612, 1.005e-3
-1.613, 1.018e-3
-1.614, 1.027e-3
-1.615, 1.036e-3
-1.616, 1.048e-3
-1.617, 1.058e-3
-1.618, 1.070e-3
-1.619, 1.082e-3
-1.620, 1.092e-3
-1.621, 1.104e-3
-1.622, 1.116e-3
-1.623, 1.129e-3
-1.624, 1.141e-3
-1.625, 1.153e-3
-1.626, 1.166e-3
-1.627, 1.178e-3
-1.628, 1.190e-3
-1.629, 1.203e-3
-1.630, 1.215e-3
-1.631, 1.227e-3
-1.632, 1.243e-3
-1.633, 1.255e-3
-1.634, 1.270e-3
-1.635, 1.286e-3
-1.636, 1.301e-3
-1.637, 1.314e-3
-1.638, 1.329e-3
-1.639, 1.347e-3
-1.640, 1.363e-3
-1.641, 1.378e-3
-1.642, 1.394e-3
-1.643, 1.409e-3
-1.644, 1.425e-3
-1.645, 1.443e-3
-1.646, 1.462e-3
-1.647, 1.480e-3
-1.648, 1.495e-3
-1.649, 1.517e-3
-1.650, 1.532e-3
-1.651, 1.554e-3
-1.652, 1.573e-3
-1.653, 1.591e-3
-1.654, 1.613e-3
-1.655, 1.631e-3
-1.656, 1.653e-3
-1.657, 1.674e-3
-1.658, 1.693e-3
-1.659, 1.714e-3
-1.660, 1.736e-3
-1.661, 1.758e-3
-1.662, 1.782e-3
-1.663, 1.804e-3
-1.664, 1.825e-3
-1.665, 1.847e-3
-1.666, 1.872e-3
-1.667, 1.896e-3
-1.668, 1.921e-3
-1.669, 1.946e-3
-1.670, 1.970e-3
-1.671, 1.995e-3
-1.672, 2.020e-3
-1.673, 2.044e-3
-1.674, 2.072e-3
-1.675, 2.100e-3
-1.676, 2.128e-3
-1.677, 2.155e-3
-1.678, 2.183e-3
-1.679, 2.211e-3
-1.680, 2.242e-3
-1.681, 2.272e-3
-1.682, 2.300e-3
-1.683, 2.331e-3
-1.684, 2.362e-3
-1.685, 2.393e-3
-1.686, 2.423e-3
-1.687, 2.457e-3
-1.688, 2.488e-3
-1.689, 2.522e-3
-1.690, 2.553e-3
-1.691, 2.587e-3
-1.692, 2.621e-3
-1.693, 2.655e-3
-1.694, 2.686e-3
-1.695, 2.723e-3
-1.696, 2.756e-3
-1.697, 2.793e-3
-1.698, 2.827e-3
-1.699, 2.864e-3
-1.700, 2.901e-3
-1.701, 2.938e-3
-1.702, 2.975e-3
-1.703, 3.015e-3
-1.704, 3.052e-3
-1.705, 3.089e-3
-1.706, 3.130e-3
-1.707, 3.170e-3
-1.708, 3.207e-3
-1.709, 3.247e-3
-1.710, 3.290e-3
-1.711, 3.330e-3
-1.712, 3.373e-3
-1.713, 3.416e-3
-1.714, 3.459e-3
-1.715, 3.503e-3
-1.716, 3.546e-3
-1.717, 3.592e-3
-1.718, 3.638e-3
-1.719, 3.684e-3
-1.720, 3.731e-3
-1.721, 3.777e-3
-1.722, 3.823e-3
-1.723, 3.873e-3
-1.724, 3.922e-3
-1.725, 3.968e-3
-1.726, 4.017e-3
-1.727, 4.070e-3
-1.728, 4.116e-3
-1.729, 4.169e-3
-1.730, 4.221e-3
-1.731, 4.270e-3
-1.732, 4.320e-3
-1.733, 4.369e-3
-1.734, 4.424e-3
-1.735, 4.477e-3
-1.736, 4.529e-3
-1.737, 4.585e-3
-1.738, 4.640e-3
-1.739, 4.693e-3
-1.740, 4.745e-3
-1.741, 4.801e-3
-1.742, 4.856e-3
-1.743, 4.912e-3
-1.744, 4.970e-3
-1.745, 5.029e-3
-1.746, 5.087e-3
-1.747, 5.143e-3
-1.748, 5.201e-3
-1.749, 5.263e-3
-1.750, 5.322e-3
-1.751, 5.380e-3
-1.752, 5.439e-3
-1.753, 5.497e-3
-1.754, 5.562e-3
-1.755, 5.630e-3
-1.756, 5.701e-3
-1.757, 5.781e-3
-1.758, 5.849e-3
-1.759, 5.904e-3
-1.760, 5.954e-3
-1.761, 6.009e-3
-1.762, 6.071e-3
-1.763, 6.132e-3
-1.764, 6.188e-3
-1.765, 6.250e-3
-1.766, 6.311e-3
-1.767, 6.379e-3
-1.768, 6.453e-3
-1.769, 6.506e-3
-1.770, 6.573e-3
-1.771, 6.657e-3
-1.772, 6.715e-3
-1.773, 6.777e-3
-1.774, 6.842e-3
-1.775, 6.909e-3
-1.776, 6.990e-3
-1.777, 7.079e-3
-1.778, 7.147e-3
-1.779, 7.218e-3
-1.780, 7.298e-3
-1.781, 7.375e-3
-1.782, 7.446e-3
-1.783, 7.501e-3
-1.784, 7.554e-3
-1.785, 7.631e-3
-1.786, 7.683e-3
-1.787, 7.745e-3
-1.788, 7.822e-3
-1.789, 7.899e-3
-1.790, 7.964e-3
-1.791, 8.038e-3
-1.792, 8.103e-3
-1.793, 8.155e-3
-1.794, 8.238e-3
-1.795, 8.328e-3
-1.796, 8.405e-3
-1.797, 8.473e-3
-1.798, 8.537e-3
-1.799, 8.599e-3
-1.800, 8.627e-3
-1.799, 8.584e-3
-1.798, 8.553e-3
-1.797, 8.516e-3
-1.796, 8.463e-3
-1.795, 8.414e-3
-1.794, 8.358e-3
-1.793, 8.297e-3
-1.792, 8.238e-3
-1.791, 8.189e-3
-1.790, 8.143e-3
-1.789, 8.081e-3
-1.788, 8.025e-3
-1.787, 7.964e-3
-1.786, 7.902e-3
-1.785, 7.841e-3
-1.784, 7.794e-3
-1.783, 7.739e-3
-1.782, 7.680e-3
-1.781, 7.615e-3
-1.780, 7.545e-3
-1.779, 7.477e-3
-1.778, 7.390e-3
-1.777, 7.313e-3
-1.776, 7.245e-3
-1.775, 7.178e-3
-1.774, 7.122e-3
-1.773, 7.067e-3
-1.772, 7.008e-3
-1.771, 6.953e-3
-1.770, 6.885e-3
-1.769, 6.811e-3
-1.768, 6.783e-3
-1.767, 6.728e-3
-1.766, 6.678e-3
-1.765, 6.626e-3
-1.764, 6.564e-3
-1.763, 6.509e-3
-1.762, 6.453e-3
-1.761, 6.407e-3
-1.760, 6.345e-3
-1.759, 6.293e-3
-1.758, 6.256e-3
-1.757, 6.206e-3
-1.756, 6.148e-3
-1.755, 6.089e-3
-1.754, 6.028e-3
-1.753, 5.947e-3
-1.752, 5.883e-3
-1.751, 5.818e-3
-1.750, 5.756e-3
-1.749, 5.710e-3
-1.748, 5.661e-3
-1.747, 5.605e-3
-1.746, 5.556e-3
-1.745, 5.507e-3
-1.744, 5.460e-3
-1.743, 5.408e-3
-1.742, 5.349e-3
-1.741, 5.300e-3
-1.740, 5.251e-3
-1.739, 5.198e-3
-1.738, 5.149e-3
-1.737, 5.097e-3
-1.736, 5.041e-3
-1.735, 4.989e-3
-1.734, 4.945e-3
-1.733, 4.896e-3
-1.732, 4.844e-3
-1.731, 4.794e-3
-1.730, 4.748e-3
-1.729, 4.690e-3
-1.728, 4.628e-3
-1.727, 4.575e-3
-1.726, 4.526e-3
-1.725, 4.483e-3
-1.724, 4.437e-3
-1.723, 4.391e-3
-1.722, 4.341e-3
-1.721, 4.295e-3
-1.720, 4.252e-3
-1.719, 4.202e-3
-1.718, 4.153e-3
-1.717, 4.098e-3
-1.716, 4.051e-3
-1.715, 3.999e-3
-1.714, 3.950e-3
-1.713, 3.906e-3
-1.712, 3.863e-3
-1.711, 3.817e-3
-1.710, 3.768e-3
-1.709, 3.721e-3
-1.708, 3.675e-3
-1.707, 3.629e-3
-1.706, 3.595e-3
-1.705, 3.552e-3
-1.704, 3.512e-3
-1.703, 3.469e-3
-1.702, 3.425e-3
-1.701, 3.388e-3
-1.700, 3.348e-3
-1.699, 3.311e-3
-1.698, 3.274e-3
-1.697, 3.234e-3
-1.696, 3.194e-3
-1.695, 3.154e-3
-1.694, 3.114e-3
-1.693, 3.074e-3
-1.692, 3.034e-3
-1.691, 2.988e-3
-1.690, 2.945e-3
-1.689, 2.908e-3
-1.688, 2.874e-3
-1.687, 2.837e-3
-1.686, 2.800e-3
-1.685, 2.766e-3
-1.684, 2.729e-3
-1.683, 2.692e-3
-1.682, 2.661e-3
-1.681, 2.627e-3
-1.680, 2.593e-3
-1.679, 2.556e-3
-1.678, 2.522e-3
-1.677, 2.488e-3
-1.676, 2.454e-3
-1.675, 2.423e-3
-1.674, 2.393e-3
-1.673, 2.362e-3
-1.672, 2.328e-3
-1.671, 2.300e-3
-1.670, 2.266e-3
-1.669, 2.235e-3
-1.668, 2.208e-3
-1.667, 2.174e-3
-1.666, 2.143e-3
-1.665, 2.112e-3
-1.664, 2.084e-3
-1.663, 2.060e-3
-1.662, 2.029e-3
-1.661, 2.001e-3
-1.660, 1.973e-3
-1.659, 1.946e-3
-1.658, 1.921e-3
-1.657, 1.890e-3
-1.656, 1.862e-3
-1.655, 1.835e-3
-1.654, 1.807e-3
-1.653, 1.782e-3
-1.652, 1.758e-3
-1.651, 1.730e-3
-1.650, 1.705e-3
-1.649, 1.684e-3
-1.648, 1.662e-3
-1.647, 1.637e-3
-1.646, 1.613e-3
-1.645, 1.591e-3
-1.644, 1.569e-3
-1.643, 1.548e-3
-1.642, 1.526e-3
-1.641, 1.502e-3
-1.640, 1.477e-3
-1.639, 1.455e-3
-1.638, 1.434e-3
-1.637, 1.415e-3
-1.636, 1.397e-3
-1.635, 1.375e-3
-1.634, 1.354e-3
-1.633, 1.335e-3
-1.632, 1.317e-3
-1.631, 1.298e-3
-1.630, 1.277e-3
-1.629, 1.258e-3
-1.628, 1.240e-3
-1.627, 1.221e-3
-1.626, 1.206e-3
-1.625, 1.190e-3
-1.624, 1.172e-3
-1.623, 1.156e-3
-1.622, 1.138e-3
-1.621, 1.122e-3
-1.620, 1.107e-3
-1.619, 1.092e-3
-1.618, 1.076e-3
-1.617, 1.061e-3
-1.616, 1.042e-3
-1.615, 1.030e-3
-1.614, 1.014e-3
-1.613, 1.002e-3
-1.612, 9.868e-4
-1.611, 9.713e-4
-1.610, 9.590e-4
-1.609, 9.467e-4
-1.608, 9.313e-4
-1.607, 9.189e-4
-1.606, 9.066e-4
-1.605, 8.912e-4
-1.604, 8.788e-4
-1.603, 8.665e-4
-1.602, 8.542e-4
-1.601, 8.449e-4
-1.600, 8.326e-4
-1.599, 8.203e-4
-1.598, 8.079e-4
-1.597, 7.956e-4
-1.596, 7.863e-4
-1.595, 7.740e-4
-1.594, 7.648e-4
-1.593, 7.524e-4
-1.592, 7.432e-4
-1.591, 7.339e-4
-1.590, 7.247e-4
-1.589, 7.154e-4
-1.588, 7.031e-4
-1.587, 6.939e-4
-1.586, 6.846e-4
-1.585, 6.754e-4
-1.584, 6.661e-4
-1.583, 6.569e-4
-1.582, 6.507e-4
-1.581, 6.414e-4
-1.580, 6.322e-4
-1.579, 6.229e-4
-1.578, 6.137e-4
-1.577, 6.075e-4
-1.576, 5.983e-4
-1.575, 5.921e-4
-1.574, 5.829e-4
-1.573, 5.767e-4
-1.572, 5.705e-4
-1.571, 5.613e-4
-1.570, 5.551e-4
-1.569, 5.459e-4
-1.568, 5.428e-4
-1.567, 5.335e-4
-1.566, 5.274e-4
-1.565, 5.212e-4
-1.564, 5.120e-4
-1.563, 5.089e-4
-1.562, 5.027e-4
-1.561, 4.965e-4
-1.560, 4.873e-4
-1.559, 4.842e-4
-1.558, 4.780e-4
-1.557, 4.719e-4
-1.556, 4.657e-4
-1.555, 4.595e-4
-1.554, 4.534e-4
-1.553, 4.472e-4
-1.552, 4.441e-4
-1.551, 4.380e-4
-1.550, 4.318e-4
-1.549, 4.287e-4
-1.548, 4.225e-4
-1.547, 4.164e-4
-1.546, 4.133e-4
-1.545, 4.071e-4
-1.544, 4.040e-4
-1.543, 3.979e-4
-1.542, 3.948e-4
-1.541, 3.886e-4
-1.540, 3.855e-4
-1.539, 3.794e-4
-1.538, 3.763e-4
-1.537, 3.701e-4
-1.536, 3.670e-4
-1.535, 3.640e-4
-1.534, 3.578e-4
-1.533, 3.547e-4
-1.532, 3.516e-4
-1.531, 3.485e-4
-1.530, 3.424e-4
-1.529, 3.393e-4
-1.528, 3.362e-4
-1.527, 3.300e-4
-1.526, 3.270e-4
-1.525, 3.239e-4
-1.524, 3.177e-4
-1.523, 3.146e-4
-1.522, 3.115e-4
-1.521, 3.085e-4
-1.520, 3.054e-4
-1.519, 3.023e-4
-1.518, 2.992e-4
-1.517, 2.961e-4
-1.516, 2.931e-4
-1.515, 2.900e-4
-1.514, 2.838e-4
-1.513, 2.838e-4
-1.512, 2.776e-4
-1.511, 2.746e-4
-1.510, 2.746e-4
-1.509, 2.684e-4
-1.508, 2.653e-4
-1.507, 2.622e-4
-1.506, 2.591e-4
-1.505, 2.561e-4
-1.504, 2.530e-4
-1.503, 2.530e-4
-1.502, 2.499e-4
-1.501, 2.437e-4
-1.500, 2.437e-4
-1.499, 2.406e-4
-1.498, 2.376e-4
-1.497, 2.345e-4
-1.496, 2.314e-4
-1.495, 2.314e-4
-1.494, 2.283e-4
-1.493, 2.252e-4
-1.492, 2.221e-4
-1.491, 2.191e-4
-1.490, 2.160e-4
-1.489, 2.160e-4
-1.488, 2.129e-4
-1.487, 2.098e-4
-1.486, 2.067e-4
-1.485, 2.067e-4
-1.484, 2.006e-4
-1.483, 2.006e-4
-1.482, 1.975e-4
-1.481, 1.944e-4
-1.480, 1.913e-4
-1.479, 1.913e-4
-1.478, 1.882e-4
-1.477, 1.851e-4
-1.476, 1.821e-4
-1.475, 1.821e-4
-1.474, 1.790e-4
-1.473, 1.759e-4
-1.472, 1.759e-4
-1.471, 1.728e-4
-1.470, 1.697e-4
-1.469, 1.666e-4
-1.468, 1.666e-4
-1.467, 1.636e-4
-1.466, 1.636e-4
-1.465, 1.605e-4
-1.464, 1.574e-4
-1.463, 1.574e-4
-1.462, 1.543e-4
-1.461, 1.512e-4
-1.460, 1.512e-4
-1.459, 1.481e-4
-1.458, 1.451e-4
-1.457, 1.451e-4
-1.456, 1.420e-4
-1.455, 1.389e-4
-1.454, 1.389e-4
-1.453, 1.358e-4
-1.452, 1.358e-4
-1.451, 1.327e-4
-1.450, 1.327e-4
-1.449, 1.296e-4
-1.448, 1.296e-4
-1.447, 1.266e-4
-1.446, 1.235e-4
-1.445, 1.235e-4
-1.444, 1.204e-4
-1.443, 1.204e-4
-1.442, 1.173e-4
-1.441, 1.173e-4
-1.440, 1.142e-4
-1.439, 1.142e-4
-1.438, 1.111e-4
-1.437, 1.081e-4
-1.436, 1.081e-4
-1.435, 1.081e-4
-1.434, 1.050e-4
-1.433, 1.050e-4
-1.432, 1.019e-4
-1.431, 1.019e-4
-1.430, 9.882e-5
-1.429, 9.573e-5
-1.428, 9.573e-5
-1.427, 9.265e-5
-1.426, 9.265e-5
-1.425, 9.265e-5
-1.424, 8.957e-5
-1.423, 8.957e-5
-1.422, 8.648e-5
-1.421, 8.648e-5
-1.420, 8.648e-5
-1.419, 8.340e-5
-1.418, 8.032e-5
-1.417, 8.032e-5
-1.416, 8.032e-5
-1.415, 7.723e-5
-1.414, 7.723e-5
-1.413, 7.415e-5
-1.412, 7.415e-5
-1.411, 7.415e-5
-1.410, 7.107e-5
-1.409, 7.107e-5
-1.408, 7.107e-5
-1.407, 6.798e-5
-1.406, 6.798e-5
-1.405, 6.798e-5
-1.404, 6.490e-5
-1.403, 6.490e-5
-1.402, 6.182e-5
-1.401, 6.182e-5
-1.400, 5.873e-5
-1.399, 5.873e-5
-1.398, 5.873e-5
-1.397, 5.873e-5
-1.396, 5.565e-5
-1.395, 5.565e-5
-1.394, 5.257e-5
-1.393, 5.257e-5
-1.392, 5.257e-5
-1.391, 4.949e-5
-1.390, 4.949e-5
-1.389, 4.949e-5
-1.388, 4.949e-5
-1.387, 4.640e-5
-1.386, 4.640e-5
-1.385, 4.640e-5
-1.384, 4.332e-5
-1.383, 4.332e-5
-1.382, 4.332e-5
-1.381, 4.024e-5
-1.380, 4.024e-5
-1.379, 4.024e-5
-1.378, 4.024e-5
-1.377, 3.715e-5
-1.376, 3.715e-5
-1.375, 3.715e-5
-1.374, 3.407e-5
-1.373, 3.407e-5
-1.372, 3.407e-5
-1.371, 3.099e-5
-1.370, 3.099e-5
-1.369, 3.099e-5
-1.368, 3.099e-5
-1.367, 2.790e-5
-1.366, 2.790e-5
-1.365, 2.790e-5
-1.364, 2.790e-5
-1.363, 2.790e-5
-1.362, 2.482e-5
-1.361, 2.482e-5
-1.360, 2.482e-5
-1.359, 2.482e-5
-1.358, 2.482e-5
-1.357, 2.174e-5
-1.356, 2.174e-5
-1.355, 2.174e-5
-1.354, 2.174e-5
-1.353, 2.174e-5
-1.352, 1.865e-5
-1.351, 1.865e-5
-1.350, 1.865e-5
-1.349, 1.865e-5
-1.348, 1.865e-5
-1.347, 1.557e-5
-1.346, 1.557e-5
-1.345, 1.557e-5
-1.344, 1.557e-5
-1.343, 1.249e-5
-1.342, 1.557e-5
-1.341, 1.249e-5
-1.340, 1.249e-5
-1.339, 1.249e-5
-1.338, 1.249e-5
-1.337, 9.405e-6
-1.336, 1.249e-5
-1.335, 9.405e-6
-1.334, 9.405e-6
-1.333, 9.405e-6
-1.332, 9.405e-6
-1.331, 9.405e-6
-1.330, 9.405e-6
-1.329, 6.322e-6
-1.328, 6.322e-6
-1.327, 6.322e-6
-1.326, 6.322e-6
-1.325, 6.322e-6
-1.324, 6.322e-6
-1.323, 6.322e-6
-1.322, 3.239e-6
-1.321, 3.239e-6
-1.320, 3.239e-6
-1.319, 3.239e-6
-1.318, 3.239e-6
-1.317, 3.239e-6
-1.316, 3.239e-6
-1.315, 1.559e-7
-1.314, 3.239e-6
-1.313, 3.239e-6
-1.312, 1.559e-7
-1.311, 1.559e-7
-1.310, 1.559e-7
-1.309, 1.559e-7
-1.308, 1.559e-7
-1.307, 1.559e-7
-1.306, 1.559e-7
-1.305, 1.559e-7
-1.304, -2.927e-6
-1.303, 1.559e-7
-1.302, -2.927e-6
-1.301, -2.927e-6
-1.300, -2.927e-6
-1.299, -2.927e-6
-1.298, -2.927e-6
-1.297, -2.927e-6
-1.296, -2.927e-6
-1.295, -2.927e-6
-1.294, -6.010e-6
-1.293, -2.927e-6
-1.292, -6.010e-6
-1.291, -6.010e-6
-1.290, -6.010e-6
-1.289, -6.010e-6
-1.288, -6.010e-6
-1.287, -6.010e-6
-1.286, -6.010e-6
-1.285, -6.010e-6
-1.284, -6.010e-6
-1.283, -6.010e-6
-1.282, -6.010e-6
-1.281, -6.010e-6
-1.280, -9.093e-6
-1.279, -9.093e-6
-1.278, -9.093e-6
-1.277, -9.093e-6
-1.276, -9.093e-6
-1.275, -9.093e-6
-1.274, -9.093e-6
-1.273, -9.093e-6
-1.272, -9.093e-6
-1.271, -9.093e-6
-1.270, -9.093e-6
-1.269, -9.093e-6
-1.268, -9.093e-6
-1.267, -9.093e-6
-1.266, -9.093e-6
-1.265, -9.093e-6
-1.264, -1.218e-5
-1.263, -9.093e-6
-1.262, -9.093e-6
-1.261, -1.218e-5
-1.260, -1.218e-5
-1.259, -1.218e-5
-1.258, -9.093e-6
-1.257, -1.218e-5
-1.256, -1.218e-5
-1.255, -1.218e-5
-1.254, -1.218e-5
-1.253, -1.218e-5
-1.252, -1.218e-5
-1.251, -1.218e-5
-1.250, -1.218e-5
-1.249, -1.218e-5
-1.248, -1.218e-5
-1.247, -1.218e-5
-1.246, -1.218e-5
-1.245, -1.218e-5
-1.244, -1.218e-5
-1.243, -1.218e-5
-1.242, -1.218e-5
-1.241, -1.218e-5
-1.240, -1.526e-5
-1.239, -1.526e-5
-1.238, -1.526e-5
-1.237, -1.526e-5
-1.236, -1.218e-5
-1.235, -1.526e-5
-1.234, -1.526e-5
-1.233, -1.218e-5
-1.232, -1.526e-5
-1.231, -1.526e-5
-1.230, -1.526e-5
-1.229, -1.526e-5
-1.228, -1.526e-5
-1.227, -1.526e-5
-1.226, -1.526e-5
-1.225, -1.526e-5
-1.224, -1.526e-5
-1.223, -1.526e-5
-1.222, -1.526e-5
-1.221, -1.526e-5
-1.220, -1.526e-5
-1.219, -1.526e-5
-1.218, -1.526e-5
-1.217, -1.526e-5
-1.216, -1.526e-5
-1.215, -1.526e-5
-1.214, -1.526e-5
-1.213, -1.526e-5
-1.212, -1.526e-5
-1.211, -1.526e-5
-1.210, -1.526e-5
-1.209, -1.526e-5
-1.208, -1.834e-5
-1.207, -1.526e-5
-1.206, -1.526e-5
-1.205, -1.834e-5
-1.204, -1.834e-5
-1.203, -1.526e-5
-1.202, -1.834e-5
-1.201, -1.834e-5
-1.200, -1.834e-5
-1.199, -1.834e-5
-1.198, -1.834e-5
-1.197, -1.834e-5
-1.196, -1.834e-5
-1.195, -1.834e-5
-1.194, -1.834e-5
-1.193, -1.834e-5
-1.192, -1.834e-5
-1.191, -1.834e-5
-1.190, -1.834e-5
-1.189, -1.834e-5
-1.188, -1.834e-5
-1.187, -1.834e-5
-1.186, -1.834e-5
-1.185, -1.834e-5
-1.184, -1.834e-5
-1.183, -1.834e-5
-1.182, -1.834e-5
-1.181, -1.834e-5
-1.180, -1.834e-5
-1.179, -1.834e-5
-1.178, -1.834e-5
-1.177, -1.834e-5
-1.176, -1.834e-5
-1.175, -1.834e-5
-1.174, -1.834e-5
-1.173, -1.834e-5
-1.172, -1.834e-5
-1.171, -2.143e-5
-1.170, -1.834e-5
-1.169, -1.834e-5
-1.168, -1.834e-5
-1.167, -1.834e-5
-1.166, -1.834e-5
-1.165, -2.143e-5
-1.164, -2.143e-5
-1.163, -2.143e-5
-1.162, -1.834e-5
-1.161, -2.143e-5
-1.160, -2.143e-5
-1.159, -2.143e-5
-1.158, -2.143e-5
-1.157, -2.143e-5
-1.156, -2.143e-5
-1.155, -2.143e-5
-1.154, -2.143e-5
-1.153, -2.143e-5
-1.152, -2.143e-5
-1.151, -2.143e-5
-1.150, -2.143e-5
-1.149, -2.143e-5
-1.148, -2.143e-5
-1.147, -2.143e-5
-1.146, -2.143e-5
-1.145, -2.143e-5
-1.144, -2.143e-5
-1.143, -2.143e-5
-1.142, -2.143e-5
-1.141, -2.451e-5
-1.140, -2.143e-5
-1.139, -2.143e-5
-1.138, -2.451e-5
-1.137, -2.143e-5
-1.136, -2.451e-5
-1.135, -2.451e-5
-1.134, -2.451e-5
-1.133, -2.451e-5
-1.132, -2.451e-5
-1.131, -2.451e-5
-1.130, -2.451e-5
-1.129, -2.451e-5
-1.128, -2.451e-5
-1.127, -2.451e-5
-1.126, -2.451e-5
-1.125, -2.451e-5
-1.124, -2.451e-5
-1.123, -2.451e-5
-1.122, -2.451e-5
-1.121, -2.759e-5
-1.120, -2.451e-5
-1.119, -2.759e-5
-1.118, -2.759e-5
-1.117, -2.451e-5
-1.116, -2.759e-5
-1.115, -2.759e-5
-1.114, -2.759e-5
-1.113, -2.759e-5
-1.112, -2.759e-5
-1.111, -2.759e-5
-1.110, -2.759e-5
-1.109, -2.759e-5
-1.108, -2.759e-5
-1.107, -2.759e-5
-1.106, -3.068e-5
-1.105, -3.068e-5
-1.104, -3.068e-5
-1.103, -3.068e-5
-1.102, -3.068e-5
-1.101, -3.068e-5
-1.100, -3.068e-5
-1.099, -3.068e-5
-1.098, -3.068e-5
-1.097, -3.068e-5
-1.096, -3.068e-5
-1.095, -3.068e-5
-1.094, -3.068e-5
-1.093, -3.068e-5
-1.092, -3.376e-5
-1.091, -3.376e-5
-1.090, -3.376e-5
-1.089, -3.376e-5
-1.088, -3.376e-5
-1.087, -3.376e-5
-1.086, -3.376e-5
-1.085, -3.684e-5
-1.084, -3.684e-5
-1.083, -3.376e-5
-1.082, -3.684e-5
-1.081, -3.684e-5
-1.080, -3.684e-5
-1.079, -3.684e-5
-1.078, -3.684e-5
-1.077, -3.684e-5
-1.076, -3.992e-5
-1.075, -3.992e-5
-1.074, -3.992e-5
-1.073, -3.992e-5
-1.072, -3.992e-5
-1.071, -4.301e-5
-1.070, -3.992e-5
-1.069, -4.301e-5
-1.068, -4.301e-5
-1.067, -4.301e-5
-1.066, -4.301e-5
-1.065, -4.609e-5
-1.064, -4.301e-5
-1.063, -4.609e-5
-1.062, -4.609e-5
-1.061, -4.609e-5
-1.060, -4.609e-5
-1.059, -4.609e-5
-1.058, -4.609e-5
-1.057, -4.917e-5
-1.056, -4.917e-5
-1.055, -4.917e-5
-1.054, -4.917e-5
-1.053, -4.917e-5
-1.052, -4.917e-5
-1.051, -5.226e-5
-1.050, -5.226e-5
-1.049, -5.226e-5
-1.048, -5.534e-5
-1.047, -5.534e-5
-1.046, -5.534e-5
-1.045, -5.534e-5
-1.044, -5.842e-5
-1.043, -5.842e-5
-1.042, -5.842e-5
-1.041, -5.842e-5
-1.040, -5.842e-5
-1.039, -6.151e-5
-1.038, -6.151e-5
-1.037, -6.151e-5
-1.036, -6.151e-5
-1.035, -6.459e-5
-1.034, -6.459e-5
-1.033, -6.459e-5
-1.032, -6.459e-5
-1.031, -6.767e-5
-1.030, -6.767e-5
-1.029, -6.767e-5
-1.028, -7.076e-5
-1.027, -7.076e-5
-1.026, -7.076e-5
-1.025, -7.384e-5
-1.024, -7.384e-5
-1.023, -7.384e-5
-1.022, -7.692e-5
-1.021, -7.692e-5
-1.020, -7.692e-5
-1.019, -7.692e-5
-1.018, -8.000e-5
-1.017, -8.000e-5
-1.016, -8.000e-5
-1.015, -8.000e-5
-1.014, -8.309e-5
-1.013, -8.309e-5
-1.012, -8.309e-5
-1.011, -8.617e-5
-1.010, -8.617e-5
-1.009, -8.617e-5
-1.008, -8.925e-5
-1.007, -8.925e-5
-1.006, -8.925e-5
-1.005, -9.234e-5
-1.004, -9.234e-5
-1.003, -9.234e-5
-1.002, -9.542e-5
-1.001, -9.542e-5
