Potential V vs RHE, Current mA cm-2
0.013299999999999867,-0.48199213986401795
0.012299999999999978,-1.7910245056291363
0.011299999999999866,-2.8803522065252145
0.010299999999999976,-3.7532290785419424
0.009299999999999864,-4.582249900262854
0.008299999999999974,-5.279702571096316
0.007299999999999862,-5.890857852638012
0.006299999999999972,-6.326588932996443
0.00529999999999986,-6.632166573767292
0.0042999999999999705,-6.850032113946507
0.0032999999999998586,-6.981600264833956
0.0022999999999999687,-7.111753704421539
0.0012999999999998568,-7.243321855308987
0.00029999999999996696,-7.461187395488204
-0.000700000000000145,-7.722908985963235
-0.0017000000000000348,-7.984630576438266
-0.0027000000000001467,-8.246352166913299
-0.0037000000000000366,-8.4203616567967
-0.0047000000000001485,-8.508073757388331
-0.005700000000000038,-8.508073757388331
-0.00670000000000015,-8.464217707092514
-0.00770000000000004,-8.4203616567967
-0.008700000000000152,-8.464217707092514
-0.009700000000000042,-8.55051509638428
-0.010700000000000154,-8.725939297567548
-0.011700000000000044,-8.943804837746763
-0.012700000000000156,-9.11781432763016
-0.013700000000000045,-9.205526428221793
-0.014700000000000157,-9.24938247851761
-0.015700000000000047,-9.161670377925978
-0.01670000000000016,-9.11781432763016
-0.01770000000000005,-9.031516938338395
-0.01870000000000016,-9.031516938338395
-0.01970000000000005,-9.11781432763016
-0.020700000000000163,-9.24938247851761
-0.021700000000000053,-9.379535918105192
-0.022700000000000164,-9.55496011928846
-0.023700000000000054,-9.641257508580225
-0.024700000000000166,-9.641257508580225
-0.025700000000000056,-9.55496011928846
-0.026700000000000168,-9.423391968401008
-0.027700000000000058,-9.335679867809377
-0.02870000000000017,-9.335679867809377
-0.02970000000000006,-9.379535918105192
-0.03070000000000017,-9.467248018696827
-0.03170000000000006,-9.641257508580225
-0.03270000000000017,-9.772825659467674
-0.03370000000000006,-9.85912304875944
-0.034700000000000175,-9.81668170976349
-0.035700000000000065,-9.728969609171857
-0.03670000000000018,-9.641257508580225
-0.03770000000000007,-9.511104068992642
-0.03870000000000018,-9.467248018696827
-0.03970000000000007,-9.511104068992642
-0.04070000000000018,-9.641257508580225
-0.04170000000000007,-9.772825659467674
-0.04270000000000018,-9.902979099055257
-0.04370000000000007,-9.946835149351072
-0.044700000000000184,-9.902979099055257
-0.045700000000000074,-9.81668170976349
-0.046700000000000186,-9.685113558876042
-0.047700000000000076,-9.55496011928846
-0.04870000000000019,-9.511104068992642
-0.04970000000000008,-9.55496011928846
-0.05070000000000019,-9.641257508580225
-0.05170000000000008,-9.772825659467674
-0.05270000000000019,-9.902979099055257
-0.05370000000000008,-9.946835149351072
-0.05470000000000019,-9.902979099055257
-0.05570000000000008,-9.81668170976349
-0.056700000000000195,-9.685113558876042
-0.057700000000000085,-9.55496011928846
-0.058700000000000196,-9.511104068992642
-0.059700000000000086,-9.511104068992642
-0.0607000000000002,-9.641257508580225
-0.06170000000000009,-9.772825659467674
-0.0627000000000002,-9.85912304875944
-0.06370000000000009,-9.902979099055257
-0.0647000000000002,-9.85912304875944
-0.06570000000000009,-9.728969609171857
-0.0667000000000002,-9.59740145828441
-0.0677000000000001,-9.467248018696827
-0.0687000000000002,-9.379535918105192
-0.0697000000000001,-9.423391968401008
-0.07070000000000021,-9.55496011928846
-0.0717000000000001,-9.685113558876042
-0.07270000000000021,-9.81668170976349
-0.0737000000000001,-9.81668170976349
-0.07470000000000021,-9.772825659467674
-0.0757000000000001,-9.685113558876042
-0.07670000000000021,-9.511104068992642
-0.0777000000000001,-9.379535918105192
-0.07870000000000021,-9.335679867809377
-0.0797000000000001,-9.335679867809377
-0.08070000000000022,-9.467248018696827
-0.0817000000000001,-9.55496011928846
-0.08270000000000022,-9.641257508580225
-0.08370000000000011,-9.685113558876042
-0.08470000000000022,-9.641257508580225
-0.08570000000000011,-9.511104068992642
-0.08670000000000022,-9.379535918105192
-0.08770000000000011,-9.24938247851761
-0.08870000000000022,-9.205526428221793
-0.08970000000000011,-9.205526428221793
-0.09070000000000022,-9.335679867809377
-0.09170000000000011,-9.467248018696827
-0.09270000000000023,-9.55496011928846
-0.09370000000000012,-9.59740145828441
-0.09470000000000023,-9.511104068992642
-0.09570000000000012,-9.379535918105192
-0.09670000000000023,-9.24938247851761
-0.09770000000000012,-9.11781432763016
-0.09870000000000023,-9.031516938338395
-0.09970000000000012,-9.073958277334345
-0.10070000000000023,-9.161670377925978
-0.10170000000000012,-9.293238528813426
-0.10270000000000024,-9.379535918105192
-0.10370000000000013,-9.423391968401008
-0.10470000000000024,-9.379535918105192
-0.10570000000000013,-9.205526428221793
-0.10670000000000024,-9.073958277334345
-0.10770000000000013,-8.943804837746763
-0.10870000000000024,-8.899948787450944
-0.10970000000000013,-8.943804837746763
-0.11070000000000024,-9.031516938338395
-0.11170000000000013,-9.11781432763016
-0.11270000000000002,-9.24938247851761
-0.11370000000000013,-9.293238528813426
-0.11470000000000002,-9.205526428221793
-0.11570000000000014,-9.073958277334345
-0.11670000000000003,-8.943804837746763
-0.11770000000000014,-8.812236686859313
-0.11870000000000003,-8.769795347863363
-0.11970000000000014,-8.769795347863363
-0.12070000000000003,-8.85609273715513
-0.12170000000000014,-8.987660888042578
-0.12270000000000003,-9.073958277334345
-0.12370000000000014,-9.11781432763016
-0.12470000000000003,-9.073958277334345
-0.12570000000000014,-8.943804837746763
-0.12670000000000003,-8.812236686859313
-0.12770000000000015,-8.68208324727173
-0.12870000000000004,-8.638227196975913
-0.12970000000000015,-8.638227196975913
-0.13070000000000004,-8.725939297567548
-0.13170000000000015,-8.85609273715513
-0.13270000000000004,-8.943804837746763
-0.13370000000000015,-8.987660888042578
-0.13470000000000004,-8.943804837746763
-0.13570000000000015,-8.812236686859313
-0.13670000000000004,-8.68208324727173
-0.13770000000000016,-8.55051509638428
-0.13870000000000005,-8.508073757388331
-0.13970000000000016,-8.55051509638428
-0.14070000000000005,-8.638227196975913
-0.14170000000000016,-8.725939297567548
-0.14270000000000005,-8.85609273715513
-0.14370000000000016,-8.85609273715513
-0.14470000000000005,-8.812236686859313
-0.14570000000000016,-8.68208324727173
-0.14670000000000005,-8.55051509638428
-0.14770000000000016,-8.4203616567967
-0.14870000000000005,-8.376505606500881
-0.14970000000000017,-8.4203616567967
-0.15070000000000006,-8.508073757388331
-0.15170000000000017,-8.638227196975913
-0.15270000000000006,-8.725939297567548
-0.15370000000000017,-8.769795347863363
-0.15470000000000006,-8.725939297567548
-0.15570000000000017,-8.594371146680096
-0.15670000000000006,-8.464217707092514
-0.15770000000000017,-8.376505606500881
-0.15870000000000006,-8.288793505909249
-0.15970000000000018,-8.332649556205066
-0.16070000000000007,-8.4203616567967
-0.16170000000000018,-8.55051509638428
-0.16270000000000007,-8.638227196975913
-0.16370000000000018,-8.68208324727173
-0.16470000000000007,-8.638227196975913
-0.16570000000000018,-8.508073757388331
-0.16670000000000007,-8.376505606500881
-0.16770000000000018,-8.246352166913299
-0.16870000000000007,-8.202496116617484
-0.16970000000000018,-8.246352166913299
-0.17070000000000007,-8.332649556205066
-0.17170000000000019,-8.464217707092514
-0.17270000000000008,-8.594371146680096
-0.1737000000000002,-8.638227196975913
-0.17470000000000008,-8.55051509638428
-0.1757000000000002,-8.4203616567967
-0.17670000000000008,-8.288793505909249
-0.1777000000000002,-8.158640066321666
-0.17870000000000008,-8.11478401602585
-0.1797000000000002,-8.158640066321666
-0.18070000000000008,-8.246352166913299
-0.1817000000000002,-8.376505606500881
-0.18270000000000008,-8.508073757388331
-0.1837000000000002,-8.55051509638428
-0.1847000000000001,-8.464217707092514
-0.1857000000000002,-8.376505606500881
-0.1867000000000001,-8.246352166913299
-0.1877000000000002,-8.158640066321666
-0.1887000000000001,-8.070927965730034
-0.1897000000000002,-8.11478401602585
-0.1907000000000001,-8.246352166913299
-0.1917000000000001,-8.332649556205066
-0.19269999999999998,-8.4203616567967
-0.1937000000000001,-8.464217707092514
-0.19469999999999998,-8.4203616567967
-0.1957000000000001,-8.288793505909249
-0.19669999999999999,-8.158640066321666
-0.1977000000000001,-8.027071915434218
-0.1987,-7.940774526142452
-0.1997000000000001,-8.027071915434218
-0.2007,-8.11478401602585
-0.2017000000000001,-8.246352166913299
-0.2027,-8.376505606500881
-0.2037000000000001,-8.4203616567967
-0.2047,-8.332649556205066
-0.2057000000000001,-8.246352166913299
-0.2067,-8.11478401602585
-0.2077000000000001,-7.984630576438266
-0.2087,-7.940774526142452
-0.2097000000000001,-7.984630576438266
-0.2107,-8.070927965730034
-0.2117000000000001,-8.202496116617484
-0.2127,-8.288793505909249
-0.2137000000000001,-8.332649556205066
-0.2147,-8.246352166913299
-0.2157000000000001,-8.202496116617484
-0.2167,-8.070927965730034
-0.21770000000000012,-7.940774526142452
-0.2187,-7.896918475846635
-0.21970000000000012,-7.896918475846635
-0.2207,-8.027071915434218
-0.22170000000000012,-8.158640066321666
-0.2227,-8.246352166913299
-0.22370000000000012,-8.288793505909249
-0.2247,-8.246352166913299
-0.22570000000000012,-8.11478401602585
-0.2267,-7.984630576438266
-0.22770000000000012,-7.896918475846635
-0.22870000000000001,-7.809206375255003
-0.22970000000000013,-7.853062425550818
-0.23070000000000002,-7.984630576438266
-0.23170000000000013,-8.11478401602585
-0.23270000000000002,-8.202496116617484
-0.23370000000000013,-8.246352166913299
-0.23470000000000002,-8.202496116617484
-0.23570000000000013,-8.11478401602585
-0.23670000000000002,-7.984630576438266
-0.2376999999999999,-7.853062425550818
-0.23870000000000002,-7.809206375255003
-0.2396999999999999,-7.853062425550818
-0.24070000000000003,-7.984630576438266
-0.24169999999999991,-8.070927965730034
-0.24270000000000003,-8.158640066321666
-0.24369999999999992,-8.246352166913299
-0.24470000000000003,-8.202496116617484
-0.24569999999999992,-8.070927965730034
-0.24670000000000003,-7.940774526142452
-0.24769999999999992,-7.809206375255003
-0.24870000000000003,-7.7653503249591855
-0.24969999999999992,-7.809206375255003
-0.25070000000000003,-7.940774526142452
-0.2516999999999999,-8.070927965730034
-0.25270000000000004,-8.158640066321666
-0.2536999999999999,-8.202496116617484
-0.25470000000000004,-8.11478401602585
-0.2556999999999999,-8.027071915434218
-0.25670000000000004,-7.896918475846635
-0.25769999999999993,-7.809206375255003
-0.25870000000000004,-7.7653503249591855
-0.25969999999999993,-7.809206375255003
-0.26070000000000004,-7.896918475846635
-0.26169999999999993,-8.027071915434218
-0.26270000000000004,-8.11478401602585
-0.26369999999999993,-8.158640066321666
-0.26470000000000005,-8.11478401602585
-0.26569999999999994,-7.984630576438266
-0.26670000000000005,-7.853062425550818
-0.26769999999999994,-7.7653503249591855
-0.26870000000000005,-7.722908985963235
-0.26969999999999994,-7.7653503249591855
-0.27070000000000005,-7.896918475846635
-0.27169999999999994,-7.984630576438266
-0.27270000000000005,-8.11478401602585
-0.27369999999999994,-8.158640066321666
-0.27470000000000006,-8.070927965730034
-0.27569999999999995,-8.027071915434218
-0.27670000000000006,-7.853062425550818
-0.27769999999999995,-7.722908985963235
-0.27870000000000006,-7.722908985963235
-0.27969999999999995,-7.7653503249591855
-0.28070000000000006,-7.896918475846635
-0.28169999999999995,-8.027071915434218
-0.28270000000000006,-8.11478401602585
-0.28369999999999995,-8.158640066321666
-0.28470000000000006,-8.070927965730034
-0.28569999999999995,-7.984630576438266
-0.28670000000000007,-7.853062425550818
-0.28769999999999996,-7.7653503249591855
-0.28870000000000007,-7.722908985963235
-0.28969999999999996,-7.809206375255003
-0.29070000000000007,-7.896918475846635
-0.29169999999999996,-8.027071915434218
-0.29270000000000007,-8.158640066321666
-0.29369999999999996,-8.158640066321666
-0.2947000000000001,-8.11478401602585
-0.29569999999999996,-8.027071915434218
-0.2967000000000001,-7.896918475846635
-0.29769999999999996,-7.7653503249591855
-0.2987000000000001,-7.722908985963235
-0.29969999999999997,-7.809206375255003
-0.3007000000000001,-7.940774526142452
-0.30169999999999997,-8.070927965730034
-0.3027000000000001,-8.158640066321666
-0.30369999999999997,-8.202496116617484
-0.3047000000000001,-8.158640066321666
-0.30569999999999997,-8.070927965730034
-0.3067000000000001,-7.940774526142452
-0.3077,-7.853062425550818
-0.3087000000000001,-7.809206375255003
-0.3097,-7.853062425550818
-0.3107000000000001,-7.984630576438266
-0.3117,-8.11478401602585
-0.3127000000000001,-8.202496116617484
-0.3137,-8.288793505909249
-0.3147000000000001,-8.202496116617484
-0.3157,-8.11478401602585
-0.3167000000000001,-7.984630576438266
-0.3177,-7.940774526142452
-0.3187000000000001,-7.896918475846635
-0.3197,-7.940774526142452
-0.3207000000000001,-8.070927965730034
-0.3217,-8.202496116617484
-0.3227000000000001,-8.332649556205066
-0.3237,-8.376505606500881
-0.3247000000000001,-8.332649556205066
-0.3257,-8.246352166913299
-0.3267000000000001,-8.11478401602585
-0.3277,-7.984630576438266
-0.3287000000000001,-7.984630576438266
-0.3297,-8.070927965730034
-0.3307000000000001,-8.202496116617484
-0.3317,-8.332649556205066
-0.3327000000000001,-8.4203616567967
-0.3337,-8.508073757388331
-0.3347000000000001,-8.4203616567967
-0.3357,-8.332649556205066
-0.3367000000000001,-8.202496116617484
-0.3377,-8.158640066321666
-0.3387000000000001,-8.11478401602585
-0.3397,-8.202496116617484
-0.3407000000000001,-8.332649556205066
-0.3417,-8.464217707092514
-0.3427000000000001,-8.594371146680096
-0.3437,-8.638227196975913
-0.3447000000000001,-8.594371146680096
-0.3457,-8.508073757388331
-0.3467000000000001,-8.376505606500881
-0.3477,-8.332649556205066
-0.3487000000000001,-8.288793505909249
-0.3497,-8.376505606500881
-0.3507000000000001,-8.508073757388331
-0.3517,-8.638227196975913
-0.3527000000000001,-8.769795347863363
-0.3537,-8.812236686859313
-0.3547000000000001,-8.769795347863363
-0.3557,-8.68208324727173
-0.35670000000000013,-8.594371146680096
-0.3577,-8.508073757388331
-0.35870000000000013,-8.508073757388331
-0.3597,-8.594371146680096
-0.36070000000000013,-8.725939297567548
-0.3617,-8.85609273715513
-0.3626999999999999,-8.987660888042578
-0.3637,-9.073958277334345
-0.3646999999999999,-9.031516938338395
-0.3657,-8.943804837746763
-0.3666999999999999,-8.85609273715513
-0.3677,-8.769795347863363
-0.3686999999999999,-8.769795347863363
-0.36970000000000003,-8.85609273715513
-0.3706999999999999,-8.987660888042578
-0.37170000000000003,-9.161670377925978
-0.3726999999999999,-9.293238528813426
-0.37370000000000003,-9.335679867809377
-0.3746999999999999,-9.335679867809377
-0.37570000000000003,-9.24938247851761
-0.3766999999999999,-9.161670377925978
-0.37770000000000004,-9.073958277334345
-0.3786999999999999,-9.073958277334345
-0.37970000000000004,-9.161670377925978
-0.3806999999999999,-9.335679867809377
-0.38170000000000004,-9.511104068992642
-0.38269999999999993,-9.641257508580225
-0.38370000000000004,-9.685113558876042
-0.38469999999999993,-9.685113558876042
-0.38570000000000004,-9.641257508580225
-0.38669999999999993,-9.511104068992642
-0.38770000000000004,-9.467248018696827
-0.38869999999999993,-9.467248018696827
-0.38970000000000005,-9.55496011928846
-0.39069999999999994,-9.728969609171857
-0.39170000000000005,-9.902979099055257
-0.39269999999999994,-10.034547249942705
-0.39370000000000005,-10.164700689530287
-0.39469999999999994,-10.120844639234473
-0.39570000000000005,-10.078403300238522
-0.39669999999999994,-9.99069119964689
-0.39770000000000005,-9.902979099055257
-0.39869999999999994,-9.946835149351072
-0.39970000000000006,-10.034547249942705
-0.40069999999999995,-10.208556739826104
-0.40170000000000006,-10.382566229709504
-0.40269999999999995,-10.557990430892769
-0.40370000000000006,-10.644287820184536
-0.40469999999999995,-10.644287820184536
-0.40570000000000006,-10.557990430892769
-0.40669999999999995,-10.514134380596953
-0.40770000000000006,-10.470278330301136
-0.40869999999999995,-10.470278330301136
-0.40970000000000006,-10.601846481188586
-0.41069999999999995,-10.775855971071984
-0.41170000000000007,-10.993721511251199
-0.41269999999999996,-11.123874950838783
-0.41370000000000007,-11.255443101726232
-0.41469999999999996,-11.255443101726232
-0.41570000000000007,-11.211587051430415
-0.41669999999999996,-11.1677310011346
-0.41770000000000007,-11.123874950838783
-0.41869999999999996,-11.123874950838783
-0.4197000000000001,-11.255443101726232
-0.42069999999999996,-11.473308641905447
-0.4217000000000001,-11.647318131788847
-0.42269999999999996,-11.82274233297211
-0.4237000000000001,-11.952895772559694
-0.42469999999999997,-11.952895772559694
-0.4257000000000001,-11.909039722263879
-0.42669999999999997,-11.86659838326793
-0.4277000000000001,-11.86659838326793
-0.42869999999999997,-11.909039722263879
-0.4297000000000001,-12.084463923447142
-0.43069999999999997,-12.258473413330542
-0.4317000000000001,-12.476338953509758
-0.4327,-12.651763154693022
-0.4337000000000001,-12.73806054398479
-0.4347,-12.781916594280606
-0.4357000000000001,-12.73806054398479
-0.4367,-12.694204493688973
-0.4377000000000001,-12.694204493688973
-0.4387,-12.73806054398479
-0.4397000000000001,-12.913484745168056
-0.4407,-13.13135028534727
-0.4417000000000001,-13.349215825526485
-0.4427,-13.567081365705702
-0.4437000000000001,-13.698649516593148
-0.4447,-13.741090855589102
-0.4457000000000001,-13.741090855589102
-0.4467,-13.741090855589102
-0.4477000000000001,-13.741090855589102
-0.4487,-13.784946905884919
-0.4497000000000001,-13.960371107068182
-0.4507,-14.175407224647667
-0.4517000000000001,-14.401761032626075
-0.4527,-14.61396772760583
-0.4537000000000001,-14.741291744593681
-0.4547,-14.783733083589633
-0.4557000000000001,-14.783733083589633
-0.4567,-14.783733083589633
-0.4577000000000001,-14.783733083589633
-0.4587,-14.868615761581536
-0.4597000000000001,-15.094969569559943
-0.4607,-15.349617603535648
-0.4617000000000001,-15.618412750510005
-0.4627,-15.830619445489761
-0.4637000000000001,-15.972090575476265
-0.4647,-16.099414592464115
-0.4657000000000001,-16.141855931460068
-0.4667,-16.141855931460068
-0.4677000000000001,-16.184297270456018
-0.4687,-16.269179948447924
-0.4697000000000001,-16.495533756426326
-0.4707,-16.750181790402035
-0.4717000000000001,-17.018976937376394
-0.4727,-17.231183632356142
-0.4737000000000001,-17.4433903273359
-0.4747,-17.48583166633185
-0.4757000000000001,-17.584861457322408
-0.4767,-17.584861457322408
-0.4777000000000001,-17.669744135314307
-0.4787,-17.797068152302163
-0.4797000000000001,-18.009274847281915
-0.4807,-18.320511333252224
-0.48170000000000013,-18.631747819222536
-0.4827,-18.88639585319824
-0.48370000000000013,-19.112749661176647
-0.4847,-19.2400736781645
-0.48570000000000013,-19.28251501716045
-0.4867,-19.367397695152352
-0.4876999999999999,-19.452280373144255
-0.4887,-19.579604390132108
-0.4896999999999999,-19.848399537106463
-0.4907,-20.159636023076775
-0.4916999999999999,-20.499166735044383
-0.4927,-20.810403221014692
-0.4936999999999999,-21.022609915994444
-0.49470000000000003,-21.248963723972853
-0.4956999999999999,-21.333846401964752
-0.49670000000000003,-21.461170418952605
-0.4976999999999999,-21.58849443594046
-0.49870000000000003,-21.814848243918867
-0.4996999999999999,-22.111937616890522
-0.5007,-22.46561544185678
-0.5016999999999999,-22.819293266823045
-0.5027,-23.2012653177866
-0.5036999999999999,-23.47006046476096
-0.5047,-23.682267159740714
-0.5056999999999999,-23.86617962872317
-0.5067,-24.035944984706973
-0.5076999999999999,-24.24815167968673
-0.5087,-24.516946826661083
-0.5096999999999999,-24.870624651627345
-0.5107,-25.295038041586857
-0.5116999999999999,-25.77603988354097
-0.5127,-26.17215904750318
-0.5136999999999999,-26.525836872469437
