Dec. 27, 2024   23:33:07
Cyclic Voltammetry
File: c:/users/guazh/data/banditlqround7_x0exp136_r20/2024-12-24-exp762\exp762-2024-12-27t23_19_34-arkoh\exp762_cv_sr_100mvs_efin_-1600mv.bin
Data Source:  Experiment
Instrument Model:  CHI760E
Header: CV ran at 100 mVs
Note: 

Init E (V) = -1
High E (V) = -1
Low E (V) = -1.6
Final E (V) = -1
Init P/N = N
Scan Rate (V/s) = 0.1
Segment = 3
Sample Interval (V) = 0.001
Quiet Time (sec) = 2
Sensitivity (A/V) = 0.01
Comp R (ohm) = 1.3

Results:

Channel 1:
Segment 1:

Segment 2:

Segment 3:

Potential/V, Current/A

-1.000, 3.017e-5
-1.001, 6.978e-5
-1.002, 9.793e-5
-1.003, 8.951e-5
-1.004, 1.111e-4
-1.005, 1.085e-4
-1.006, 1.089e-4
-1.007, 1.250e-4
-1.008, 1.105e-4
-1.009, 1.284e-4
-1.010, 1.235e-4
-1.011, 1.214e-4
-1.012, 1.361e-4
-1.013, 1.205e-4
-1.014, 1.361e-4
-1.015, 1.309e-4
-1.016, 1.275e-4
-1.017, 1.415e-4
-1.018, 1.253e-4
-1.019, 1.409e-4
-1.020, 1.352e-4
-1.021, 1.311e-4
-1.022, 1.446e-4
-1.023, 1.286e-4
-1.024, 1.441e-4
-1.025, 1.375e-4
-1.026, 1.337e-4
-1.027, 1.468e-4
-1.028, 1.299e-4
-1.029, 1.445e-4
-1.030, 1.384e-4
-1.031, 1.345e-4
-1.032, 1.475e-4
-1.033, 1.307e-4
-1.034, 1.454e-4
-1.035, 1.391e-4
-1.036, 1.343e-4
-1.037, 1.477e-4
-1.038, 1.305e-4
-1.039, 1.451e-4
-1.040, 1.389e-4
-1.041, 1.340e-4
-1.042, 1.473e-4
-1.043, 1.295e-4
-1.044, 1.445e-4
-1.045, 1.383e-4
-1.046, 1.327e-4
-1.047, 1.470e-4
-1.048, 1.293e-4
-1.049, 1.432e-4
-1.050, 1.374e-4
-1.051, 1.320e-4
-1.052, 1.457e-4
-1.053, 1.281e-4
-1.054, 1.419e-4
-1.055, 1.364e-4
-1.056, 1.305e-4
-1.057, 1.440e-4
-1.058, 1.271e-4
-1.059, 1.403e-4
-1.060, 1.352e-4
-1.061, 1.291e-4
-1.062, 1.429e-4
-1.063, 1.260e-4
-1.064, 1.385e-4
-1.065, 1.336e-4
-1.066, 1.280e-4
-1.067, 1.414e-4
-1.068, 1.242e-4
-1.069, 1.373e-4
-1.070, 1.326e-4
-1.071, 1.261e-4
-1.072, 1.403e-4
-1.073, 1.230e-4
-1.074, 1.356e-4
-1.075, 1.315e-4
-1.076, 1.252e-4
-1.077, 1.384e-4
-1.078, 1.216e-4
-1.079, 1.346e-4
-1.080, 1.295e-4
-1.081, 1.231e-4
-1.082, 1.371e-4
-1.083, 1.199e-4
-1.084, 1.330e-4
-1.085, 1.282e-4
-1.086, 1.214e-4
-1.087, 1.359e-4
-1.088, 1.189e-4
-1.089, 1.311e-4
-1.090, 1.273e-4
-1.091, 1.199e-4
-1.092, 1.345e-4
-1.093, 1.174e-4
-1.094, 1.300e-4
-1.095, 1.258e-4
-1.096, 1.185e-4
-1.097, 1.331e-4
-1.098, 1.163e-4
-1.099, 1.279e-4
-1.100, 1.247e-4
-1.101, 1.173e-4
-1.102, 1.315e-4
-1.103, 1.151e-4
-1.104, 1.269e-4
-1.105, 1.230e-4
-1.106, 1.160e-4
-1.107, 1.301e-4
-1.108, 1.136e-4
-1.109, 1.257e-4
-1.110, 1.223e-4
-1.111, 1.146e-4
-1.112, 1.287e-4
-1.113, 1.123e-4
-1.114, 1.243e-4
-1.115, 1.209e-4
-1.116, 1.136e-4
-1.117, 1.276e-4
-1.118, 1.109e-4
-1.119, 1.230e-4
-1.120, 1.197e-4
-1.121, 1.119e-4
-1.122, 1.270e-4
-1.123, 1.097e-4
-1.124, 1.215e-4
-1.125, 1.189e-4
-1.126, 1.107e-4
-1.127, 1.257e-4
-1.128, 1.087e-4
-1.129, 1.205e-4
-1.130, 1.177e-4
-1.131, 1.096e-4
-1.132, 1.249e-4
-1.133, 1.078e-4
-1.134, 1.190e-4
-1.135, 1.174e-4
-1.136, 1.080e-4
-1.137, 1.240e-4
-1.138, 1.068e-4
-1.139, 1.179e-4
-1.140, 1.166e-4
-1.141, 1.072e-4
-1.142, 1.224e-4
-1.143, 1.062e-4
-1.144, 1.167e-4
-1.145, 1.152e-4
-1.146, 1.068e-4
-1.147, 1.215e-4
-1.148, 1.054e-4
-1.149, 1.156e-4
-1.150, 1.143e-4
-1.151, 1.061e-4
-1.152, 1.208e-4
-1.153, 1.045e-4
-1.154, 1.151e-4
-1.155, 1.139e-4
-1.156, 1.048e-4
-1.157, 1.196e-4
-1.158, 1.038e-4
-1.159, 1.144e-4
-1.160, 1.126e-4
-1.161, 1.040e-4
-1.162, 1.194e-4
-1.163, 1.030e-4
-1.164, 1.136e-4
-1.165, 1.125e-4
-1.166, 1.034e-4
-1.167, 1.190e-4
-1.168, 1.024e-4
-1.169, 1.125e-4
-1.170, 1.119e-4
-1.171, 1.025e-4
-1.172, 1.182e-4
-1.173, 1.020e-4
-1.174, 1.121e-4
-1.175, 1.116e-4
-1.176, 1.020e-4
-1.177, 1.181e-4
-1.178, 1.021e-4
-1.179, 1.115e-4
-1.180, 1.112e-4
-1.181, 1.014e-4
-1.182, 1.169e-4
-1.183, 1.012e-4
-1.184, 1.108e-4
-1.185, 1.103e-4
-1.186, 1.011e-4
-1.187, 1.164e-4
-1.188, 1.007e-4
-1.189, 1.100e-4
-1.190, 1.101e-4
-1.191, 1.008e-4
-1.192, 1.159e-4
-1.193, 1.002e-4
-1.194, 1.098e-4
-1.195, 1.093e-4
-1.196, 1.001e-4
-1.197, 1.156e-4
-1.198, 9.984e-5
-1.199, 1.096e-4
-1.200, 1.092e-4
-1.201, 9.959e-5
-1.202, 1.156e-4
-1.203, 9.964e-5
-1.204, 1.093e-4
-1.205, 1.089e-4
-1.206, 9.930e-5
-1.207, 1.151e-4
-1.208, 9.934e-5
-1.209, 1.085e-4
-1.210, 1.089e-4
-1.211, 9.883e-5
-1.212, 1.148e-4
-1.213, 9.889e-5
-1.214, 1.081e-4
-1.215, 1.094e-4
-1.216, 9.844e-5
-1.217, 1.146e-4
-1.218, 9.930e-5
-1.219, 1.075e-4
-1.220, 1.089e-4
-1.221, 9.828e-5
-1.222, 1.142e-4
-1.223, 9.891e-5
-1.224, 1.078e-4
-1.225, 1.086e-4
-1.226, 9.814e-5
-1.227, 1.143e-4
-1.228, 9.965e-5
-1.229, 1.088e-4
-1.230, 1.089e-4
-1.231, 9.853e-5
-1.232, 1.139e-4
-1.233, 9.888e-5
-1.234, 1.076e-4
-1.235, 1.085e-4
-1.236, 9.829e-5
-1.237, 1.144e-4
-1.238, 9.888e-5
-1.239, 1.077e-4
-1.240, 1.088e-4
-1.241, 9.808e-5
-1.242, 1.144e-4
-1.243, 9.917e-5
-1.244, 1.072e-4
-1.245, 1.090e-4
-1.246, 9.801e-5
-1.247, 1.144e-4
-1.248, 9.952e-5
-1.249, 1.074e-4
-1.250, 1.093e-4
-1.251, 9.799e-5
-1.252, 1.144e-4
-1.253, 9.965e-5
-1.254, 1.075e-4
-1.255, 1.102e-4
-1.256, 9.817e-5
-1.257, 1.146e-4
-1.258, 1.001e-4
-1.259, 1.077e-4
-1.260, 1.103e-4
-1.261, 9.875e-5
-1.262, 1.150e-4
-1.263, 1.002e-4
-1.264, 1.081e-4
-1.265, 1.105e-4
-1.266, 9.932e-5
-1.267, 1.151e-4
-1.268, 1.011e-4
-1.269, 1.082e-4
-1.270, 1.113e-4
-1.271, 9.979e-5
-1.272, 1.160e-4
-1.273, 1.016e-4
-1.274, 1.090e-4
-1.275, 1.118e-4
-1.276, 1.005e-4
-1.277, 1.165e-4
-1.278, 1.025e-4
-1.279, 1.099e-4
-1.280, 1.134e-4
-1.281, 1.010e-4
-1.282, 1.179e-4
-1.283, 1.032e-4
-1.284, 1.107e-4
-1.285, 1.135e-4
-1.286, 1.021e-4
-1.287, 1.189e-4
-1.288, 1.042e-4
-1.289, 1.117e-4
-1.290, 1.150e-4
-1.291, 1.028e-4
-1.292, 1.202e-4
-1.293, 1.056e-4
-1.294, 1.128e-4
-1.295, 1.164e-4
-1.296, 1.041e-4
-1.297, 1.211e-4
-1.298, 1.073e-4
-1.299, 1.142e-4
-1.300, 1.177e-4
-1.301, 1.061e-4
-1.302, 1.227e-4
-1.303, 1.086e-4
-1.304, 1.153e-4
-1.305, 1.195e-4
-1.306, 1.075e-4
-1.307, 1.244e-4
-1.308, 1.112e-4
-1.309, 1.172e-4
-1.310, 1.219e-4
-1.311, 1.098e-4
-1.312, 1.264e-4
-1.313, 1.128e-4
-1.314, 1.194e-4
-1.315, 1.240e-4
-1.316, 1.122e-4
-1.317, 1.286e-4
-1.318, 1.151e-4
-1.319, 1.221e-4
-1.320, 1.266e-4
-1.321, 1.143e-4
-1.322, 1.313e-4
-1.323, 1.179e-4
-1.324, 1.251e-4
-1.325, 1.294e-4
-1.326, 1.169e-4
-1.327, 1.347e-4
-1.328, 1.207e-4
-1.329, 1.275e-4
-1.330, 1.331e-4
-1.331, 1.204e-4
-1.332, 1.380e-4
-1.333, 1.245e-4
-1.334, 1.310e-4
-1.335, 1.365e-4
-1.336, 1.241e-4
-1.337, 1.413e-4
-1.338, 1.283e-4
-1.339, 1.346e-4
-1.340, 1.409e-4
-1.341, 1.279e-4
-1.342, 1.455e-4
-1.343, 1.327e-4
-1.344, 1.389e-4
-1.345, 1.446e-4
-1.346, 1.326e-4
-1.347, 1.502e-4
-1.348, 1.377e-4
-1.349, 1.436e-4
-1.350, 1.500e-4
-1.351, 1.378e-4
-1.352, 1.551e-4
-1.353, 1.427e-4
-1.354, 1.496e-4
-1.355, 1.552e-4
-1.356, 1.434e-4
-1.357, 1.610e-4
-1.358, 1.485e-4
-1.359, 1.554e-4
-1.360, 1.617e-4
-1.361, 1.494e-4
-1.362, 1.675e-4
-1.363, 1.553e-4
-1.364, 1.617e-4
-1.365, 1.683e-4
-1.366, 1.565e-4
-1.367, 1.748e-4
-1.368, 1.628e-4
-1.369, 1.688e-4
-1.370, 1.762e-4
-1.371, 1.641e-4
-1.372, 1.828e-4
-1.373, 1.706e-4
-1.374, 1.768e-4
-1.375, 1.847e-4
-1.376, 1.723e-4
-1.377, 1.910e-4
-1.378, 1.793e-4
-1.379, 1.858e-4
-1.380, 1.941e-4
-1.381, 1.817e-4
-1.382, 2.009e-4
-1.383, 1.902e-4
-1.384, 1.958e-4
-1.385, 2.037e-4
-1.386, 1.927e-4
-1.387, 2.107e-4
-1.388, 2.005e-4
-1.389, 2.068e-4
-1.390, 2.154e-4
-1.391, 2.037e-4
-1.392, 2.222e-4
-1.393, 2.122e-4
-1.394, 2.188e-4
-1.395, 2.272e-4
-1.396, 2.163e-4
-1.397, 2.349e-4
-1.398, 2.250e-4
-1.399, 2.323e-4
-1.400, 2.408e-4
-1.401, 2.302e-4
-1.402, 2.497e-4
-1.403, 2.401e-4
-1.404, 2.470e-4
-1.405, 2.560e-4
-1.406, 2.456e-4
-1.407, 2.653e-4
-1.408, 2.562e-4
-1.409, 2.634e-4
-1.410, 2.738e-4
-1.411, 2.628e-4
-1.412, 2.833e-4
-1.413, 2.750e-4
-1.414, 2.815e-4
-1.415, 2.929e-4
-1.416, 2.826e-4
-1.417, 3.026e-4
-1.418, 2.951e-4
-1.419, 3.028e-4
-1.420, 3.148e-4
-1.421, 3.051e-4
-1.422, 3.255e-4
-1.423, 3.190e-4
-1.424, 3.266e-4
-1.425, 3.389e-4
-1.426, 3.302e-4
-1.427, 3.517e-4
-1.428, 3.457e-4
-1.429, 3.534e-4
-1.430, 3.668e-4
-1.431, 3.590e-4
-1.432, 3.817e-4
-1.433, 3.757e-4
-1.434, 3.853e-4
-1.435, 4.001e-4
-1.436, 3.926e-4
-1.437, 4.151e-4
-1.438, 4.116e-4
-1.439, 4.222e-4
-1.440, 4.373e-4
-1.441, 4.309e-4
-1.442, 4.555e-4
-1.443, 4.529e-4
-1.444, 4.646e-4
-1.445, 4.814e-4
-1.446, 4.771e-4
-1.447, 5.033e-4
-1.448, 5.020e-4
-1.449, 5.153e-4
-1.450, 5.345e-4
-1.451, 5.315e-4
-1.452, 5.596e-4
-1.453, 5.608e-4
-1.454, 5.754e-4
-1.455, 5.970e-4
-1.456, 5.961e-4
-1.457, 6.255e-4
-1.458, 6.300e-4
-1.459, 6.467e-4
-1.460, 6.709e-4
-1.461, 6.735e-4
-1.462, 7.052e-4
-1.463, 7.125e-4
-1.464, 7.312e-4
-1.465, 7.579e-4
-1.466, 7.629e-4
-1.467, 7.972e-4
-1.468, 8.090e-4
-1.469, 8.309e-4
-1.470, 8.606e-4
-1.471, 8.707e-4
-1.472, 9.080e-4
-1.473, 9.219e-4
-1.474, 9.477e-4
-1.475, 9.808e-4
-1.476, 9.925e-4
-1.477, 1.033e-3
-1.478, 1.051e-3
-1.479, 1.080e-3
-1.480, 1.116e-3
-1.481, 1.133e-3
-1.482, 1.178e-3
-1.483, 1.198e-3
-1.484, 1.231e-3
-1.485, 1.271e-3
-1.486, 1.290e-3
-1.487, 1.339e-3
-1.488, 1.364e-3
-1.489, 1.401e-3
-1.490, 1.444e-3
-1.491, 1.467e-3
-1.492, 1.518e-3
-1.493, 1.546e-3
-1.494, 1.587e-3
-1.495, 1.634e-3
-1.496, 1.661e-3
-1.497, 1.716e-3
-1.498, 1.747e-3
-1.499, 1.791e-3
-1.500, 1.841e-3
-1.501, 1.871e-3
-1.502, 1.930e-3
-1.503, 1.966e-3
-1.504, 2.013e-3
-1.505, 2.069e-3
-1.506, 2.103e-3
-1.507, 2.164e-3
-1.508, 2.203e-3
-1.509, 2.254e-3
-1.510, 2.310e-3
-1.511, 2.348e-3
-1.512, 2.415e-3
-1.513, 2.457e-3
-1.514, 2.512e-3
-1.515, 2.576e-3
-1.516, 2.617e-3
-1.517, 2.685e-3
-1.518, 2.734e-3
-1.519, 2.790e-3
-1.520, 2.856e-3
-1.521, 2.907e-3
-1.522, 2.976e-3
-1.523, 3.028e-3
-1.524, 3.093e-3
-1.525, 3.159e-3
-1.526, 3.211e-3
-1.527, 3.294e-3
-1.528, 3.350e-3
-1.529, 3.415e-3
-1.530, 3.484e-3
-1.531, 3.539e-3
-1.532, 3.617e-3
-1.533, 3.676e-3
-1.534, 3.742e-3
-1.535, 3.820e-3
-1.536, 3.881e-3
-1.537, 3.963e-3
-1.538, 4.023e-3
-1.539, 4.096e-3
-1.540, 4.176e-3
-1.541, 4.237e-3
-1.542, 4.316e-3
-1.543, 4.379e-3
-1.544, 4.456e-3
-1.545, 4.532e-3
-1.546, 4.589e-3
-1.547, 4.677e-3
-1.548, 4.740e-3
-1.549, 4.812e-3
-1.550, 4.890e-3
-1.551, 4.950e-3
-1.552, 5.040e-3
-1.553, 5.103e-3
-1.554, 5.179e-3
-1.555, 5.260e-3
-1.556, 5.323e-3
-1.557, 5.408e-3
-1.558, 5.478e-3
-1.559, 5.559e-3
-1.560, 5.639e-3
-1.561, 5.699e-3
-1.562, 5.785e-3
-1.563, 5.847e-3
-1.564, 5.925e-3
-1.565, 6.011e-3
-1.566, 6.079e-3
-1.567, 6.160e-3
-1.568, 6.230e-3
-1.569, 6.309e-3
-1.570, 6.384e-3
-1.571, 6.461e-3
-1.572, 6.554e-3
-1.573, 6.616e-3
-1.574, 6.696e-3
-1.575, 6.772e-3
-1.576, 6.837e-3
-1.577, 6.941e-3
-1.578, 7.007e-3
-1.579, 7.077e-3
-1.580, 7.184e-3
-1.581, 7.234e-3
-1.582, 7.329e-3
-1.583, 7.427e-3
-1.584, 7.506e-3
-1.585, 7.585e-3
-1.586, 7.662e-3
-1.587, 7.743e-3
-1.588, 7.800e-3
-1.589, 7.887e-3
-1.590, 7.985e-3
-1.591, 8.055e-3
-1.592, 8.124e-3
-1.593, 8.210e-3
-1.594, 8.291e-3
-1.595, 8.377e-3
-1.596, 8.431e-3
-1.597, 8.506e-3
-1.598, 8.569e-3
-1.599, 8.663e-3
-1.600, 8.673e-3
-1.599, 8.579e-3
-1.598, 8.504e-3
-1.597, 8.409e-3
-1.596, 8.335e-3
-1.595, 8.254e-3
-1.594, 8.139e-3
-1.593, 8.068e-3
-1.592, 7.983e-3
-1.591, 7.900e-3
-1.590, 7.806e-3
-1.589, 7.708e-3
-1.588, 7.638e-3
-1.587, 7.529e-3
-1.586, 7.440e-3
-1.585, 7.379e-3
-1.584, 7.286e-3
-1.583, 7.214e-3
-1.582, 7.123e-3
-1.581, 7.017e-3
-1.580, 6.927e-3
-1.579, 6.834e-3
-1.578, 6.769e-3
-1.577, 6.678e-3
-1.576, 6.598e-3
-1.575, 6.532e-3
-1.574, 6.443e-3
-1.573, 6.384e-3
-1.572, 6.299e-3
-1.571, 6.224e-3
-1.570, 6.140e-3
-1.569, 6.056e-3
-1.568, 5.998e-3
-1.567, 5.911e-3
-1.566, 5.842e-3
-1.565, 5.777e-3
-1.564, 5.693e-3
-1.563, 5.633e-3
-1.562, 5.557e-3
-1.561, 5.484e-3
-1.560, 5.414e-3
-1.559, 5.329e-3
-1.558, 5.262e-3
-1.557, 5.180e-3
-1.556, 5.121e-3
-1.555, 5.057e-3
-1.554, 4.969e-3
-1.553, 4.915e-3
-1.552, 4.844e-3
-1.551, 4.780e-3
-1.550, 4.722e-3
-1.549, 4.644e-3
-1.548, 4.592e-3
-1.547, 4.530e-3
-1.546, 4.466e-3
-1.545, 4.406e-3
-1.544, 4.326e-3
-1.543, 4.281e-3
-1.542, 4.206e-3
-1.541, 4.148e-3
-1.540, 4.114e-3
-1.539, 4.030e-3
-1.538, 3.980e-3
-1.537, 3.912e-3
-1.536, 3.856e-3
-1.535, 3.811e-3
-1.534, 3.744e-3
-1.533, 3.699e-3
-1.532, 3.641e-3
-1.531, 3.588e-3
-1.530, 3.539e-3
-1.529, 3.468e-3
-1.528, 3.430e-3
-1.527, 3.377e-3
-1.526, 3.310e-3
-1.525, 3.279e-3
-1.524, 3.212e-3
-1.523, 3.162e-3
-1.522, 3.107e-3
-1.521, 3.058e-3
-1.520, 3.013e-3
-1.519, 2.953e-3
-1.518, 2.922e-3
-1.517, 2.868e-3
-1.516, 2.821e-3
-1.515, 2.786e-3
-1.514, 2.729e-3
-1.513, 2.695e-3
-1.512, 2.650e-3
-1.511, 2.602e-3
-1.510, 2.573e-3
-1.509, 2.511e-3
-1.508, 2.483e-3
-1.507, 2.435e-3
-1.506, 2.393e-3
-1.505, 2.364e-3
-1.504, 2.308e-3
-1.503, 2.279e-3
-1.502, 2.230e-3
-1.501, 2.190e-3
-1.500, 2.161e-3
-1.499, 2.110e-3
-1.498, 2.085e-3
-1.497, 2.044e-3
-1.496, 2.006e-3
-1.495, 1.980e-3
-1.494, 1.933e-3
-1.493, 1.909e-3
-1.492, 1.870e-3
-1.491, 1.834e-3
-1.490, 1.808e-3
-1.489, 1.763e-3
-1.488, 1.742e-3
-1.487, 1.706e-3
-1.486, 1.673e-3
-1.485, 1.653e-3
-1.484, 1.605e-3
-1.483, 1.587e-3
-1.482, 1.553e-3
-1.481, 1.519e-3
-1.480, 1.501e-3
-1.479, 1.460e-3
-1.478, 1.444e-3
-1.477, 1.412e-3
-1.476, 1.383e-3
-1.475, 1.366e-3
-1.474, 1.328e-3
-1.473, 1.314e-3
-1.472, 1.283e-3
-1.471, 1.253e-3
-1.470, 1.239e-3
-1.469, 1.205e-3
-1.468, 1.190e-3
-1.467, 1.164e-3
-1.466, 1.137e-3
-1.465, 1.124e-3
-1.464, 1.089e-3
-1.463, 1.078e-3
-1.462, 1.053e-3
-1.461, 1.027e-3
-1.460, 1.018e-3
-1.459, 9.824e-4
-1.458, 9.735e-4
-1.457, 9.495e-4
-1.456, 9.259e-4
-1.455, 9.199e-4
-1.454, 8.857e-4
-1.453, 8.795e-4
-1.452, 8.564e-4
-1.451, 8.333e-4
-1.450, 8.277e-4
-1.449, 7.952e-4
-1.448, 7.894e-4
-1.447, 7.696e-4
-1.446, 7.469e-4
-1.445, 7.422e-4
-1.444, 7.114e-4
-1.443, 7.071e-4
-1.442, 6.902e-4
-1.441, 6.691e-4
-1.440, 6.647e-4
-1.439, 6.380e-4
-1.438, 6.337e-4
-1.437, 6.158e-4
-1.436, 5.975e-4
-1.435, 5.958e-4
-1.434, 5.668e-4
-1.433, 5.656e-4
-1.432, 5.495e-4
-1.431, 5.307e-4
-1.430, 5.304e-4
-1.429, 5.038e-4
-1.428, 5.030e-4
-1.427, 4.881e-4
-1.426, 4.729e-4
-1.425, 4.718e-4
-1.424, 4.458e-4
-1.423, 4.462e-4
-1.422, 4.313e-4
-1.421, 4.154e-4
-1.420, 4.174e-4
-1.419, 3.924e-4
-1.418, 3.945e-4
-1.417, 3.810e-4
-1.416, 3.656e-4
-1.415, 3.684e-4
-1.414, 3.436e-4
-1.413, 3.459e-4
-1.412, 3.336e-4
-1.411, 3.186e-4
-1.410, 3.228e-4
-1.409, 2.989e-4
-1.408, 3.017e-4
-1.407, 2.896e-4
-1.406, 2.757e-4
-1.405, 2.809e-4
-1.404, 2.580e-4
-1.403, 2.620e-4
-1.402, 2.512e-4
-1.401, 2.372e-4
-1.400, 2.438e-4
-1.399, 2.217e-4
-1.398, 2.256e-4
-1.397, 2.159e-4
-1.396, 2.030e-4
-1.395, 2.095e-4
-1.394, 1.882e-4
-1.393, 1.928e-4
-1.392, 1.838e-4
-1.391, 1.716e-4
-1.390, 1.785e-4
-1.389, 1.577e-4
-1.388, 1.633e-4
-1.387, 1.544e-4
-1.386, 1.428e-4
-1.385, 1.499e-4
-1.384, 1.307e-4
-1.383, 1.370e-4
-1.382, 1.280e-4
-1.381, 1.170e-4
-1.380, 1.254e-4
-1.379, 1.057e-4
-1.378, 1.124e-4
-1.377, 1.049e-4
-1.376, 9.401e-5
-1.375, 1.028e-4
-1.374, 8.322e-5
-1.373, 9.072e-5
-1.372, 8.341e-5
-1.371, 7.315e-5
-1.370, 8.260e-5
-1.369, 6.346e-5
-1.368, 7.103e-5
-1.367, 6.496e-5
-1.366, 5.456e-5
-1.365, 6.500e-5
-1.364, 4.615e-5
-1.363, 5.380e-5
-1.362, 4.792e-5
-1.361, 3.777e-5
-1.360, 4.899e-5
-1.359, 3.021e-5
-1.358, 3.822e-5
-1.357, 3.278e-5
-1.356, 2.274e-5
-1.355, 3.379e-5
-1.354, 1.615e-5
-1.353, 2.429e-5
-1.352, 1.939e-5
-1.351, 1.011e-5
-1.350, 2.075e-5
-1.349, 3.303e-6
-1.348, 1.220e-5
-1.347, 7.279e-6
-1.346, -2.005e-6
-1.345, 9.213e-6
-1.344, -7.618e-6
-1.343, 6.393e-7
-1.342, -3.741e-6
-1.341, -1.220e-5
-1.340, -6.334e-7
-1.339, -1.782e-5
-1.338, -8.635e-6
-1.337, -1.349e-5
-1.336, -2.140e-5
-1.335, -9.858e-6
-1.334, -2.673e-5
-1.333, -1.724e-5
-1.332, -2.142e-5
-1.331, -3.045e-5
-1.330, -1.788e-5
-1.329, -3.504e-5
-1.328, -2.495e-5
-1.327, -2.884e-5
-1.326, -3.769e-5
-1.325, -2.497e-5
-1.324, -4.173e-5
-1.323, -3.241e-5
-1.322, -3.560e-5
-1.321, -4.440e-5
-1.320, -3.137e-5
-1.319, -4.762e-5
-1.318, -3.838e-5
-1.317, -4.157e-5
-1.316, -4.982e-5
-1.315, -3.723e-5
-1.314, -5.346e-5
-1.313, -4.408e-5
-1.312, -4.737e-5
-1.311, -5.526e-5
-1.310, -4.270e-5
-1.309, -5.869e-5
-1.308, -4.887e-5
-1.307, -5.202e-5
-1.306, -5.999e-5
-1.305, -4.730e-5
-1.304, -6.304e-5
-1.303, -5.344e-5
-1.302, -5.625e-5
-1.301, -6.436e-5
-1.300, -5.128e-5
-1.299, -6.733e-5
-1.298, -5.740e-5
-1.297, -6.047e-5
-1.296, -6.801e-5
-1.295, -5.497e-5
-1.294, -7.121e-5
-1.293, -6.078e-5
-1.292, -6.389e-5
-1.291, -7.216e-5
-1.290, -5.867e-5
-1.289, -7.441e-5
-1.288, -6.420e-5
-1.287, -6.696e-5
-1.286, -7.505e-5
-1.285, -6.157e-5
-1.284, -7.725e-5
-1.283, -6.684e-5
-1.282, -6.937e-5
-1.281, -7.801e-5
-1.280, -6.467e-5
-1.279, -8.020e-5
-1.278, -7.089e-5
-1.277, -7.210e-5
-1.276, -8.060e-5
-1.275, -6.731e-5
-1.274, -8.229e-5
-1.273, -7.269e-5
-1.272, -7.442e-5
-1.271, -8.246e-5
-1.270, -6.949e-5
-1.269, -8.476e-5
-1.268, -7.482e-5
-1.267, -7.685e-5
-1.266, -8.486e-5
-1.265, -7.138e-5
-1.264, -8.656e-5
-1.263, -7.680e-5
-1.262, -7.853e-5
-1.261, -8.657e-5
-1.260, -7.321e-5
-1.259, -8.877e-5
-1.258, -7.840e-5
-1.257, -8.082e-5
-1.256, -8.837e-5
-1.255, -7.469e-5
-1.254, -9.037e-5
-1.253, -8.023e-5
-1.252, -8.227e-5
-1.251, -9.036e-5
-1.250, -7.598e-5
-1.249, -9.192e-5
-1.248, -8.198e-5
-1.247, -8.346e-5
-1.246, -9.199e-5
-1.245, -7.764e-5
-1.244, -9.301e-5
-1.243, -8.368e-5
-1.242, -8.502e-5
-1.241, -9.390e-5
-1.240, -7.908e-5
-1.239, -9.418e-5
-1.238, -8.469e-5
-1.237, -8.544e-5
-1.236, -9.426e-5
-1.235, -8.010e-5
-1.234, -9.520e-5
-1.233, -8.611e-5
-1.232, -8.709e-5
-1.231, -9.549e-5
-1.230, -8.143e-5
-1.229, -9.797e-5
-1.228, -8.765e-5
-1.227, -8.895e-5
-1.226, -9.696e-5
-1.225, -8.264e-5
-1.224, -9.774e-5
-1.223, -8.794e-5
-1.222, -8.950e-5
-1.221, -9.783e-5
-1.220, -8.354e-5
-1.219, -9.879e-5
-1.218, -8.948e-5
-1.217, -9.079e-5
-1.216, -9.886e-5
-1.215, -8.450e-5
-1.214, -1.003e-4
-1.213, -8.974e-5
-1.212, -9.118e-5
-1.211, -9.991e-5
-1.210, -8.512e-5
-1.209, -1.008e-4
-1.208, -9.098e-5
-1.207, -9.159e-5
-1.206, -1.009e-4
-1.205, -8.614e-5
-1.204, -1.015e-4
-1.203, -9.228e-5
-1.202, -9.308e-5
-1.201, -1.021e-4
-1.200, -8.707e-5
-1.199, -1.023e-4
-1.198, -9.310e-5
-1.197, -9.353e-5
-1.196, -1.028e-4
-1.195, -8.786e-5
-1.194, -1.031e-4
-1.193, -9.408e-5
-1.192, -9.420e-5
-1.191, -1.032e-4
-1.190, -8.920e-5
-1.189, -1.040e-4
-1.188, -9.464e-5
-1.187, -9.525e-5
-1.186, -1.039e-4
-1.185, -8.994e-5
-1.184, -1.043e-4
-1.183, -9.539e-5
-1.182, -9.617e-5
-1.181, -1.044e-4
-1.180, -9.038e-5
-1.179, -1.053e-4
-1.178, -9.697e-5
-1.177, -9.718e-5
-1.176, -1.057e-4
-1.175, -9.078e-5
-1.174, -1.065e-4
-1.173, -9.680e-5
-1.172, -9.735e-5
-1.171, -1.067e-4
-1.170, -9.187e-5
-1.169, -1.071e-4
-1.168, -9.725e-5
-1.167, -9.835e-5
-1.166, -1.075e-4
-1.165, -9.235e-5
-1.164, -1.077e-4
-1.163, -9.873e-5
-1.162, -9.869e-5
-1.161, -1.083e-4
-1.160, -9.306e-5
-1.159, -1.084e-4
-1.158, -9.963e-5
-1.157, -9.933e-5
-1.156, -1.090e-4
-1.155, -9.415e-5
-1.154, -1.090e-4
-1.153, -1.006e-4
-1.152, -1.005e-4
-1.151, -1.103e-4
-1.150, -9.540e-5
-1.149, -1.098e-4
-1.148, -1.013e-4
-1.147, -1.011e-4
-1.146, -1.105e-4
-1.145, -9.620e-5
-1.144, -1.104e-4
-1.143, -1.016e-4
-1.142, -1.023e-4
-1.141, -1.113e-4
-1.140, -9.651e-5
-1.139, -1.118e-4
-1.138, -1.026e-4
-1.137, -1.031e-4
-1.136, -1.125e-4
-1.135, -9.740e-5
-1.134, -1.128e-4
-1.133, -1.036e-4
-1.132, -1.036e-4
-1.131, -1.134e-4
-1.130, -9.833e-5
-1.129, -1.137e-4
-1.128, -1.047e-4
-1.127, -1.046e-4
-1.126, -1.146e-4
-1.125, -9.955e-5
-1.124, -1.146e-4
-1.123, -1.058e-4
-1.122, -1.055e-4
-1.121, -1.154e-4
-1.120, -9.988e-5
-1.119, -1.153e-4
-1.118, -1.072e-4
-1.117, -1.060e-4
-1.116, -1.166e-4
-1.115, -1.015e-4
-1.114, -1.161e-4
-1.113, -1.084e-4
-1.112, -1.075e-4
-1.111, -1.175e-4
-1.110, -1.028e-4
-1.109, -1.173e-4
-1.108, -1.089e-4
-1.107, -1.087e-4
-1.106, -1.187e-4
-1.105, -1.042e-4
-1.104, -1.183e-4
-1.103, -1.105e-4
-1.102, -1.103e-4
-1.101, -1.202e-4
-1.100, -1.054e-4
-1.099, -1.203e-4
-1.098, -1.120e-4
-1.097, -1.117e-4
-1.096, -1.218e-4
-1.095, -1.065e-4
-1.094, -1.218e-4
-1.093, -1.132e-4
-1.092, -1.129e-4
-1.091, -1.232e-4
-1.090, -1.081e-4
-1.089, -1.240e-4
-1.088, -1.149e-4
-1.087, -1.147e-4
-1.086, -1.254e-4
-1.085, -1.098e-4
-1.084, -1.255e-4
-1.083, -1.171e-4
-1.082, -1.166e-4
-1.081, -1.271e-4
-1.080, -1.119e-4
-1.079, -1.270e-4
-1.078, -1.192e-4
-1.077, -1.182e-4
-1.076, -1.292e-4
-1.075, -1.150e-4
-1.074, -1.294e-4
-1.073, -1.220e-4
-1.072, -1.207e-4
-1.071, -1.312e-4
-1.070, -1.166e-4
-1.069, -1.316e-4
-1.068, -1.240e-4
-1.067, -1.234e-4
-1.066, -1.336e-4
-1.065, -1.194e-4
-1.064, -1.342e-4
-1.063, -1.263e-4
-1.062, -1.265e-4
-1.061, -1.365e-4
-1.060, -1.222e-4
-1.059, -1.375e-4
-1.058, -1.292e-4
-1.057, -1.290e-4
-1.056, -1.396e-4
-1.055, -1.248e-4
-1.054, -1.411e-4
-1.053, -1.323e-4
-1.052, -1.321e-4
-1.051, -1.431e-4
-1.050, -1.288e-4
-1.049, -1.443e-4
-1.048, -1.363e-4
-1.047, -1.360e-4
-1.046, -1.471e-4
-1.045, -1.322e-4
-1.044, -1.478e-4
-1.043, -1.407e-4
-1.042, -1.398e-4
-1.041, -1.515e-4
-1.040, -1.366e-4
-1.039, -1.528e-4
-1.038, -1.452e-4
-1.037, -1.440e-4
-1.036, -1.557e-4
-1.035, -1.410e-4
-1.034, -1.562e-4
-1.033, -1.495e-4
-1.032, -1.491e-4
-1.031, -1.604e-4
-1.030, -1.466e-4
-1.029, -1.621e-4
-1.028, -1.546e-4
-1.027, -1.546e-4
-1.026, -1.660e-4
-1.025, -1.522e-4
-1.024, -1.683e-4
-1.023, -1.610e-4
-1.022, -1.605e-4
-1.021, -1.717e-4
-1.020, -1.579e-4
-1.019, -1.737e-4
-1.018, -1.663e-4
-1.017, -1.668e-4
-1.016, -1.784e-4
-1.015, -1.640e-4
-1.014, -1.805e-4
-1.013, -1.730e-4
-1.012, -1.740e-4
-1.011, -1.858e-4
-1.010, -1.710e-4
-1.009, -1.881e-4
-1.008, -1.807e-4
-1.007, -1.812e-4
-1.006, -1.936e-4
-1.005, -1.789e-4
-1.004, -1.955e-4
-1.003, -1.890e-4
-1.002, -1.892e-4
-1.001, -2.017e-4
