Potential V vs RHE, Current mA cm-2
0.013299999999999867,-8.11478401602585
0.012299999999999978,-9.99069119964689
0.011299999999999866,-11.473308641905447
0.010299999999999976,-12.651763154693022
0.009299999999999864,-13.654793466297335
0.008299999999999974,-14.486643710617974
0.007299999999999862,-15.264734925543747
0.006299999999999972,-15.972090575476265
0.00529999999999986,-16.622857773414182
0.0042999999999999705,-17.188742293360193
0.0032999999999998586,-17.71218547431026
0.0022999999999999687,-18.15074597726842
0.0012999999999998568,-18.589306480226583
0.00029999999999996696,-18.92883719219419
-0.000700000000000145,-19.3249563561564
-0.0017000000000000348,-19.579604390132108
-0.0027000000000001467,-19.848399537106463
-0.0037000000000000366,-20.10304757108217
-0.0047000000000001485,-20.371842718056527
-0.005700000000000038,-20.626490752032236
-0.00670000000000015,-20.89528589900659
-0.00770000000000004,-21.149933932982297
-0.008700000000000152,-21.418729079956652
-0.009700000000000042,-21.63093577493641
-0.010700000000000154,-21.857289582914817
-0.011700000000000044,-22.111937616890522
-0.012700000000000156,-22.295850085872978
-0.013700000000000045,-22.42317410286083
-0.014700000000000157,-22.592939458844636
-0.015700000000000047,-22.67782213683654
-0.01670000000000016,-22.819293266823045
-0.01770000000000005,-22.946617283810895
-0.01870000000000016,-23.073941300798747
-0.01970000000000005,-23.24370665678255
-0.020700000000000163,-23.385177786769056
-0.021700000000000053,-23.55494314275286
-0.022700000000000164,-23.724708498736668
-0.023700000000000054,-23.908620967719123
-0.024700000000000166,-23.993503645711023
-0.025700000000000056,-24.16326900169483
-0.026700000000000168,-24.24815167968673
-0.027700000000000058,-24.34718147067728
-0.02870000000000017,-24.389622809673234
-0.02970000000000006,-24.474505487665134
-0.03070000000000017,-24.559388165657033
-0.03170000000000006,-24.64427084364894
-0.03270000000000017,-24.729153521640843
-0.03370000000000006,-24.870624651627345
-0.034700000000000175,-24.997948668615198
-0.035700000000000065,-25.12527268560305
-0.03670000000000018,-25.210155363594954
-0.03770000000000007,-25.337479380582806
-0.03870000000000018,-25.43650917157336
-0.03970000000000007,-25.521391849565262
-0.04070000000000018,-25.60627452755716
-0.04170000000000007,-25.648715866553115
-0.04270000000000018,-25.648715866553115
-0.04370000000000007,-25.73359854454502
-0.044700000000000184,-25.77603988354097
-0.045700000000000074,-25.86092256153287
-0.046700000000000186,-25.959952352523427
-0.047700000000000076,-26.044835030515326
-0.04870000000000019,-26.17215904750318
-0.04970000000000008,-26.29948306449103
-0.05070000000000019,-26.440954194477534
-0.05170000000000008,-26.483395533473487
-0.05270000000000019,-26.61071955046134
-0.05370000000000008,-26.65316088945729
-0.05470000000000019,-26.69560222845324
-0.05570000000000008,-26.738043567449193
-0.056700000000000195,-26.780484906445146
-0.057700000000000085,-26.822926245441096
-0.058700000000000196,-26.86536758443705
-0.059700000000000086,-26.9643973754276
-0.0607000000000002,-27.049280053419505
-0.06170000000000009,-27.176604070407354
-0.0627000000000002,-27.303928087395207
-0.06370000000000009,-27.38881076538711
-0.0647000000000002,-27.487840556377662
-0.06570000000000009,-27.487840556377662
-0.0667000000000002,-27.530281895373616
-0.0677000000000001,-27.615164573365515
-0.0687000000000002,-27.65760591236147
-0.0697000000000001,-27.65760591236147
-0.07070000000000021,-27.742488590353368
-0.0717000000000001,-27.827371268345274
-0.07270000000000021,-27.869812607341224
-0.0737000000000001,-28.011283737327723
-0.07470000000000021,-28.13860775431558
-0.0757000000000001,-28.265931771303435
-0.07670000000000021,-28.393255788291288
-0.0777000000000001,-28.478138466283188
-0.07870000000000021,-28.619609596269694
-0.0797000000000001,-28.704492274261593
-0.08070000000000022,-28.789374952253496
-0.0817000000000001,-28.831816291249446
-0.08270000000000022,-28.831816291249446
-0.08370000000000011,-28.8742576302454
-0.08470000000000022,-28.959140308237306
-0.08570000000000011,-29.001581647233255
-0.08670000000000022,-29.14305277721976
-0.08770000000000011,-29.22793545521166
-0.08870000000000022,-29.31281813320356
-0.08970000000000011,-29.39770081119546
-0.09070000000000022,-29.525024828183312
-0.09170000000000011,-29.62405461917387
-0.09270000000000023,-29.708937297165768
-0.09370000000000012,-29.751378636161718
-0.09470000000000023,-29.751378636161718
-0.09570000000000012,-29.793819975157668
-0.09670000000000023,-29.836261314153624
-0.09770000000000012,-29.878702653149578
-0.09870000000000023,-29.921143992145527
-0.09970000000000012,-30.00602667013743
-0.10070000000000023,-30.10505646112798
-0.10170000000000012,-30.232380478115836
-0.10270000000000024,-30.359704495103685
-0.10370000000000013,-30.487028512091538
-0.10470000000000024,-30.571911190083444
-0.10570000000000013,-30.7558236590659
-0.10670000000000024,-30.79826499806185
-0.10770000000000013,-30.88314767605375
-0.10870000000000024,-30.968030354045652
-0.10970000000000013,-31.052913032037555
-0.11070000000000024,-31.095354371033505
-0.11170000000000013,-31.23682550102001
-0.11270000000000002,-31.321708179011907
-0.11370000000000013,-31.49147353499572
-0.11470000000000002,-31.618797551983565
-0.11570000000000014,-31.802710020966025
-0.11670000000000003,-31.972475376949827
-0.11770000000000014,-32.09979939393769
-0.11870000000000003,-32.24127052392419
-0.11970000000000014,-32.368594540912035
-0.12070000000000003,-32.49591855789989
-0.12170000000000014,-32.62324257488775
-0.12270000000000003,-32.66568391388369
-0.12370000000000014,-32.807155043870196
-0.12470000000000003,-32.93447906085806
-0.12570000000000014,-33.10424441684186
-0.12670000000000003,-33.288156885824314
-0.12770000000000015,-33.45792224180811
-0.12870000000000004,-33.670128936787876
-0.12970000000000015,-33.85404140577033
-0.13070000000000004,-34.10868943974604
-0.13170000000000015,-34.278454795729836
-0.13270000000000004,-34.462367264712285
-0.13370000000000015,-34.58969128170015
-0.13470000000000004,-34.75945663768395
-0.13570000000000015,-34.90092776767045
-0.13670000000000004,-35.02825178465831
-0.13770000000000016,-35.198017140642115
-0.13870000000000005,-35.38192960962457
-0.13970000000000016,-35.594136304604326
-0.14070000000000005,-35.763901660588125
-0.14170000000000016,-36.03269680756248
-0.14270000000000005,-36.244903502542236
-0.14370000000000016,-36.5136986495166
-0.14470000000000005,-36.725905344496354
-0.14570000000000016,-36.95225915247476
-0.14670000000000005,-37.122024508458566
-0.14770000000000016,-37.291789864442364
-0.14870000000000005,-37.51814367242077
-0.14970000000000017,-37.687909028404576
-0.15070000000000006,-37.90011572338433
-0.15170000000000017,-38.08402819236679
-0.15270000000000006,-38.29623488734655
-0.15370000000000017,-38.5650300343209
-0.15470000000000006,-38.81967806829661
-0.15570000000000017,-39.130914554266916
-0.15670000000000006,-39.34312124924667
-0.15770000000000017,-39.61191639622103
-0.15870000000000006,-39.86656443019674
-0.15970000000000018,-40.135359577171094
-0.16070000000000007,-40.34756627215084
-0.16170000000000018,-40.559772967130606
-0.16270000000000007,-40.78612677510901
-0.16370000000000018,-41.04077480908471
-0.16470000000000007,-41.30956995605907
-0.16570000000000018,-41.56421799003478
-0.16670000000000007,-41.87545447600508
-0.16770000000000018,-42.130102509980794
-0.16870000000000007,-42.4413389959511
-0.16970000000000018,-42.79501682091736
-0.17070000000000007,-43.09210619388902
-0.17170000000000019,-43.40334267985933
-0.17270000000000008,-43.75702050482558
-0.1737000000000002,-44.011668538801295
-0.17470000000000008,-44.3229050247716
-0.1757000000000002,-44.577553058747306
-0.17670000000000008,-44.84634820572166
-0.1777000000000002,-45.143437578693316
-0.17870000000000008,-45.45467406466363
-0.1797000000000002,-45.75176343763528
-0.18070000000000008,-46.062999923605595
-0.1817000000000002,-46.41667774857186
-0.18270000000000008,-46.79864979953541
-0.1837000000000002,-47.19476896349763
-0.1847000000000001,-47.54844678846388
-0.1857000000000002,-47.84553616143554
-0.1867000000000001,-48.1992139864018
-0.1877000000000002,-48.51045047237211
-0.1887000000000001,-48.80753984534376
-0.1897000000000002,-49.118776331314066
-0.1907000000000001,-49.41586570428573
-0.1917000000000001,-49.76954352925199
-0.19269999999999998,-50.12322135421825
-0.1937000000000001,-50.46275206618586
-0.19469999999999998,-50.85887123014807
-0.1957000000000001,-51.29743173310623
-0.19669999999999999,-51.69355089706845
-0.1977000000000001,-52.075522948032
-0.1987,-52.471642111994214
-0.1997000000000001,-52.82531993696047
-0.2007,-53.22143910092268
-0.2017000000000001,-53.518528473894335
-0.2027,-53.91464763785655
-0.2037000000000001,-54.2117370108282
-0.2047,-54.56541483579447
-0.2057000000000001,-54.919092660760725
-0.2067,-55.25862337272834
-0.2077000000000001,-55.6971838756865
-0.2087,-56.13574437864466
-0.2097000000000001,-56.53186354260687
-0.2107,-56.97042404556503
-0.2117000000000001,-57.352396096528594
-0.2127,-57.7485152604908
-0.2137000000000001,-58.10219308545706
-0.2147,-58.45587091042332
-0.2157000000000001,-58.83784296138688
-0.2167,-59.19152078635314
-0.21770000000000012,-59.502757272323436
-0.2187,-59.884729323287
-0.21970000000000012,-60.23840714825326
-0.2207,-60.63452631221547
-0.22170000000000012,-61.01649836317903
-0.2227,-61.455058866137186
-0.22370000000000012,-61.80873669110345
-0.2247,-62.24729719406162
-0.22570000000000012,-62.58682790602922
-0.2267,-62.94050573099548
-0.22770000000000012,-63.3366248949577
-0.22870000000000001,-63.6761556069253
-0.22970000000000013,-64.02983343189156
-0.23070000000000002,-64.38351125685783
-0.23170000000000013,-64.72304196882543
-0.23270000000000002,-65.11916113278764
-0.23370000000000013,-65.4728389577539
-0.23470000000000002,-65.95384079970802
-0.23570000000000013,-66.34995996367022
-0.23670000000000002,-66.73193201463377
-0.2376999999999999,-67.128051178596
-0.23870000000000002,-67.52417034255821
-0.2396999999999999,-67.86370105452582
-0.24070000000000003,-68.21737887949207
-0.24169999999999991,-68.57105670445833
-0.24270000000000003,-68.91058741642594
-0.24369999999999992,-69.22182390239624
-0.24470000000000003,-69.61794306635846
-0.24569999999999992,-69.91503243933012
-0.24670000000000003,-70.26871026429637
-0.24769999999999992,-70.66482942825859
-0.24870000000000003,-71.06094859222078
-0.24969999999999992,-71.4004793041884
-0.25070000000000003,-71.83903980714656
-0.2516999999999999,-72.19271763211282
-0.25270000000000004,-72.53224834408043
-0.2536999999999999,-72.8859261690467
-0.25470000000000004,-73.197162655017
-0.2556999999999999,-73.53669336698461
-0.25670000000000004,-73.80548851395896
-0.25769999999999993,-74.10257788693062
-0.25870000000000004,-74.41381437290093
-0.25969999999999993,-74.80993353686314
-0.26070000000000004,-75.14946424883075
-0.26169999999999993,-75.46070073480107
-0.26270000000000004,-75.8992612377592
-0.26369999999999993,-76.23879194972683
-0.26470000000000005,-76.5924697746931
-0.26569999999999994,-76.94614759965934
-0.26670000000000005,-77.243236972631
-0.26769999999999994,-77.55447345860131
-0.26870000000000005,-77.86570994457162
-0.26969999999999994,-78.12035797854733
-0.27070000000000005,-78.38915312552167
-0.27169999999999994,-78.68624249849334
-0.27270000000000005,-78.99747898446365
-0.27369999999999994,-79.2945683574353
-0.27470000000000006,-79.64824618240156
-0.27569999999999995,-80.00192400736783
-0.27670000000000006,-80.29901338033947
-0.27769999999999995,-80.61024986630979
-0.27870000000000006,-80.90733923928146
-0.27969999999999995,-81.21857572525175
-0.28070000000000006,-81.47322375922747
-0.28169999999999995,-81.74201890620182
-0.28270000000000006,-81.95422560118158
-0.28369999999999995,-82.22302074815593
-0.28470000000000006,-82.47766878213164
-0.28569999999999995,-82.746463929106
-0.28670000000000007,-83.04355330207765
-0.28769999999999996,-83.31234844905201
-0.28870000000000007,-83.60943782202366
-0.28969999999999996,-83.92067430799398
-0.29070000000000007,-84.18946945496833
-0.29169999999999996,-84.48655882793999
-0.29270000000000007,-84.75535397491434
-0.29369999999999996,-84.96756066989411
-0.2947000000000001,-85.17976736487385
-0.29569999999999996,-85.40612117285227
-0.2967000000000001,-85.57588652883607
-0.29769999999999996,-85.80224033681448
-0.2987000000000001,-86.01444703179425
-0.29969999999999997,-86.22665372677399
-0.3007000000000001,-86.45300753475239
-0.30169999999999997,-86.7076555687281
-0.3027000000000001,-86.97645071570246
-0.30369999999999997,-87.23109874967815
-0.3047000000000001,-87.49989389665252
-0.30569999999999997,-87.66965925263632
-0.3067000000000001,-87.89601306061473
-0.3077,-88.06577841659853
-0.3087000000000001,-88.23554377258235
-0.3097,-88.46189758056073
-0.3107000000000001,-88.5892215975486
-0.3117,-88.7589869535324
-0.3127000000000001,-88.94289942251486
-0.3137,-89.15510611749461
-0.3147000000000001,-89.42390126446898
-0.3157,-89.63610795944872
-0.3167000000000001,-89.84831465442848
-0.3177,-90.07466846240689
-0.3187000000000001,-90.24443381839069
-0.3197,-90.47078762636909
-0.3207000000000001,-90.6405529823529
-0.3217,-90.76787699934074
-0.3227000000000001,-90.93764235532454
-0.3237,-91.12155482430701
-0.3247000000000001,-91.24887884129487
-0.3257,-91.41864419727867
-0.3267000000000001,-91.64499800525708
-0.3277,-91.85720470023682
-0.3287000000000001,-92.08355850821525
-0.3297,-92.29576520319499
-0.3307000000000001,-92.50797189817473
-0.3317,-92.73432570615316
-0.3327000000000001,-92.90409106213696
-0.3337,-93.03141507912481
-0.3347000000000001,-93.21532754810727
-0.3357,-93.34265156509512
-0.3367000000000001,-93.51241692107894
-0.3377,-93.69632939006138
-0.3387000000000001,-93.86609474604518
-0.3397,-94.03586010202899
-0.3407000000000001,-94.26221391000739
-0.3417,-94.4319792659912
-0.3427000000000001,-94.6583330739696
-0.3437,-94.91298110794531
-0.3447000000000001,-95.08274646392913
-0.3457,-95.30910027190752
-0.3467000000000001,-95.47886562789132
-0.3477,-95.64863098387512
-0.3487000000000001,-95.83254345285758
-0.3497,-95.95986746984543
-0.3507000000000001,-96.12963282582925
-0.3517,-96.31354529481169
-0.3527000000000001,-96.52575198979144
-0.3537,-96.73795868477121
-0.3547000000000001,-97.00675383174556
-0.3557,-97.21896052672531
-0.35670000000000013,-97.44531433470372
-0.3577,-97.69996236867944
-0.35870000000000013,-97.92631617665783
-0.3597,-98.13852287163759
-0.36070000000000013,-98.364876679616
-0.3617,-98.5346420355998
-0.3626999999999999,-98.7044073915836
-0.3637,-98.93076119956201
-0.3646999999999999,-99.10052655554581
-0.3657,-99.35517458952152
-0.3666999999999999,-99.58152839749994
-0.3677,-99.83617643147564
-0.3686999999999999,-100.14741291744595
-0.36970000000000003,-100.40206095142165
-0.3706999999999999,-100.670856098396
-0.37170000000000003,-100.98209258436633
-0.3726999999999999,-101.23674061834203
-0.37370000000000003,-101.44894731332178
-0.3746999999999999,-101.6753011213002
-0.37570000000000003,-101.88750781627995
-0.3766999999999999,-102.11386162425833
-0.37770000000000004,-102.36850965823406
-0.3786999999999999,-102.59486346621246
-0.37970000000000004,-102.84951150018817
-0.3806999999999999,-103.16074798615847
-0.38170000000000004,-103.41539602013418
-0.38269999999999993,-103.81151518409638
-0.38370000000000004,-104.12275167006669
-0.38469999999999993,-104.41984104303836
-0.38570000000000004,-104.73107752900866
-0.38669999999999993,-104.98572556298437
-0.38770000000000004,-105.25452070995874
-0.38869999999999993,-105.5516100829304
-0.38970000000000005,-105.82040522990474
-0.39069999999999994,-106.07505326388046
-0.39170000000000005,-106.38628974985076
-0.39269999999999994,-106.64093778382647
-0.39370000000000005,-106.99461560879273
-0.39469999999999994,-107.34829343375898
-0.39570000000000005,-107.73026548472255
-0.39669999999999994,-108.0839433096888
-0.39770000000000005,-108.43762113465506
-0.39869999999999994,-108.77715184662266
-0.39970000000000006,-109.13082967158894
-0.40069999999999995,-109.4845074965552
-0.40170000000000006,-109.78159686952685
-0.40269999999999995,-110.09283335549715
-0.40370000000000006,-110.4465111804634
-0.40469999999999995,-110.74360055343507
-0.40570000000000006,-111.09727837840134
-0.40669999999999995,-111.49339754236355
-0.40770000000000006,-111.8753695933271
-0.40869999999999995,-112.31393009628526
-0.40970000000000006,-112.71004926024747
-0.41069999999999995,-113.10616842420968
-0.41170000000000007,-113.48814047517324
-0.41269999999999996,-113.88425963913545
-0.41370000000000007,-114.28037880309766
-0.41469999999999996,-114.63405662806393
-0.41570000000000007,-115.01602867902749
-0.41669999999999996,-115.36970650399375
-0.41770000000000007,-115.76582566795594
-0.41869999999999996,-116.20438617091412
-0.4197000000000001,-116.58635822187767
-0.42069999999999996,-117.06736006383179
-0.4217000000000001,-117.50592056678994
-0.42269999999999996,-117.98692240874406
-0.4237000000000001,-118.51036558969413
-0.42469999999999997,-118.94892609265229
-0.4257000000000001,-119.4299279346064
-0.42669999999999997,-119.81189998556997
-0.4277000000000001,-120.25046048852812
-0.42869999999999997,-120.64657965249035
-0.4297000000000001,-121.0851401554485
-0.43069999999999997,-121.52370065840667
-0.4317000000000001,-121.90567270937021
-0.4327,-122.34423321232836
-0.4337000000000001,-122.86767639327843
-0.4347,-123.34867823523254
-0.4357000000000001,-123.87212141618261
-0.4367,-124.35312325813672
-0.4377000000000001,-124.87656643908679
-0.4387,-125.35756828104091
-0.4397000000000001,-125.83857012299501
-0.4407,-126.27713062595316
-0.4417000000000001,-126.75813246790726
-0.4427,-127.19669297086547
-0.4437000000000001,-127.62110636082497
-0.4447,-128.10210820277908
-0.4457000000000001,-128.5831100447332
-0.4467,-129.0641118866873
-0.4477000000000001,-129.58755506763737
-0.4487,-130.1534395875834
-0.4497000000000001,-130.67688276853346
-0.4507,-131.28520862747538
-0.4517000000000001,-131.8510931474214
-0.4527,-132.37453632837148
-0.4537000000000001,-132.89797950932152
-0.4547,-133.37898135127566
-0.4557000000000001,-133.90242453222572
-0.4567,-134.46830905217172
-0.4577000000000001,-134.94931089412586
-0.4587,-135.51519541407185
-0.4597000000000001,-136.03863859502192
-0.4607,-136.60452311496792
-0.4617000000000001,-137.2694374259045
-0.4627,-137.92020462384244
-0.4637000000000001,-138.52853048278442
-0.4647,-139.1792976807223
-0.4657000000000001,-139.80177065266292
-0.4667,-140.36765517260895
-0.4677000000000001,-140.93353969255494
-0.4687,-141.47112998650366
-0.4697000000000001,-142.03701450644968
-0.4707,-142.7443701563822
-0.4717000000000001,-143.3102546763282
-0.4727,-143.87613919627424
-0.4737000000000001,-144.58349484620675
-0.4747,-145.14937936615277
-0.4757000000000001,-145.85673501608528
-0.4767,-146.5640906660178
-0.4777000000000001,-147.27144631595033
-0.4787,-147.97880196588284
-0.4797000000000001,-148.68615761581535
-0.4807,-149.39351326574788
-0.48170000000000013,-150.1008689156804
-0.4827,-150.8082245656129
-0.48370000000000013,-151.37410908555893
-0.4847,-152.0814647354914
-0.48570000000000013,-152.78882038542397
-0.4867,-151.7985224755184
-0.48570000000000013,-148.54468648582886
-0.4847,-145.85673501608528
-0.48370000000000013,-143.3102546763282
-0.4827,-141.14574638753473
-0.48170000000000013,-139.05197366373446
-0.4807,-137.04308361792607
-0.4797000000000001,-135.09078202411234
-0.4787,-133.08189197830401
-0.4777000000000001,-131.28520862747538
-0.4767,-129.41778971165354
-0.4757000000000001,-127.62110636082497
-0.4747,-125.88101146199097
-0.4737000000000001,-124.18335790215292
-0.4727,-122.48570434231489
-0.4717000000000001,-120.81634500847414
-0.4707,-119.24601546562396
-0.4697000000000001,-117.71812726176971
-0.4687,-116.20438617091412
-0.4677000000000001,-114.67649796705987
-0.4667,-113.14860976320564
-0.4657000000000001,-111.6207215593514
-0.4647,-110.1352746944931
-0.4637000000000001,-108.64982782963483
