Potential V vs RHE, Current mA cm-2
0.013299999999999867,0.7829012333453113
0.012299999999999978,-0.3947044526623452
0.011299999999999866,-1.3980177065266295
0.010299999999999976,-2.3569090255751513
0.009299999999999864,-3.1420737970002466
0.008299999999999974,-3.884797229429391
0.007299999999999862,-4.582249900262854
0.006299999999999972,-5.279702571096316
0.00529999999999986,-5.890857852638012
0.0042999999999999705,-6.458157083883892
0.0032999999999998586,-7.067897654125724
0.0022999999999999687,-7.635196885371603
0.0012999999999998568,-8.11478401602585
0.00029999999999996696,-8.55051509638428
-0.000700000000000145,-8.987660888042578
-0.0017000000000000348,-9.335679867809377
-0.0027000000000001467,-9.685113558876042
-0.0037000000000000366,-10.034547249942705
-0.0047000000000001485,-10.340124890713554
-0.005700000000000038,-10.644287820184536
-0.00670000000000015,-10.949865460955383
-0.00770000000000004,-11.255443101726232
-0.008700000000000152,-11.604876792792895
-0.009700000000000042,-11.952895772559694
-0.010700000000000154,-12.258473413330542
-0.011700000000000044,-12.56405105410139
-0.012700000000000156,-12.869628694872238
-0.013700000000000045,-13.13135028534727
-0.014700000000000157,-13.349215825526485
-0.015700000000000047,-13.610937416001518
-0.01670000000000016,-13.828802956180734
-0.01770000000000005,-14.046668496359947
-0.01870000000000016,-14.217848563643619
-0.01970000000000005,-14.486643710617974
-0.020700000000000163,-14.741291744593681
-0.021700000000000053,-15.01008689156804
-0.022700000000000164,-15.264734925543747
-0.023700000000000054,-15.533530072518102
-0.024700000000000166,-15.830619445489761
-0.025700000000000056,-16.099414592464115
-0.026700000000000168,-16.311621287443874
-0.027700000000000058,-16.53797509542228
-0.02870000000000017,-16.750181790402035
-0.02970000000000006,-16.962388485381787
-0.03070000000000017,-17.146300954364243
-0.03170000000000006,-17.316066310348052
-0.03270000000000017,-17.542420118326454
-0.03370000000000006,-17.75462681330621
-0.034700000000000175,-18.009274847281915
-0.035700000000000065,-18.27806999425627
-0.03670000000000018,-18.53271802823198
-0.03770000000000007,-18.80151317520634
-0.03870000000000018,-19.056161209182044
-0.03970000000000007,-19.3249563561564
-0.04070000000000018,-19.537163051136158
-0.04170000000000007,-19.763516859114564
-0.04270000000000018,-19.97572355409432
-0.04370000000000007,-20.202077362072725
-0.044700000000000184,-20.371842718056527
-0.045700000000000074,-20.584049413036283
-0.046700000000000186,-20.85284456001064
-0.047700000000000076,-21.107492593986347
-0.04870000000000019,-21.418729079956652
-0.04970000000000008,-21.729965565926964
-0.05070000000000019,-21.98461359990267
-0.05170000000000008,-22.33829142486893
-0.05270000000000019,-22.592939458844636
-0.05370000000000008,-22.904175944814945
-0.05470000000000019,-23.1163826397947
-0.05570000000000008,-23.385177786769056
-0.056700000000000195,-23.597384481748815
-0.057700000000000085,-23.823738289727217
-0.058700000000000196,-24.035944984706973
-0.059700000000000086,-24.290593018682678
-0.0607000000000002,-24.559388165657033
-0.06170000000000009,-24.814036199632742
-0.0627000000000002,-25.12527268560305
-0.06370000000000009,-25.43650917157336
-0.0647000000000002,-25.691157205549064
-0.06570000000000009,-26.002393691519377
-0.0667000000000002,-26.257041725495082
-0.0677000000000001,-26.525836872469437
-0.0687000000000002,-26.738043567449193
-0.0697000000000001,-27.00683871442355
-0.07070000000000021,-27.219045409403304
-0.0717000000000001,-27.43125210438306
-0.07270000000000021,-27.65760591236147
-0.0737000000000001,-27.954695285333123
-0.07470000000000021,-28.265931771303435
-0.0757000000000001,-28.577168257273744
-0.07670000000000021,-28.8742576302454
-0.0777000000000001,-29.22793545521166
-0.07870000000000021,-29.581613280177915
-0.0797000000000001,-29.836261314153624
-0.08070000000000022,-30.189939139119886
-0.0817000000000001,-30.402145834099635
-0.08270000000000022,-30.71338232006995
-0.08370000000000011,-31.010471693041605
-0.08470000000000022,-31.27926684001596
-0.08570000000000011,-31.533914873991666
-0.08670000000000022,-31.84515135996197
-0.08770000000000011,-32.14224073293363
-0.08870000000000022,-32.45347721890394
-0.08970000000000011,-32.764713704874254
-0.09070000000000022,-33.06180307784591
-0.09170000000000011,-33.41548090281216
-0.09270000000000023,-33.712570275783825
-0.09370000000000012,-34.02380676175414
-0.09470000000000023,-34.278454795729836
-0.09570000000000012,-34.5472499427042
-0.09670000000000023,-34.85848642867451
-0.09770000000000012,-35.07069312365426
-0.09870000000000023,-35.32534115762997
-0.09970000000000012,-35.636577643600276
-0.10070000000000023,-35.90537279057463
-0.10170000000000012,-36.16002082455034
-0.10270000000000024,-36.47125731052064
-0.10370000000000013,-36.768346683492304
-0.10470000000000024,-37.037141830466666
-0.10570000000000013,-37.334231203438314
-0.10670000000000024,-37.645467689408626
-0.10770000000000013,-37.90011572338433
-0.10870000000000024,-38.08402819236679
-0.10970000000000013,-38.33867622634249
-0.11070000000000024,-38.522588695324956
-0.11170000000000013,-38.734795390304704
-0.11270000000000002,-38.98944342428042
-0.11370000000000013,-39.21579723225882
-0.11470000000000002,-39.51288660523048
-0.11570000000000014,-39.78168175220483
-0.11670000000000003,-40.135359577171094
-0.11770000000000014,-40.4748902891387
-0.11870000000000003,-40.78612677510901
-0.11970000000000014,-41.139804600075266
-0.12070000000000003,-41.43689397304693
-0.12170000000000014,-41.70568912002128
-0.12270000000000003,-41.96033715399699
-0.12370000000000014,-42.229132300971344
-0.12470000000000003,-42.4413389959511
-0.12570000000000014,-42.71013414292546
-0.12670000000000003,-43.007223515897124
-0.12770000000000015,-43.31846000186743
-0.12870000000000004,-43.657990713835034
-0.12970000000000015,-43.96922719980534
-0.13070000000000004,-44.3229050247716
-0.13170000000000015,-44.619994397743255
-0.13270000000000004,-44.93123088371356
-0.13370000000000015,-45.143437578693316
-0.13470000000000004,-45.412232725667685
-0.13570000000000015,-45.581998081651484
-0.13670000000000004,-45.85079322862584
-0.13770000000000016,-46.02055858460964
-0.13870000000000005,-46.2327652795894
-0.13970000000000016,-46.501560426563756
-0.14070000000000005,-46.75620846053947
-0.14170000000000016,-47.067444946509774
-0.14270000000000005,-47.36453431948143
-0.14370000000000016,-47.67577080545174
-0.14470000000000005,-48.029448630417996
-0.14570000000000016,-48.2840966643937
-0.14670000000000005,-48.63777448935996
-0.14770000000000016,-48.84998118433972
-0.14870000000000005,-49.118776331314066
-0.14970000000000017,-49.373424365289786
-0.15070000000000006,-49.642219512264134
-0.15170000000000017,-49.89686754623985
-0.15270000000000006,-50.1656626932142
-0.15370000000000017,-50.46275206618586
-0.15470000000000006,-50.73154721316022
-0.15570000000000017,-51.028636586131874
-0.15670000000000006,-51.29743173310623
-0.15770000000000017,-51.65110955807249
-0.15870000000000006,-51.90575759204819
-0.15970000000000018,-52.17455273902255
-0.16070000000000007,-52.386759434002315
-0.16170000000000018,-52.64140746797801
-0.16270000000000007,-52.86776127595642
-0.16370000000000018,-53.079967970936174
-0.16470000000000007,-53.348763117910536
-0.16570000000000018,-53.603411151886235
-0.16670000000000007,-53.91464763785655
-0.16770000000000018,-54.16929567183226
-0.16870000000000007,-54.480532157802564
-0.16970000000000018,-54.791768643772876
-0.17070000000000007,-55.13129935574048
-0.17170000000000019,-55.442535841710786
-0.17270000000000008,-55.6971838756865
-0.1737000000000002,-56.008420361656796
-0.17470000000000008,-56.26306839563251
-0.1757000000000002,-56.53186354260687
-0.17670000000000008,-56.786511576582576
-0.1777000000000002,-57.05530672355693
-0.17870000000000008,-57.30995475753264
-0.1797000000000002,-57.62119124350295
-0.18070000000000008,-57.87583927747865
-0.1817000000000002,-58.18707576344896
-0.18270000000000008,-58.498312249419264
-0.1837000000000002,-58.79540162239092
-0.1847000000000001,-59.10663810836124
-0.1857000000000002,-59.403727481332886
-0.1867000000000001,-59.7149639673032
-0.1877000000000002,-59.9696120012789
-0.1887000000000001,-60.23840714825326
-0.1897000000000002,-60.45061384323302
-0.1907000000000001,-60.67696765121143
-0.1917000000000001,-60.93161568518713
-0.19269999999999998,-61.15796949316553
-0.1937000000000001,-61.412617527141244
-0.19469999999999998,-61.6814126741156
-0.1957000000000001,-61.936060708091304
-0.19669999999999999,-62.28973853305756
-0.1977000000000001,-62.64341635802381
-0.1987,-62.94050573099548
-0.1997000000000001,-63.251742216965795
-0.2007,-63.5063902509415
-0.2017000000000001,-63.77518539791585
-0.2027,-64.0722747708875
-0.2037000000000001,-64.34106991786187
-0.2047,-64.55327661284163
-0.2057000000000001,-64.77963042082003
-0.2067,-65.03427845479574
-0.2077000000000001,-65.3030736017701
-0.2087,-65.60016297474175
-0.2097000000000001,-65.95384079970802
-0.2107,-66.25093017267966
-0.2117000000000001,-66.60460799764593
-0.2127,-66.87340314462028
-0.2137000000000001,-67.17049251759194
-0.2147,-67.48172900356225
-0.2157000000000001,-67.73637703753796
-0.2167,-68.0051721845123
-0.21770000000000012,-68.25982021848802
-0.2187,-68.52861536546239
-0.21970000000000012,-68.78326339943808
-0.2207,-69.05205854641244
-0.22170000000000012,-69.39158925838004
-0.2227,-69.74526708334632
-0.22370000000000012,-70.09894490831257
-0.2247,-70.48091695927613
-0.22570000000000012,-70.87703612323833
-0.2267,-71.27315528720055
-0.22770000000000012,-71.6268331121668
-0.22870000000000001,-71.96636382413442
-0.22970000000000013,-72.27760031010472
-0.23070000000000002,-72.53224834408043
-0.23170000000000013,-72.84348483005074
-0.23270000000000002,-73.09813286402644
-0.23370000000000013,-73.40936934999675
-0.23470000000000002,-73.72060583596706
-0.23570000000000013,-74.10257788693062
-0.23670000000000002,-74.45625571189689
-0.2376999999999999,-74.80993353686314
-0.23870000000000002,-75.1070229098348
-0.2396999999999999,-75.46070073480107
-0.24070000000000003,-75.81437855976732
-0.24169999999999991,-76.11146793273898
-0.24270000000000003,-76.42270441870929
-0.24369999999999992,-76.7622351306769
-0.24470000000000003,-77.0734716166472
-0.24569999999999992,-77.42714944161345
-0.24670000000000003,-77.76668015358106
-0.24769999999999992,-78.07791663955136
-0.24870000000000003,-78.43159446451764
-0.24969999999999992,-78.77112517648524
-0.25070000000000003,-79.08236166245555
-0.2516999999999999,-79.37945103542721
-0.25270000000000004,-79.73312886039348
-0.2536999999999999,-80.04436534636378
-0.25470000000000004,-80.38389605833139
-0.2556999999999999,-80.69513254430169
-0.25670000000000004,-80.99222191727335
-0.25769999999999993,-81.26101706424771
-0.25870000000000004,-81.57225355021802
-0.25969999999999993,-81.91178426218562
-0.26070000000000004,-82.30790342614785
-0.26169999999999993,-82.70402259011003
-0.26270000000000004,-83.14258309306821
-0.26369999999999993,-83.56699648302772
-0.26470000000000005,-84.00555698598588
-0.26569999999999994,-84.40167614994809
-0.26670000000000005,-84.84023665290624
-0.26769999999999994,-85.17976736487385
-0.26870000000000005,-85.53344518984011
-0.26969999999999994,-85.88712301480638
-0.27070000000000005,-86.18421238777805
-0.27169999999999994,-86.58033155174023
-0.27270000000000005,-86.89156803771054
-0.27369999999999994,-87.23109874967815
-0.27470000000000006,-87.58477657464444
-0.27569999999999995,-87.98089573860662
-0.27670000000000006,-88.37701490256885
-0.27769999999999995,-88.7589869535324
-0.27870000000000006,-89.11266477849867
-0.27969999999999995,-89.46634260346492
-0.28070000000000006,-89.89075599342443
-0.28169999999999995,-90.28687515738663
-0.28270000000000006,-90.6405529823529
-0.28369999999999995,-91.03667214631511
-0.28470000000000006,-91.37620285828272
-0.28569999999999995,-91.81476336124088
-0.28670000000000007,-92.2108825252031
-0.28769999999999996,-92.64944302816124
-0.28870000000000007,-93.13044487011537
-0.28969999999999996,-93.55485826007487
-0.29070000000000007,-94.07830144102493
-0.29169999999999996,-94.55930328297906
-0.29270000000000007,-95.12518780292505
-0.29369999999999996,-95.56374830588322
-0.2947000000000001,-96.0871914868333
-0.29569999999999996,-96.4833106507955
-0.2967000000000001,-96.92187115375367
-0.29769999999999996,-97.26140186572127
-0.2987000000000001,-97.61507969068752
-0.29969999999999997,-97.92631617665783
-0.3007000000000001,-98.18096421063355
-0.30169999999999997,-98.49220069660386
-0.3027000000000001,-98.7892900695755
-0.30369999999999997,-99.14296789454177
-0.3047000000000001,-99.49664571950804
-0.30569999999999997,-99.87861777047159
-0.3067000000000001,-100.18985425644189
-0.3077,-100.54353208140815
-0.3087000000000001,-100.88306279337576
-0.3097,-101.19429927934607
-0.3107000000000001,-101.50553576531638
-0.3117,-101.80262513828804
-0.3127000000000001,-102.1563029632543
-0.3137,-102.4958336752219
-0.3147000000000001,-102.89195283918411
-0.3157,-103.33051334214227
-0.3167000000000001,-103.76907384510045
-0.3177,-104.2925170260505
-0.3187000000000001,-104.77351886800463
-0.3197,-105.21207937096277
-0.3207000000000001,-105.59405142192634
-0.3217,-106.0326119248845
-0.3227000000000001,-106.38628974985076
-0.3237,-106.73996757481702
-0.3247000000000001,-107.03705694778867
-0.3257,-107.39073477275493
-0.3267000000000001,-107.73026548472255
-0.3277,-108.0839433096888
-0.3287000000000001,-108.43762113465506
-0.3297,-108.77715184662266
-0.3307000000000001,-109.08838833259297
-0.3317,-109.44206615755924
-0.3327000000000001,-109.78159686952685
-0.3337,-110.05039201650122
-0.3347000000000001,-110.34748138947285
-0.3357,-110.6162765364472
-0.3367000000000001,-110.87092457042293
-0.3377,-111.13971971739728
-0.3387000000000001,-111.394367751373
-0.3397,-111.74804557633925
-0.3407000000000001,-112.10172340130552
-0.3417,-112.54028390426367
-0.3427000000000001,-113.00713863321914
-0.3437,-113.48814047517324
-0.3447000000000001,-114.0115836561233
-0.3457,-114.45014415908147
-0.3467000000000001,-114.93114600103557
-0.3477,-115.36970650399375
-0.3487000000000001,-115.72338432896
-0.3497,-116.10535637992358
-0.3507000000000001,-116.45903420488982
-0.3517,-116.72782935186417
-0.3527000000000001,-116.98247738583989
-0.3537,-117.25127253281424
-0.3547000000000001,-117.46347922779398
-0.3557,-117.67568592277377
-0.35670000000000013,-117.90203973075215
-0.3577,-118.15668776472786
-0.35870000000000013,-118.38304157270628
-0.3597,-118.63768960668197
-0.36070000000000013,-118.86404341466037
-0.3617,-119.03380877064419
-0.3626999999999999,-119.24601546562396
-0.3637,-119.51481061259831
-0.3646999999999999,-119.68457596858211
-0.3657,-119.95337111555646
-0.3666999999999999,-120.16557781053622
-0.3677,-120.47681429650652
-0.3686999999999999,-120.77390366947817
-0.36970000000000003,-121.12758149444444
-0.3706999999999999,-121.43881798041474
-0.37170000000000003,-121.69346601439047
-0.3726999999999999,-121.90567270937021
-0.37370000000000003,-122.08958517835266
-0.3746999999999999,-122.25935053433648
-0.37570000000000003,-122.42911589032028
-0.3766999999999999,-122.52814568131083
-0.37770000000000004,-122.69791103729463
-0.3786999999999999,-122.86767639327843
-0.37970000000000004,-123.05158886226087
-0.3806999999999999,-123.2213542182447
-0.38170000000000004,-123.39111957422851
-0.38269999999999993,-123.532590704215
-0.38370000000000004,-123.70235606019881
-0.38469999999999993,-123.91456275517855
-0.38570000000000004,-124.09847522416102
-0.38669999999999993,-124.26824058014482
-0.38770000000000004,-124.43800593612862
-0.38869999999999993,-124.62191840511109
-0.38970000000000005,-124.7916837610949
-0.39069999999999994,-124.9614491170787
-0.39170000000000005,-125.14536158606113
-0.39269999999999994,-125.23024426405304
-0.39370000000000005,-125.35756828104091
-0.39469999999999994,-125.44245095903281
-0.39570000000000005,-125.5273336370247
-0.39669999999999994,-125.62636342801528
-0.39770000000000005,-125.71124610600715
-0.39869999999999994,-125.79612878399907
-0.39970000000000006,-125.83857012299501
-0.40069999999999995,-125.88101146199097
-0.40170000000000006,-125.92345280098691
-0.40269999999999995,-125.88101146199097
-0.40370000000000006,-125.83857012299501
-0.40469999999999995,-125.7536874450031
-0.40570000000000006,-125.6688047670112
-0.40669999999999995,-125.62636342801528
-0.40770000000000006,-125.5273336370247
-0.40869999999999995,-125.48489229802875
-0.40970000000000006,-125.48489229802875
-0.41069999999999995,-125.44245095903281
-0.41170000000000007,-125.40000962003687
-0.41269999999999996,-125.35756828104091
-0.41370000000000007,-125.272685603049
-0.41469999999999996,-125.18780292505707
-0.41570000000000007,-125.04633179507057
-0.41669999999999996,-124.87656643908679
-0.41770000000000007,-124.74924242209892
-0.41869999999999996,-124.57947706611512
-0.4197000000000001,-124.43800593612862
-0.42069999999999996,-124.39556459713268
-0.4217000000000001,-124.31068191914078
-0.42269999999999996,-124.26824058014482
-0.4237000000000001,-124.18335790215292
-0.42469999999999997,-124.09847522416102
-0.4257000000000001,-123.95700409417452
-0.42669999999999997,-123.87212141618261
-0.4277000000000001,-123.70235606019881
-0.42869999999999997,-123.4760022522204
-0.4297000000000001,-123.2213542182447
-0.43069999999999997,-123.05158886226087
-0.4317000000000001,-122.82523505428249
-0.4327,-122.65546969829869
-0.4337000000000001,-122.52814568131083
-0.4347,-122.38667455132433
-0.4357000000000001,-122.34423321232836
-0.4367,-122.25935053433648
-0.4377000000000001,-122.17446785634456
-0.4387,-122.0471438393567
-0.4397000000000001,-121.96226116136481
-0.4407,-121.82079003137831
-0.4417000000000001,-121.69346601439047
-0.4427,-121.52370065840667
-0.4437000000000001,-121.33978818942418
-0.4447,-121.17002283344038
-0.4457000000000001,-121.04269881645253
-0.4467,-120.9153747994647
-0.4477000000000001,-120.81634500847414
-0.4487,-120.64657965249035
-0.4497000000000001,-120.56169697449842
-0.4507,-120.51925563550247
-0.4517000000000001,-120.51925563550247
-0.4527,-120.47681429650652
-0.4537000000000001,-120.47681429650652
-0.4547,-120.43437295751058
-0.4557000000000001,-120.39193161851462
-0.4567,-120.39193161851462
-0.4577000000000001,-120.39193161851462
-0.4587,-120.33534316652002
-0.4597000000000001,-120.29290182752408
-0.4607,-120.33534316652002
-0.4617000000000001,-120.47681429650652
-0.4627,-120.56169697449842
-0.4637000000000001,-120.64657965249035
-0.4647,-120.77390366947817
-0.4657000000000001,-120.85878634747009
-0.4667,-120.95781613846064
-0.4677000000000001,-121.0851401554485
-0.4687,-121.21246417243634
-0.4697000000000001,-121.29734685042824
-0.4707,-121.43881798041474
-0.4717000000000001,-121.56614199740261
-0.4727,-121.65102467539451
-0.4737000000000001,-121.77834869238235
-0.4747,-121.90567270937021
-0.4757000000000001,-122.08958517835266
-0.4767,-122.21690919534053
-0.4777000000000001,-122.42911589032028
-0.4787,-122.57058702030677
-0.4797000000000001,-122.78279371528653
-0.4807,-122.95255907127036
-0.48170000000000013,-123.1364715402528
-0.4827,-123.26379555724066
-0.48370000000000013,-123.43356091322445
-0.4847,-123.57503204321095
-0.48570000000000013,-123.78723873819072
-0.4867,-123.00914752326493
-0.48570000000000013,-120.60413831349437
-0.4847,-118.46792425069816
-0.48370000000000013,-116.45903420488982
-0.4827,-114.57746817606933
-0.48170000000000013,-112.79493193823936
-0.4807,-111.09727837840134
-0.4797000000000001,-109.35718347956733
-0.4787,-107.73026548472255
-0.4777000000000001,-106.11749460287639
-0.4767,-104.5471650600262
-0.4757000000000001,-102.97683551717601
-0.4747,-101.50553576531638
-0.4737000000000001,-99.97764756146215
-0.4727,-98.57708337459576
-0.4717000000000001,-97.17651918772938
-0.4707,-95.79010211386164
-0.4697000000000001,-94.4319792659912
-0.4687,-93.13044487011537
-0.4677000000000001,-91.81476336124088
-0.4667,-90.55567030436099
-0.4657000000000001,-89.23998879548651
