Potential V vs RHE, Current mA cm-2
0.013299999999999867,-0.2202705493889862
0.012299999999999978,-1.4854468648582886
0.011299999999999866,-2.4884771764625997
0.010299999999999976,-3.273641947887695
0.009299999999999864,-4.014950669016974
0.008299999999999974,-4.668547289554621
0.007299999999999862,-5.191990470504685
0.006299999999999972,-5.672992312458796
0.00529999999999986,-6.064867342521412
0.0042999999999999705,-6.458157083883892
0.0032999999999998586,-6.806176063650692
0.0022999999999999687,-7.155609754717355
0.0012999999999998568,-7.461187395488204
0.00029999999999996696,-7.679052935667419
-0.000700000000000145,-7.940774526142452
-0.0017000000000000348,-8.158640066321666
-0.0027000000000001467,-8.376505606500881
-0.0037000000000000366,-8.594371146680096
-0.0047000000000001485,-8.725939297567548
-0.005700000000000038,-8.85609273715513
-0.00670000000000015,-9.073958277334345
-0.00770000000000004,-9.205526428221793
-0.008700000000000152,-9.335679867809377
-0.009700000000000042,-9.423391968401008
-0.010700000000000154,-9.55496011928846
-0.011700000000000044,-9.685113558876042
-0.012700000000000156,-9.81668170976349
-0.013700000000000045,-9.902979099055257
-0.014700000000000157,-9.99069119964689
-0.015700000000000047,-10.078403300238522
-0.01670000000000016,-10.208556739826104
-0.01770000000000005,-10.296268840417738
-0.01870000000000016,-10.340124890713554
-0.01970000000000005,-10.382566229709504
-0.020700000000000163,-10.470278330301136
-0.021700000000000053,-10.601846481188586
-0.022700000000000164,-10.644287820184536
-0.023700000000000054,-10.731999920776168
-0.024700000000000166,-10.731999920776168
-0.025700000000000056,-10.819712021367803
-0.026700000000000168,-10.906009410659568
-0.027700000000000058,-10.993721511251199
-0.02870000000000017,-10.993721511251199
-0.02970000000000006,-11.037577561547016
-0.03070000000000017,-11.081433611842833
-0.03170000000000006,-11.1677310011346
-0.03270000000000017,-11.255443101726232
-0.03370000000000006,-11.299299152022046
-0.034700000000000175,-11.299299152022046
-0.035700000000000065,-11.343155202317865
-0.03670000000000018,-11.42945259160963
-0.03770000000000007,-11.473308641905447
-0.03870000000000018,-11.517164692201263
-0.03970000000000007,-11.517164692201263
-0.04070000000000018,-11.56102074249708
-0.04170000000000007,-11.647318131788847
-0.04270000000000018,-11.691174182084664
-0.04370000000000007,-11.73503023238048
-0.044700000000000184,-11.73503023238048
-0.045700000000000074,-11.778886282676295
-0.046700000000000186,-11.86659838326793
-0.047700000000000076,-11.86659838326793
-0.04870000000000019,-11.909039722263879
-0.04970000000000008,-11.952895772559694
-0.05070000000000019,-11.952895772559694
-0.05170000000000008,-12.040607873151327
-0.05270000000000019,-12.084463923447142
-0.05370000000000008,-12.084463923447142
-0.05470000000000019,-12.084463923447142
-0.05570000000000008,-12.12831997374296
-0.056700000000000195,-12.170761312738911
-0.057700000000000085,-12.214617363034726
-0.058700000000000196,-12.258473413330542
-0.059700000000000086,-12.258473413330542
-0.0607000000000002,-12.302329463626359
-0.06170000000000009,-12.390041564217992
-0.0627000000000002,-12.432482903213943
-0.06370000000000009,-12.432482903213943
-0.0647000000000002,-12.432482903213943
-0.06570000000000009,-12.432482903213943
-0.0667000000000002,-12.476338953509758
-0.0677000000000001,-12.520195003805576
-0.0687000000000002,-12.520195003805576
-0.0697000000000001,-12.520195003805576
-0.07070000000000021,-12.56405105410139
-0.0717000000000001,-12.607907104397206
-0.07270000000000021,-12.651763154693022
-0.0737000000000001,-12.694204493688973
-0.07470000000000021,-12.694204493688973
-0.0757000000000001,-12.73806054398479
-0.07670000000000021,-12.781916594280606
-0.0777000000000001,-12.869628694872238
-0.07870000000000021,-12.869628694872238
-0.0797000000000001,-12.825772644576423
-0.08070000000000022,-12.869628694872238
-0.0817000000000001,-12.913484745168056
-0.08270000000000022,-12.99978213445982
-0.08370000000000011,-12.99978213445982
-0.08470000000000022,-12.99978213445982
-0.08570000000000011,-13.043638184755638
-0.08670000000000022,-13.087494235051453
-0.08770000000000011,-13.13135028534727
-0.08870000000000022,-13.175206335643086
-0.08970000000000011,-13.13135028534727
-0.09070000000000022,-13.175206335643086
-0.09170000000000011,-13.217647674639037
-0.09270000000000023,-13.261503724934855
-0.09370000000000012,-13.261503724934855
-0.09470000000000023,-13.261503724934855
-0.09570000000000012,-13.30535977523067
-0.09670000000000023,-13.349215825526485
-0.09770000000000012,-13.349215825526485
-0.09870000000000023,-13.3930718758223
-0.09970000000000012,-13.349215825526485
-0.10070000000000023,-13.3930718758223
-0.10170000000000012,-13.47936926511407
-0.10270000000000024,-13.523225315409885
-0.10370000000000013,-13.47936926511407
-0.10470000000000024,-13.436927926118118
-0.10570000000000013,-13.47936926511407
-0.10670000000000024,-13.567081365705702
-0.10770000000000013,-13.610937416001518
-0.10870000000000024,-13.610937416001518
-0.10970000000000013,-13.610937416001518
-0.11070000000000024,-13.654793466297335
-0.11170000000000013,-13.698649516593148
-0.11270000000000002,-13.741090855589102
-0.11370000000000013,-13.784946905884919
-0.11470000000000002,-13.784946905884919
-0.11570000000000014,-13.784946905884919
-0.11670000000000003,-13.828802956180734
-0.11770000000000014,-13.872659006476551
-0.11870000000000003,-13.872659006476551
-0.11970000000000014,-13.872659006476551
-0.12070000000000003,-13.916515056772363
-0.12170000000000014,-13.960371107068182
-0.12270000000000003,-14.002812446064135
-0.12370000000000014,-14.046668496359947
-0.12470000000000003,-14.002812446064135
-0.12570000000000014,-14.046668496359947
-0.12670000000000003,-14.13438059695158
-0.12770000000000015,-14.175407224647667
-0.12870000000000004,-14.13438059695158
-0.12970000000000015,-14.13438059695158
-0.13070000000000004,-14.175407224647667
-0.13170000000000015,-14.217848563643619
-0.13270000000000004,-14.30273124163552
-0.13370000000000015,-14.26028990263957
-0.13470000000000004,-14.26028990263957
-0.13570000000000015,-14.30273124163552
-0.13670000000000004,-14.345172580631472
-0.13770000000000016,-14.401761032626075
-0.13870000000000005,-14.401761032626075
-0.13970000000000016,-14.444202371622024
-0.14070000000000005,-14.486643710617974
-0.14170000000000016,-14.529085049613924
-0.14270000000000005,-14.57152638860988
-0.14370000000000016,-14.57152638860988
-0.14470000000000005,-14.57152638860988
-0.14570000000000016,-14.61396772760583
-0.14670000000000005,-14.65640906660178
-0.14770000000000016,-14.65640906660178
-0.14870000000000005,-14.65640906660178
-0.14970000000000017,-14.69885040559773
-0.15070000000000006,-14.741291744593681
-0.15170000000000017,-14.783733083589633
-0.15270000000000006,-14.868615761581536
-0.15370000000000017,-14.868615761581536
-0.15470000000000006,-14.868615761581536
-0.15570000000000017,-14.925204213576137
-0.15670000000000006,-14.967645552572087
-0.15770000000000017,-15.01008689156804
-0.15870000000000006,-15.01008689156804
-0.15970000000000018,-15.01008689156804
-0.16070000000000007,-15.05252823056399
-0.16170000000000018,-15.137410908555893
-0.16270000000000007,-15.179852247551842
-0.16370000000000018,-15.179852247551842
-0.16470000000000007,-15.179852247551842
-0.16570000000000018,-15.222293586547794
-0.16670000000000007,-15.264734925543747
-0.16770000000000018,-15.307176264539699
-0.16870000000000007,-15.349617603535648
-0.16970000000000018,-15.307176264539699
-0.17070000000000007,-15.349617603535648
-0.17170000000000019,-15.448647394526201
-0.17270000000000008,-15.448647394526201
-0.1737000000000002,-15.491088733522153
-0.17470000000000008,-15.491088733522153
-0.1757000000000002,-15.533530072518102
-0.17670000000000008,-15.575971411514052
-0.1777000000000002,-15.660854089505953
-0.17870000000000008,-15.660854089505953
-0.1797000000000002,-15.70329542850191
-0.18070000000000008,-15.74573676749786
-0.1817000000000002,-15.830619445489761
-0.18270000000000008,-15.87306078448571
-0.1837000000000002,-15.830619445489761
-0.1847000000000001,-15.830619445489761
-0.1857000000000002,-15.91550212348166
-0.1867000000000001,-15.972090575476265
-0.1877000000000002,-16.014531914472215
-0.1887000000000001,-15.972090575476265
-0.1897000000000002,-16.014531914472215
-0.1907000000000001,-16.099414592464115
-0.1917000000000001,-16.141855931460068
-0.19269999999999998,-16.184297270456018
-0.1937000000000001,-16.22673860945197
-0.19469999999999998,-16.22673860945197
-0.1957000000000001,-16.269179948447924
-0.19669999999999999,-16.354062626439823
-0.1977000000000001,-16.396503965435777
-0.1987,-16.438945304431726
-0.1997000000000001,-16.438945304431726
-0.2007,-16.495533756426326
-0.2017000000000001,-16.53797509542228
-0.2027,-16.580416434418233
-0.2037000000000001,-16.622857773414182
-0.2047,-16.622857773414182
-0.2057000000000001,-16.70774045140608
-0.2067,-16.750181790402035
-0.2077000000000001,-16.835064468393938
-0.2087,-16.835064468393938
-0.2097000000000001,-16.877505807389888
-0.2107,-16.919947146385837
-0.2117000000000001,-17.018976937376394
-0.2127,-17.061418276372343
-0.2137000000000001,-17.061418276372343
-0.2147,-17.103859615368293
-0.2157000000000001,-17.188742293360193
-0.2167,-17.231183632356142
-0.21770000000000012,-17.2736249713521
-0.2187,-17.316066310348052
-0.21970000000000012,-17.358507649344002
-0.2207,-17.40094898833995
-0.22170000000000012,-17.48583166633185
-0.2227,-17.542420118326454
-0.22370000000000012,-17.584861457322408
-0.2247,-17.584861457322408
-0.22570000000000012,-17.669744135314307
-0.2267,-17.75462681330621
-0.22770000000000012,-17.839509491298113
-0.22870000000000001,-17.839509491298113
-0.22970000000000013,-17.881950830294063
-0.23070000000000002,-17.924392169290012
-0.23170000000000013,-18.009274847281915
-0.23270000000000002,-18.10830463827247
-0.23370000000000013,-18.15074597726842
-0.23470000000000002,-18.15074597726842
-0.23570000000000013,-18.23562865526032
-0.23670000000000002,-18.320511333252224
-0.2376999999999999,-18.40539401124413
-0.23870000000000002,-18.49027668923603
-0.2396999999999999,-18.49027668923603
-0.24070000000000003,-18.589306480226583
-0.24169999999999991,-18.716630497214435
-0.24270000000000003,-18.80151317520634
-0.24369999999999992,-18.843954514202288
-0.24470000000000003,-18.88639585319824
-0.24569999999999992,-18.97127853119014
-0.24670000000000003,-19.112749661176647
-0.24769999999999992,-19.155191000172596
-0.24870000000000003,-19.2400736781645
-0.24969999999999992,-19.28251501716045
-0.25070000000000003,-19.367397695152352
-0.2516999999999999,-19.49472171214021
-0.25270000000000004,-19.579604390132108
-0.2536999999999999,-19.678634181122664
-0.25470000000000004,-19.763516859114564
-0.2556999999999999,-19.848399537106463
-0.25670000000000004,-19.97572355409432
-0.25769999999999993,-20.06060623208622
-0.25870000000000004,-20.159636023076775
-0.25969999999999993,-20.244518701068674
-0.26070000000000004,-20.329401379060574
-0.26169999999999993,-20.499166735044383
-0.26270000000000004,-20.584049413036283
-0.26369999999999993,-20.72552054302279
-0.26470000000000005,-20.76796188201874
-0.26569999999999994,-20.89528589900659
-0.26670000000000005,-21.065051254990397
-0.26769999999999994,-21.2065223849769
-0.26870000000000005,-21.248963723972853
-0.26969999999999994,-21.333846401964752
-0.27070000000000005,-21.503611757948562
-0.27169999999999994,-21.67337711393236
-0.27270000000000005,-21.857289582914817
-0.27369999999999994,-21.94217226090672
-0.27470000000000006,-22.069496277894572
-0.27569999999999995,-22.196820294882425
-0.27670000000000006,-22.42317410286083
-0.27769999999999995,-22.550498119848687
-0.27870000000000006,-22.67782213683654
-0.27969999999999995,-22.819293266823045
-0.28070000000000006,-22.989058622806844
-0.28169999999999995,-23.15882397879065
-0.28270000000000006,-23.342736447773106
-0.28369999999999995,-23.51250180375691
-0.28470000000000006,-23.639825820744765
-0.28569999999999995,-23.767149837732617
-0.28670000000000007,-23.993503645711023
-0.28769999999999996,-24.20571034069078
-0.28870000000000007,-24.389622809673234
-0.28969999999999996,-24.559388165657033
-0.29070000000000007,-24.771594860636792
-0.29169999999999996,-24.997948668615198
-0.29270000000000007,-25.210155363594954
-0.29369999999999996,-25.39406783257741
-0.2947000000000001,-25.521391849565262
-0.29569999999999996,-25.73359854454502
-0.2967000000000001,-26.002393691519377
-0.29769999999999996,-26.21460038649913
-0.2987000000000001,-26.440954194477534
-0.29969999999999997,-26.65316088945729
-0.3007000000000001,-26.907808923433
-0.30169999999999997,-27.176604070407354
-0.3027000000000001,-27.43125210438306
-0.30369999999999997,-27.65760591236147
-0.3047000000000001,-27.869812607341224
-0.30569999999999997,-28.13860775431558
-0.3067000000000001,-28.435697127287238
-0.3077,-28.704492274261593
-0.3087000000000001,-28.91669896924135
-0.3097,-29.14305277721976
-0.3107000000000001,-29.39770081119546
-0.3117,-29.751378636161718
-0.3127000000000001,-30.04846800913338
-0.3137,-30.317263156107735
-0.3147000000000001,-30.571911190083444
-0.3157,-30.925589015049702
-0.3167000000000001,-31.27926684001596
-0.3177,-31.618797551983565
-0.3187000000000001,-31.930034037953877
-0.3197,-32.24127052392419
-0.3207000000000001,-32.58080123589179
-0.3217,-32.93447906085806
-0.3227000000000001,-33.330598224820264
-0.3237,-33.670128936787876
-0.3247000000000001,-33.98136542275818
-0.3257,-34.33504324772444
-0.3267000000000001,-34.75945663768395
-0.3277,-35.11313446265021
-0.3287000000000001,-35.50925362661242
-0.3297,-35.848784338580025
-0.3307000000000001,-36.28734484153819
-0.3317,-36.725905344496354
-0.3327000000000001,-37.07958316946261
-0.3337,-37.47570233342482
-0.3347000000000001,-37.85767438438838
-0.3357,-38.29623488734655
-0.3367000000000001,-38.777236729300654
-0.3377,-39.21579723225882
-0.3387000000000001,-39.61191639622103
-0.3397,-40.03632978618054
-0.3407000000000001,-40.51733162813464
-0.3417,-41.04077480908471
-0.3427000000000001,-41.56421799003478
-0.3437,-42.00277849299294
-0.3447000000000001,-42.526221673943
-0.3457,-43.007223515897124
-0.3467000000000001,-43.57310803584313
-0.3477,-44.138992555789144
-0.3487000000000001,-44.619994397743255
-0.3497,-45.10099623969737
-0.3507000000000001,-45.666880759643384
-0.3517,-46.2327652795894
-0.3527000000000001,-46.79864979953541
-0.3537,-47.32209298048547
-0.3547000000000001,-47.84553616143554
-0.3557,-48.51045047237211
-0.35670000000000013,-49.118776331314066
-0.3577,-49.72710219025603
-0.35870000000000013,-50.29298671020206
-0.3597,-50.90131256914402
-0.36070000000000013,-51.509638428085985
-0.3617,-52.2169940780185
-0.3626999999999999,-52.86776127595642
-0.3637,-53.476087134898386
-0.3646999999999999,-54.08441299384035
-0.3657,-54.791768643772876
-0.3666999999999999,-55.484977180706736
-0.3677,-56.1781857176406
-0.3686999999999999,-56.88554136757313
-0.36970000000000003,-57.53630856551105
-0.3706999999999999,-58.27195844144086
-0.37170000000000003,-59.10663810836124
-0.3726999999999999,-59.884729323287
-0.37370000000000003,-60.59208497321952
-0.3746999999999999,-61.327734849149344
-0.37570000000000003,-62.02094338608321
-0.3766999999999999,-62.855623053003576
-0.37770000000000004,-63.633714267929356
-0.3786999999999999,-64.38351125685783
-0.37970000000000004,-65.16160247178358
-0.3806999999999999,-65.99628213870396
-0.38170000000000004,-66.81681469262568
-0.38269999999999993,-67.693935698542
-0.38370000000000004,-68.48617402646643
-0.38469999999999993,-69.30670658038814
-0.38570000000000004,-70.18382758630447
-0.38669999999999993,-70.01406223032066
-0.38570000000000004,-68.34470289647993
-0.38469999999999993,-67.04316850060408
-0.38370000000000004,-65.95384079970802
-0.38269999999999993,-64.99183711579978
-0.38170000000000004,-64.15715744887942
-0.3806999999999999,-63.421507572949594
-0.37970000000000004,-62.58682790602922
-0.3786999999999999,-61.89361936909536
-0.37770000000000004,-61.242852171157445
-0.3766999999999999,-60.59208497321952
-0.37570000000000003,-59.884729323287
-0.3746999999999999,-59.23396212534908
-0.37370000000000003,-58.583194927411164
-0.3726999999999999,-57.93242772947325
-0.37170000000000003,-57.30995475753264
-0.3706999999999999,-56.74407023758662
-0.36970000000000003,-56.05086170065276
-0.3686999999999999,-55.357653163718886
-0.3677,-54.69273885278232
-0.3666999999999999,-54.1268543328363
-0.3657,-53.518528473894335
-0.3646999999999999,-52.86776127595642
-0.3637,-52.25943541701445
-0.3626999999999999,-51.65110955807249
-0.3617,-51.071077925127824
-0.36070000000000013,-50.46275206618586
-0.3597,-49.85442620724389
-0.35870000000000013,-49.24610034830193
-0.3577,-48.72265716735186
-0.35670000000000013,-48.156772647405845
-0.3557,-47.54844678846388
-0.3547000000000001,-46.88353247752732
-0.3537,-46.27520661858535
-0.3527000000000001,-45.70932209863933
-0.3517,-45.143437578693316
-0.3507000000000001,-44.577553058747306
-0.3497,-43.96922719980534
-0.3487000000000001,-43.36090134086337
-0.3477,-42.837458159913304
-0.3467000000000001,-42.31401497896325
-0.3457,-41.79057179801318
-0.3447000000000001,-41.182245939071215
-0.3437,-40.559772967130606
-0.3427000000000001,-39.95144710818864
-0.3417,-39.47044526623452
-0.3407000000000001,-38.94700208528445
-0.3397,-38.33867622634249
-0.3387000000000001,-37.73035036740053
-0.3377,-37.206907186450465
-0.3367000000000001,-36.6834640055004
-0.3357,-36.16002082455034
-0.3347000000000001,-35.594136304604326
-0.3337,-35.02825178465831
-0.3327000000000001,-34.50480860370825
-0.3317,-34.02380676175414
-0.3307000000000001,-33.50036358080407
-0.3297,-32.93447906085806
-0.3287000000000001,-32.41103587990799
-0.3277,-31.887592698957924
-0.3267000000000001,-31.40659085700382
-0.3257,-30.968030354045652
-0.3247000000000001,-30.444587173095588
-0.3237,-29.878702653149578
-0.3227000000000001,-29.39770081119546
-0.3217,-28.959140308237306
-0.3207000000000001,-28.478138466283188
-0.3197,-27.954695285333123
-0.3187000000000001,-27.487840556377662
-0.3177,-27.00683871442355
-0.3167000000000001,-26.525836872469437
-0.3157,-26.044835030515326
-0.3147000000000001,-25.563833188561212
-0.3137,-25.0828313466071
-0.3127000000000001,-24.601829504652986
-0.3117,-24.20571034069078
-0.3107000000000001,-23.767149837732617
-0.3097,-23.300295108777156
-0.3087000000000001,-22.819293266823045
-0.3077,-22.33829142486893
-0.3067000000000001,-21.98461359990267
-0.30569999999999997,-21.58849443594046
-0.3047000000000001,-21.107492593986347
-0.30369999999999997,-20.683079204026836
-0.3027000000000001,-20.244518701068674
-0.30169999999999997,-19.890840876102416
-0.3007000000000001,-19.49472171214021
-0.29969999999999997,-19.056161209182044
-0.2987000000000001,-18.631747819222536
-0.29769999999999996,-18.19318731626437
-0.2967000000000001,-17.839509491298113
-0.29569999999999996,-17.4433903273359
-0.2947000000000001,-17.061418276372343
-0.29369999999999996,-16.665299112410132
-0.29270000000000007,-16.311621287443874
-0.29169999999999996,-15.972090575476265
-0.29070000000000007,-15.618412750510005
-0.28969999999999996,-15.222293586547794
-0.28870000000000007,-14.826174422585586
-0.28769999999999996,-14.486643710617974
-0.28670000000000007,-14.175407224647667
-0.28569999999999995,-13.784946905884919
-0.28470000000000006,-13.436927926118118
-0.28369999999999995,-13.043638184755638
-0.28270000000000006,-12.694204493688973
-0.28169999999999995,-12.390041564217992
-0.28070000000000006,-12.084463923447142
-0.27969999999999995,-11.73503023238048
-0.27870000000000006,-11.385596541313816
-0.27769999999999995,-11.081433611842833
-0.27670000000000006,-10.775855971071984
-0.27569999999999995,-10.514134380596953
-0.27470000000000006,-10.164700689530287
-0.27369999999999994,-9.81668170976349
-0.27270000000000005,-9.511104068992642
-0.27169999999999994,-9.24938247851761
-0.27070000000000005,-8.943804837746763
-0.26969999999999994,-8.638227196975913
-0.26870000000000005,-8.332649556205066
