Aug. 3, 2024   19:31:24
Cyclic Voltammetry
File: c:/users/guazh/data/20240802_batch_500/2024-08-02-exp9\exp9-2024-08-03t19_25_02-arkoh\exp9_cv_sr_200mvs_efin_-1400mv.bin
Data Source:  Experiment
Instrument Model:  CHI760E
Header: CV ran at 200 mVs
Note: 

Init E (V) = -1
High E (V) = -1
Low E (V) = -1.4
Final E (V) = -1
Init P/N = N
Scan Rate (V/s) = 0.2
Segment = 3
Sample Interval (V) = 0.001
Quiet Time (sec) = 2
Sensitivity (A/V) = 0.01
Comp R (ohm) = 1.8

Results:

Channel 1:
Segment 1:

Segment 2:

Segment 3:

Potential/V, Current/A

-1.000, 4.445e-5
-1.001, 1.276e-4
-1.002, 1.421e-4
-1.003, 1.562e-4
-1.004, 1.816e-4
-1.005, 1.752e-4
-1.006, 1.680e-4
-1.007, 1.862e-4
-1.008, 1.888e-4
-1.009, 1.730e-4
-1.010, 1.845e-4
-1.011, 1.962e-4
-1.012, 1.807e-4
-1.013, 1.807e-4
-1.014, 1.981e-4
-1.015, 1.894e-4
-1.016, 1.790e-4
-1.017, 1.961e-4
-1.018, 1.970e-4
-1.019, 1.808e-4
-1.020, 1.914e-4
-1.021, 2.014e-4
-1.022, 1.863e-4
-1.023, 1.862e-4
-1.024, 2.039e-4
-1.025, 1.937e-4
-1.026, 1.836e-4
-1.027, 2.002e-4
-1.028, 2.009e-4
-1.029, 1.841e-4
-1.030, 1.947e-4
-1.031, 2.055e-4
-1.032, 1.889e-4
-1.033, 1.881e-4
-1.034, 2.058e-4
-1.035, 1.954e-4
-1.036, 1.857e-4
-1.037, 2.016e-4
-1.038, 2.025e-4
-1.039, 1.858e-4
-1.040, 1.966e-4
-1.041, 2.066e-4
-1.042, 1.903e-4
-1.043, 1.895e-4
-1.044, 2.080e-4
-1.045, 1.965e-4
-1.046, 1.865e-4
-1.047, 2.040e-4
-1.048, 2.035e-4
-1.049, 1.872e-4
-1.050, 1.978e-4
-1.051, 2.076e-4
-1.052, 1.918e-4
-1.053, 1.913e-4
-1.054, 2.085e-4
-1.055, 1.979e-4
-1.056, 1.880e-4
-1.057, 2.043e-4
-1.058, 2.050e-4
-1.059, 1.877e-4
-1.060, 1.988e-4
-1.061, 2.084e-4
-1.062, 1.921e-4
-1.063, 1.926e-4
-1.064, 2.092e-4
-1.065, 1.987e-4
-1.066, 1.891e-4
-1.067, 2.052e-4
-1.068, 2.060e-4
-1.069, 1.883e-4
-1.070, 1.993e-4
-1.071, 2.099e-4
-1.072, 1.928e-4
-1.073, 1.929e-4
-1.074, 2.104e-4
-1.075, 2.002e-4
-1.076, 1.912e-4
-1.077, 2.065e-4
-1.078, 2.064e-4
-1.079, 1.902e-4
-1.080, 2.004e-4
-1.081, 2.107e-4
-1.082, 1.941e-4
-1.083, 1.942e-4
-1.084, 2.116e-4
-1.085, 2.000e-4
-1.086, 1.906e-4
-1.087, 2.078e-4
-1.088, 2.076e-4
-1.089, 1.911e-4
-1.090, 2.017e-4
-1.091, 2.112e-4
-1.092, 1.952e-4
-1.093, 1.954e-4
-1.094, 2.121e-4
-1.095, 2.016e-4
-1.096, 1.916e-4
-1.097, 2.093e-4
-1.098, 2.086e-4
-1.099, 1.916e-4
-1.100, 2.038e-4
-1.101, 2.127e-4
-1.102, 1.964e-4
-1.103, 1.969e-4
-1.104, 2.135e-4
-1.105, 2.030e-4
-1.106, 1.933e-4
-1.107, 2.106e-4
-1.108, 2.107e-4
-1.109, 1.930e-4
-1.110, 2.050e-4
-1.111, 2.146e-4
-1.112, 1.982e-4
-1.113, 1.990e-4
-1.114, 2.160e-4
-1.115, 2.043e-4
-1.116, 1.957e-4
-1.117, 2.125e-4
-1.118, 2.116e-4
-1.119, 1.958e-4
-1.120, 2.073e-4
-1.121, 2.168e-4
-1.122, 2.004e-4
-1.123, 2.010e-4
-1.124, 2.184e-4
-1.125, 2.064e-4
-1.126, 1.980e-4
-1.127, 2.157e-4
-1.128, 2.149e-4
-1.129, 1.982e-4
-1.130, 2.107e-4
-1.131, 2.192e-4
-1.132, 2.034e-4
-1.133, 2.038e-4
-1.134, 2.211e-4
-1.135, 2.102e-4
-1.136, 2.009e-4
-1.137, 2.190e-4
-1.138, 2.182e-4
-1.139, 2.020e-4
-1.140, 2.144e-4
-1.141, 2.231e-4
-1.142, 2.071e-4
-1.143, 2.083e-4
-1.144, 2.254e-4
-1.145, 2.143e-4
-1.146, 2.062e-4
-1.147, 2.235e-4
-1.148, 2.233e-4
-1.149, 2.065e-4
-1.150, 2.195e-4
-1.151, 2.287e-4
-1.152, 2.122e-4
-1.153, 2.141e-4
-1.154, 2.316e-4
-1.155, 2.198e-4
-1.156, 2.119e-4
-1.157, 2.298e-4
-1.158, 2.292e-4
-1.159, 2.136e-4
-1.160, 2.256e-4
-1.161, 2.360e-4
-1.162, 2.194e-4
-1.163, 2.213e-4
-1.164, 2.390e-4
-1.165, 2.279e-4
-1.166, 2.203e-4
-1.167, 2.382e-4
-1.168, 2.374e-4
-1.169, 2.221e-4
-1.170, 2.356e-4
-1.171, 2.448e-4
-1.172, 2.292e-4
-1.173, 2.311e-4
-1.174, 2.492e-4
-1.175, 2.388e-4
-1.176, 2.305e-4
-1.177, 2.500e-4
-1.178, 2.496e-4
-1.179, 2.340e-4
-1.180, 2.473e-4
-1.181, 2.567e-4
-1.182, 2.416e-4
-1.183, 2.448e-4
-1.184, 2.624e-4
-1.185, 2.519e-4
-1.186, 2.450e-4
-1.187, 2.632e-4
-1.188, 2.639e-4
-1.189, 2.484e-4
-1.190, 2.632e-4
-1.191, 2.733e-4
-1.192, 2.573e-4
-1.193, 2.619e-4
-1.194, 2.803e-4
-1.195, 2.689e-4
-1.196, 2.630e-4
-1.197, 2.825e-4
-1.198, 2.827e-4
-1.199, 2.686e-4
-1.200, 2.831e-4
-1.201, 2.936e-4
-1.202, 2.791e-4
-1.203, 2.835e-4
-1.204, 3.025e-4
-1.205, 2.924e-4
-1.206, 2.866e-4
-1.207, 3.074e-4
-1.208, 3.073e-4
-1.209, 2.940e-4
-1.210, 3.094e-4
-1.211, 3.205e-4
-1.212, 3.064e-4
-1.213, 3.115e-4
-1.214, 3.312e-4
-1.215, 3.220e-4
-1.216, 3.168e-4
-1.217, 3.383e-4
-1.218, 3.389e-4
-1.219, 3.264e-4
-1.220, 3.433e-4
-1.221, 3.547e-4
-1.222, 3.414e-4
-1.223, 3.480e-4
-1.224, 3.680e-4
-1.225, 3.596e-4
-1.226, 3.551e-4
-1.227, 3.774e-4
-1.228, 3.802e-4
-1.229, 3.699e-4
-1.230, 3.862e-4
-1.231, 3.981e-4
-1.232, 3.853e-4
-1.233, 3.930e-4
-1.234, 4.144e-4
-1.235, 4.062e-4
-1.236, 4.048e-4
-1.237, 4.262e-4
-1.238, 4.288e-4
-1.239, 4.195e-4
-1.240, 4.373e-4
-1.241, 4.513e-4
-1.242, 4.400e-4
-1.243, 4.484e-4
-1.244, 4.718e-4
-1.245, 4.645e-4
-1.246, 4.638e-4
-1.247, 4.883e-4
-1.248, 4.915e-4
-1.249, 4.835e-4
-1.250, 5.032e-4
-1.251, 5.183e-4
-1.252, 5.088e-4
-1.253, 5.183e-4
-1.254, 5.432e-4
-1.255, 5.377e-4
-1.256, 5.375e-4
-1.257, 5.639e-4
-1.258, 5.696e-4
-1.259, 5.623e-4
-1.260, 5.842e-4
-1.261, 6.003e-4
-1.262, 5.919e-4
-1.263, 6.041e-4
-1.264, 6.293e-4
-1.265, 6.260e-4
-1.266, 6.284e-4
-1.267, 6.561e-4
-1.268, 6.633e-4
-1.269, 6.580e-4
-1.270, 6.824e-4
-1.271, 7.000e-4
-1.272, 6.938e-4
-1.273, 7.088e-4
-1.274, 7.360e-4
-1.275, 7.343e-4
-1.276, 7.391e-4
-1.277, 7.678e-4
-1.278, 7.781e-4
-1.279, 7.740e-4
-1.280, 8.016e-4
-1.281, 8.218e-4
-1.282, 8.167e-4
-1.283, 8.334e-4
-1.284, 8.631e-4
-1.285, 8.634e-4
-1.286, 8.709e-4
-1.287, 9.026e-4
-1.288, 9.141e-4
-1.289, 9.136e-4
-1.290, 9.420e-4
-1.291, 9.645e-4
-1.292, 9.636e-4
-1.293, 9.822e-4
-1.294, 1.015e-3
-1.295, 1.018e-3
-1.296, 1.027e-3
-1.297, 1.061e-3
-1.298, 1.076e-3
-1.299, 1.077e-3
-1.300, 1.109e-3
-1.301, 1.134e-3
-1.302, 1.134e-3
-1.303, 1.157e-3
-1.304, 1.191e-3
-1.305, 1.198e-3
-1.306, 1.210e-3
-1.307, 1.245e-3
-1.308, 1.263e-3
-1.309, 1.267e-3
-1.310, 1.300e-3
-1.311, 1.328e-3
-1.312, 1.332e-3
-1.313, 1.357e-3
-1.314, 1.396e-3
-1.315, 1.404e-3
-1.316, 1.419e-3
-1.317, 1.458e-3
-1.318, 1.479e-3
-1.319, 1.486e-3
-1.320, 1.524e-3
-1.321, 1.555e-3
-1.322, 1.562e-3
-1.323, 1.590e-3
-1.324, 1.631e-3
-1.325, 1.643e-3
-1.326, 1.662e-3
-1.327, 1.706e-3
-1.328, 1.727e-3
-1.329, 1.740e-3
-1.330, 1.780e-3
-1.331, 1.814e-3
-1.332, 1.825e-3
-1.333, 1.856e-3
-1.334, 1.900e-3
-1.335, 1.916e-3
-1.336, 1.939e-3
-1.337, 1.986e-3
-1.338, 2.011e-3
-1.339, 2.026e-3
-1.340, 2.070e-3
-1.341, 2.107e-3
-1.342, 2.121e-3
-1.343, 2.157e-3
-1.344, 2.204e-3
-1.345, 2.223e-3
-1.346, 2.250e-3
-1.347, 2.300e-3
-1.348, 2.330e-3
-1.349, 2.349e-3
-1.350, 2.397e-3
-1.351, 2.439e-3
-1.352, 2.457e-3
-1.353, 2.497e-3
-1.354, 2.547e-3
-1.355, 2.570e-3
-1.356, 2.601e-3
-1.357, 2.654e-3
-1.358, 2.688e-3
-1.359, 2.712e-3
-1.360, 2.763e-3
-1.361, 2.807e-3
-1.362, 2.830e-3
-1.363, 2.873e-3
-1.364, 2.929e-3
-1.365, 2.956e-3
-1.366, 2.990e-3
-1.367, 3.049e-3
-1.368, 3.086e-3
-1.369, 3.114e-3
-1.370, 3.170e-3
-1.371, 3.220e-3
-1.372, 3.247e-3
-1.373, 3.294e-3
-1.374, 3.354e-3
-1.375, 3.385e-3
-1.376, 3.423e-3
-1.377, 3.486e-3
-1.378, 3.528e-3
-1.379, 3.560e-3
-1.380, 3.620e-3
-1.381, 3.674e-3
-1.382, 3.705e-3
-1.383, 3.757e-3
-1.384, 3.820e-3
-1.385, 3.855e-3
-1.386, 3.899e-3
-1.387, 3.966e-3
-1.388, 4.015e-3
-1.389, 4.050e-3
-1.390, 4.114e-3
-1.391, 4.173e-3
-1.392, 4.207e-3
-1.393, 4.263e-3
-1.394, 4.329e-3
-1.395, 4.368e-3
-1.396, 4.415e-3
-1.397, 4.485e-3
-1.398, 4.536e-3
-1.399, 4.576e-3
-1.400, 4.528e-3
-1.399, 4.408e-3
-1.398, 4.309e-3
-1.397, 4.241e-3
-1.396, 4.188e-3
-1.395, 4.108e-3
-1.394, 4.036e-3
-1.393, 3.988e-3
-1.392, 3.919e-3
-1.391, 3.841e-3
-1.390, 3.792e-3
-1.389, 3.736e-3
-1.388, 3.659e-3
-1.387, 3.603e-3
-1.386, 3.559e-3
-1.385, 3.486e-3
-1.384, 3.421e-3
-1.383, 3.380e-3
-1.382, 3.319e-3
-1.381, 3.249e-3
-1.380, 3.206e-3
-1.379, 3.156e-3
-1.378, 3.085e-3
-1.377, 3.035e-3
-1.376, 2.999e-3
-1.375, 2.933e-3
-1.374, 2.876e-3
-1.373, 2.843e-3
-1.372, 2.788e-3
-1.371, 2.725e-3
-1.370, 2.690e-3
-1.369, 2.648e-3
-1.368, 2.584e-3
-1.367, 2.542e-3
-1.366, 2.510e-3
-1.365, 2.451e-3
-1.364, 2.400e-3
-1.363, 2.372e-3
-1.362, 2.323e-3
-1.361, 2.265e-3
-1.360, 2.239e-3
-1.359, 2.202e-3
-1.358, 2.143e-3
-1.357, 2.107e-3
-1.356, 2.082e-3
-1.355, 2.029e-3
-1.354, 1.985e-3
-1.353, 1.964e-3
-1.352, 1.921e-3
-1.351, 1.870e-3
-1.350, 1.847e-3
-1.349, 1.817e-3
-1.348, 1.765e-3
-1.347, 1.736e-3
-1.346, 1.715e-3
-1.345, 1.667e-3
-1.344, 1.627e-3
-1.343, 1.612e-3
-1.342, 1.573e-3
-1.341, 1.528e-3
-1.340, 1.510e-3
-1.339, 1.484e-3
-1.338, 1.436e-3
-1.337, 1.411e-3
-1.336, 1.397e-3
-1.335, 1.353e-3
-1.334, 1.320e-3
-1.333, 1.310e-3
-1.332, 1.275e-3
-1.331, 1.234e-3
-1.330, 1.222e-3
-1.329, 1.201e-3
-1.328, 1.159e-3
-1.327, 1.139e-3
-1.326, 1.128e-3
-1.325, 1.089e-3
-1.324, 1.060e-3
-1.323, 1.054e-3
-1.322, 1.024e-3
-1.321, 9.864e-4
-1.320, 9.798e-4
-1.319, 9.619e-4
-1.318, 9.221e-4
-1.317, 9.072e-4
-1.316, 8.997e-4
-1.315, 8.636e-4
-1.314, 8.389e-4
-1.313, 8.361e-4
-1.312, 8.100e-4
-1.311, 7.762e-4
-1.310, 7.722e-4
-1.309, 7.579e-4
-1.308, 7.208e-4
-1.307, 7.096e-4
-1.306, 7.061e-4
-1.305, 6.731e-4
-1.304, 6.519e-4
-1.303, 6.526e-4
-1.302, 6.290e-4
-1.301, 5.995e-4
-1.300, 5.981e-4
-1.299, 5.866e-4
-1.298, 5.538e-4
-1.297, 5.447e-4
-1.296, 5.442e-4
-1.295, 5.137e-4
-1.294, 4.953e-4
-1.293, 4.986e-4
-1.292, 4.773e-4
-1.291, 4.506e-4
-1.290, 4.525e-4
-1.289, 4.433e-4
-1.288, 4.131e-4
-1.287, 4.071e-4
-1.286, 4.076e-4
-1.285, 3.809e-4
-1.284, 3.638e-4
-1.283, 3.701e-4
-1.282, 3.516e-4
-1.281, 3.254e-4
-1.280, 3.288e-4
-1.279, 3.223e-4
-1.278, 2.938e-4
-1.277, 2.908e-4
-1.276, 2.929e-4
-1.275, 2.677e-4
-1.274, 2.538e-4
-1.273, 2.606e-4
-1.272, 2.447e-4
-1.271, 2.219e-4
-1.270, 2.274e-4
-1.269, 2.223e-4
-1.268, 1.951e-4
-1.267, 1.933e-4
-1.266, 1.980e-4
-1.265, 1.733e-4
-1.264, 1.619e-4
-1.263, 1.708e-4
-1.262, 1.550e-4
-1.261, 1.343e-4
-1.260, 1.410e-4
-1.259, 1.369e-4
-1.258, 1.119e-4
-1.257, 1.115e-4
-1.256, 1.177e-4
-1.255, 9.467e-5
-1.254, 8.356e-5
-1.253, 9.489e-5
-1.252, 7.983e-5
-1.251, 6.034e-5
-1.250, 6.965e-5
-1.249, 6.558e-5
-1.248, 4.200e-5
-1.247, 4.323e-5
-1.246, 4.957e-5
-1.245, 2.856e-5
-1.244, 1.899e-5
-1.243, 3.034e-5
-1.242, 1.716e-5
-1.241, -2.015e-6
-1.240, 8.631e-6
-1.239, 5.809e-6
-1.238, -1.700e-5
-1.237, -1.380e-5
-1.236, -7.283e-6
-1.235, -2.734e-5
-1.234, -3.517e-5
-1.233, -2.353e-5
-1.232, -3.493e-5
-1.231, -5.243e-5
-1.230, -4.214e-5
-1.229, -4.555e-5
-1.228, -6.719e-5
-1.227, -6.253e-5
-1.226, -5.375e-5
-1.225, -7.408e-5
-1.224, -8.028e-5
-1.223, -6.706e-5
-1.222, -7.926e-5
-1.221, -9.516e-5
-1.220, -8.373e-5
-1.219, -8.452e-5
-1.218, -1.057e-4
-1.217, -1.016e-4
-1.216, -9.208e-5
-1.215, -1.114e-4
-1.214, -1.178e-4
-1.213, -1.029e-4
-1.212, -1.150e-4
-1.211, -1.300e-4
-1.210, -1.176e-4
-1.209, -1.185e-4
-1.208, -1.376e-4
-1.207, -1.329e-4
-1.206, -1.235e-4
-1.205, -1.420e-4
-1.204, -1.470e-4
-1.203, -1.330e-4
-1.202, -1.441e-4
-1.201, -1.586e-4
-1.200, -1.445e-4
-1.199, -1.447e-4
-1.198, -1.652e-4
-1.197, -1.581e-4
-1.196, -1.492e-4
-1.195, -1.667e-4
-1.194, -1.708e-4
-1.193, -1.564e-4
-1.192, -1.666e-4
-1.191, -1.809e-4
-1.190, -1.670e-4
-1.189, -1.664e-4
-1.188, -1.857e-4
-1.187, -1.789e-4
-1.186, -1.689e-4
-1.185, -1.872e-4
-1.184, -1.899e-4
-1.183, -1.748e-4
-1.182, -1.856e-4
-1.181, -1.978e-4
-1.180, -1.846e-4
-1.179, -1.836e-4
-1.178, -2.034e-4
-1.177, -1.960e-4
-1.176, -1.851e-4
-1.175, -2.025e-4
-1.174, -2.064e-4
-1.173, -1.892e-4
-1.172, -2.001e-4
-1.171, -2.132e-4
-1.170, -1.981e-4
-1.169, -1.976e-4
-1.168, -2.155e-4
-1.167, -2.077e-4
-1.166, -1.976e-4
-1.165, -2.146e-4
-1.164, -2.178e-4
-1.163, -2.010e-4
-1.162, -2.113e-4
-1.161, -2.243e-4
-1.160, -2.086e-4
-1.159, -2.077e-4
-1.158, -2.270e-4
-1.157, -2.182e-4
-1.156, -2.076e-4
-1.155, -2.247e-4
-1.154, -2.271e-4
-1.153, -2.107e-4
-1.152, -2.205e-4
-1.151, -2.328e-4
-1.150, -2.182e-4
-1.149, -2.168e-4
-1.148, -2.350e-4
-1.147, -2.259e-4
-1.146, -2.153e-4
-1.145, -2.325e-4
-1.144, -2.341e-4
-1.143, -2.175e-4
-1.142, -2.285e-4
-1.141, -2.393e-4
-1.140, -2.246e-4
-1.139, -2.241e-4
-1.138, -2.414e-4
-1.137, -2.325e-4
-1.136, -2.220e-4
-1.135, -2.384e-4
-1.134, -2.405e-4
-1.133, -2.237e-4
-1.132, -2.342e-4
-1.131, -2.457e-4
-1.130, -2.296e-4
-1.129, -2.290e-4
-1.128, -2.468e-4
-1.127, -2.376e-4
-1.126, -2.275e-4
-1.125, -2.440e-4
-1.124, -2.458e-4
-1.123, -2.286e-4
-1.122, -2.388e-4
-1.121, -2.506e-4
-1.120, -2.348e-4
-1.119, -2.343e-4
-1.118, -2.521e-4
-1.117, -2.419e-4
-1.116, -2.318e-4
-1.115, -2.482e-4
-1.114, -2.498e-4
-1.113, -2.334e-4
-1.112, -2.429e-4
-1.111, -2.543e-4
-1.110, -2.392e-4
-1.109, -2.381e-4
-1.108, -2.562e-4
-1.107, -2.461e-4
-1.106, -2.361e-4
-1.105, -2.528e-4
-1.104, -2.537e-4
-1.103, -2.371e-4
-1.102, -2.480e-4
-1.101, -2.585e-4
-1.100, -2.433e-4
-1.099, -2.425e-4
-1.098, -2.594e-4
-1.097, -2.507e-4
-1.096, -2.398e-4
-1.095, -2.563e-4
-1.094, -2.580e-4
-1.093, -2.407e-4
-1.092, -2.519e-4
-1.091, -2.623e-4
-1.090, -2.461e-4
-1.089, -2.462e-4
-1.088, -2.636e-4
-1.087, -2.541e-4
-1.086, -2.440e-4
-1.085, -2.607e-4
-1.084, -2.613e-4
-1.083, -2.451e-4
-1.082, -2.559e-4
-1.081, -2.664e-4
-1.080, -2.503e-4
-1.079, -2.503e-4
-1.078, -2.679e-4
-1.077, -2.576e-4
-1.076, -2.484e-4
-1.075, -2.658e-4
-1.074, -2.664e-4
-1.073, -2.498e-4
-1.072, -2.601e-4
-1.071, -2.706e-4
-1.070, -2.555e-4
-1.069, -2.550e-4
-1.068, -2.727e-4
-1.067, -2.622e-4
-1.066, -2.528e-4
-1.065, -2.702e-4
-1.064, -2.704e-4
-1.063, -2.540e-4
-1.062, -2.656e-4
-1.061, -2.759e-4
-1.060, -2.604e-4
-1.059, -2.599e-4
-1.058, -2.775e-4
-1.057, -2.679e-4
-1.056, -2.581e-4
-1.055, -2.749e-4
-1.054, -2.764e-4
-1.053, -2.598e-4
-1.052, -2.712e-4
-1.051, -2.817e-4
-1.050, -2.659e-4
-1.049, -2.669e-4
-1.048, -2.843e-4
-1.047, -2.744e-4
-1.046, -2.651e-4
-1.045, -2.817e-4
-1.044, -2.831e-4
-1.043, -2.674e-4
-1.042, -2.783e-4
-1.041, -2.891e-4
-1.040, -2.731e-4
-1.039, -2.737e-4
-1.038, -2.913e-4
-1.037, -2.817e-4
-1.036, -2.731e-4
-1.035, -2.902e-4
-1.034, -2.911e-4
-1.033, -2.755e-4
-1.032, -2.868e-4
-1.031, -2.973e-4
-1.030, -2.825e-4
-1.029, -2.827e-4
-1.028, -3.011e-4
-1.027, -2.913e-4
-1.026, -2.819e-4
-1.025, -3.001e-4
-1.024, -3.012e-4
-1.023, -2.854e-4
-1.022, -2.975e-4
-1.021, -3.075e-4
-1.020, -2.928e-4
-1.019, -2.935e-4
-1.018, -3.112e-4
-1.017, -3.022e-4
-1.016, -2.929e-4
-1.015, -3.110e-4
-1.014, -3.122e-4
-1.013, -2.962e-4
-1.012, -3.086e-4
-1.011, -3.190e-4
-1.010, -3.032e-4
-1.009, -3.051e-4
-1.008, -3.225e-4
-1.007, -3.122e-4
-1.006, -3.038e-4
-1.005, -3.216e-4
-1.004, -3.231e-4
-1.003, -3.070e-4
-1.002, -3.188e-4
-1.001, -3.298e-4
