Potential V vs RHE, Current mA cm-2
0.05339999999999995,-0.09296067951413156
0.05239999999999995,-0.09467248018696825
0.051399999999999946,-0.09532324738490616
0.050399999999999945,-0.09581839633985893
0.049399999999999944,-0.09631354529481169
0.04839999999999994,-0.09670966445877392
0.04739999999999994,-0.09709163650973747
0.04639999999999994,-0.09745946144770237
0.04539999999999994,-0.09784143349866595
0.04439999999999994,-0.09820925843663084
0.04339999999999994,-0.09856293626159711
0.04239999999999994,-0.09894490831256067
0.04139999999999994,-0.09928443902452828
0.040399999999999936,-0.09960982262349724
0.039399999999999935,-0.09997764756146214
0.038399999999999934,-0.10030303116043109
0.03739999999999993,-0.10064256187239871
0.03639999999999993,-0.10096794547136766
0.03539999999999993,-0.10127918195733798
0.03439999999999993,-0.10160456555630692
0.03339999999999993,-0.10194409626827454
0.03239999999999993,-0.10222703852824755
0.03139999999999993,-0.10253827501421786
0.030399999999999927,-0.10283536438718952
0.029399999999999926,-0.10317489509915713
0.028399999999999925,-0.10348613158512744
0.027399999999999924,-0.10375492673210178
0.026399999999999924,-0.10405201610507345
0.025399999999999923,-0.10436325259104375
0.024399999999999922,-0.10466034196401541
0.02339999999999992,-0.10497157844998573
0.02239999999999992,-0.10525452070995873
0.02139999999999992,-0.10555161008293039
0.020399999999999918,-0.1058345523429034
0.019399999999999917,-0.10607505326388045
0.018399999999999916,-0.10634384841085481
0.017399999999999916,-0.10661264355782916
0.016399999999999915,-0.10686729159180487
0.015399999999999914,-0.10713608673877922
0.014399999999999913,-0.10744732322474954
0.013399999999999912,-0.1076595299197293
0.012399999999999911,-0.10790003084070635
0.01139999999999991,-0.1081405317616834
0.01039999999999991,-0.10839517979565912
0.009399999999999908,-0.10867812205563213
0.008399999999999908,-0.10891862297660918
0.007399999999999907,-0.10914497678458758
0.006399999999999906,-0.10930059502757274
0.005399999999999905,-0.1094845074965552
0.004399999999999904,-0.10969671419153494
0.003399999999999903,-0.10988062666051741
0.002399999999999902,-0.11009283335549715
0.0013999999999999013,-0.11029089293747825
0.00039999999999990044,-0.11051724674545668
-0.0006000000000001005,-0.11070115921443913
-0.0016000000000001013,-0.11088507168342157
-0.0026000000000001022,-0.11109727837840132
-0.003600000000000103,-0.11129533796038243
-0.004600000000000104,-0.11143680909036893
-0.005600000000000105,-0.11163486867235005
-0.006600000000000106,-0.1118187811413325
-0.007600000000000107,-0.11197439938431765
-0.008600000000000108,-0.11217245896629877
-0.009600000000000108,-0.11231393009628526
-0.01060000000000011,-0.11254028390426365
-0.01160000000000011,-0.11289396172922993
-0.012600000000000111,-0.11309202131121103
-0.013600000000000112,-0.11326178666719483
-0.014600000000000113,-0.11343155202317864
-0.015600000000000114,-0.11355887604016648
-0.016600000000000115,-0.11365790583115705
-0.017600000000000116,-0.1137569356221476
-0.018600000000000116,-0.11385596541313814
-0.019600000000000117,-0.11401158365612331
-0.020600000000000118,-0.11406817210811791
-0.02160000000000012,-0.11415305478610982
-0.02260000000000012,-0.11428037880309765
-0.02360000000000012,-0.11443599704608282
-0.024600000000000122,-0.11450673261107608
-0.025600000000000123,-0.11460576240206662
-0.026600000000000124,-0.11469064508005854
-0.027600000000000124,-0.11483211621004503
-0.028600000000000125,-0.11488870466203964
-0.029600000000000126,-0.11497358734003153
-0.030600000000000127,-0.1150726171310221
-0.03160000000000013,-0.11517164692201265
-0.03260000000000013,-0.11525652960000454
-0.03360000000000013,-0.11531311805199915
-0.03460000000000002,-0.11538385361699238
-0.03560000000000002,-0.11549703052098159
-0.03660000000000002,-0.1155536189729762
-0.03760000000000002,-0.1156102074249708
-0.03860000000000002,-0.11572338432896
-0.039600000000000024,-0.11579411989395326
-0.040600000000000025,-0.1158648554589465
-0.041600000000000026,-0.1159214439109411
-0.04260000000000003,-0.11602047370193166
-0.04360000000000003,-0.11607706215392626
-0.04460000000000003,-0.11613365060592087
-0.04560000000000003,-0.11617609194491682
-0.04660000000000003,-0.11621853328391277
-0.04760000000000003,-0.11627512173590737
-0.04860000000000003,-0.11633171018790198
-0.04960000000000003,-0.11637415152689792
-0.050600000000000034,-0.11641659286589387
-0.051600000000000035,-0.11647318131788847
-0.052600000000000036,-0.11647318131788847
-0.053600000000000037,-0.11647318131788847
-0.05460000000000004,-0.11652976976988305
-0.05560000000000004,-0.11660050533487633
-0.05660000000000004,-0.11664294667387226
-0.05760000000000004,-0.11665709378687093
-0.05860000000000004,-0.11669953512586688
-0.05960000000000004,-0.11672782935186417
-0.06060000000000004,-0.11675612357786147
-0.061600000000000044,-0.11679856491685743
-0.06260000000000004,-0.11686930048185068
-0.06360000000000005,-0.11686930048185068
-0.06460000000000005,-0.11688344759484932
-0.06560000000000005,-0.11689759470784798
-0.06660000000000005,-0.11691174182084664
-0.06760000000000005,-0.11691174182084664
-0.06860000000000005,-0.11692588893384527
-0.06960000000000005,-0.11695418315984259
-0.07060000000000005,-0.11706736006383177
-0.07160000000000005,-0.11699662449883853
-0.07260000000000005,-0.11702491872483582
-0.07360000000000005,-0.11701077161183718
-0.07460000000000006,-0.1170390658378345
-0.07560000000000006,-0.11710980140282773
-0.07660000000000006,-0.11708150717683044
-0.07760000000000006,-0.1170956542898291
-0.07860000000000006,-0.1170956542898291
-0.07960000000000006,-0.1170956542898291
-0.08060000000000006,-0.11710980140282773
-0.08160000000000006,-0.11713809562882503
-0.08260000000000006,-0.11710980140282773
-0.08360000000000006,-0.11713809562882503
-0.08460000000000006,-0.11712394851582639
-0.08560000000000006,-0.1171522427418237
-0.08660000000000007,-0.1171522427418237
-0.08760000000000007,-0.11713809562882503
-0.08860000000000007,-0.11716638985482233
-0.08960000000000007,-0.11716638985482233
-0.09060000000000007,-0.11716638985482233
-0.09160000000000007,-0.1171522427418237
-0.09260000000000007,-0.11718053696782099
-0.09360000000000007,-0.1171522427418237
-0.09460000000000007,-0.11718053696782099
-0.09560000000000007,-0.11719468408081965
-0.09660000000000007,-0.11719468408081965
-0.09760000000000008,-0.11719468408081965
-0.09860000000000008,-0.11720883119381828
-0.09960000000000008,-0.1172371254198156
-0.10060000000000008,-0.1172371254198156
-0.10160000000000008,-0.11726541964581289
-0.10260000000000008,-0.11727956675881154
-0.10360000000000008,-0.11727956675881154
-0.10460000000000008,-0.1172937138718102
-0.10560000000000008,-0.11727956675881154
-0.10660000000000008,-0.11726541964581289
-0.10760000000000008,-0.11727956675881154
-0.10860000000000009,-0.1172937138718102
-0.10960000000000009,-0.1173220080978075
-0.11060000000000009,-0.11730786098480883
-0.11160000000000009,-0.11730786098480883
-0.11260000000000009,-0.11733615521080615
-0.11360000000000009,-0.11735030232380478
-0.11460000000000009,-0.11739274366280074
-0.11560000000000009,-0.1173785965498021
-0.11660000000000009,-0.1173220080978075
-0.1176000000000001,-0.11736444943680345
-0.1186000000000001,-0.11730786098480883
-0.1196000000000001,-0.11727956675881154
-0.1206000000000001,-0.1172937138718102
-0.1216000000000001,-0.11726541964581289
-0.1226000000000001,-0.1172937138718102
-0.1236000000000001,-0.11730786098480883
-0.1246000000000001,-0.1173220080978075
-0.1256000000000001,-0.11733615521080615
-0.1266000000000001,-0.1173220080978075
-0.1276000000000001,-0.11730786098480883
-0.1286000000000001,-0.11733615521080615
-0.1296000000000001,-0.11733615521080615
-0.1306000000000001,-0.11735030232380478
-0.1316000000000001,-0.11743518500179671
-0.1326000000000001,-0.11742103788879804
-0.1336000000000001,-0.117463479227794
-0.1346000000000001,-0.11759080324478184
-0.1356000000000001,-0.11764739169677645
-0.1366000000000001,-0.11767568592277375
-0.1376000000000001,-0.11776056860076566
-0.1386000000000001,-0.1178030099397616
-0.1396000000000001,-0.11783130416575889
-0.1406000000000001,-0.11781715705276027
-0.14160000000000011,-0.11783130416575889
-0.14260000000000012,-0.11784545127875755
-0.14360000000000012,-0.11784545127875755
-0.14460000000000012,-0.11790203973075215
-0.14560000000000012,-0.11791618684375081
-0.14660000000000012,-0.11793033395674946
-0.14760000000000012,-0.11795862818274677
-0.14860000000000012,-0.1179444810697481
-0.14960000000000012,-0.11798692240874405
-0.15060000000000012,-0.11801521663474136
-0.15160000000000012,-0.11802936374774001
-0.15260000000000012,-0.11810009931273327
-0.15360000000000013,-0.1181142464257319
-0.15460000000000013,-0.11810009931273327
-0.15560000000000013,-0.11815668776472787
-0.15660000000000013,-0.11815668776472787
-0.15760000000000013,-0.11818498199072516
-0.15860000000000013,-0.11826986466871706
-0.15960000000000002,-0.11831230600771302
-0.16060000000000002,-0.11839718868570492
-0.16160000000000002,-0.11842548291170223
-0.16260000000000002,-0.11849621847669549
-0.16360000000000002,-0.11851036558969412
-0.16460000000000002,-0.11859524826768601
-0.16560000000000002,-0.11868013094567793
-0.16660000000000003,-0.11870842517167522
-0.16760000000000003,-0.11870842517167522
-0.16860000000000003,-0.11882160207566443
-0.16960000000000003,-0.11883574918866308
-0.17060000000000003,-0.11883574918866308
-0.17160000000000003,-0.11886404341466038
-0.17260000000000003,-0.11890648475365632
-0.17360000000000003,-0.11899136743164823
-0.17460000000000003,-0.11900551454464689
-0.17560000000000003,-0.11909039722263878
-0.17660000000000003,-0.11914698567463339
-0.17760000000000004,-0.11921772123962665
-0.17860000000000004,-0.11930260391761856
-0.17960000000000004,-0.11933089814361585
-0.18060000000000004,-0.1194016337086091
-0.18160000000000004,-0.11945822216060371
-0.18260000000000004,-0.1195713990645929
-0.18360000000000004,-0.11959969329059021
-0.18460000000000004,-0.11969872308158076
-0.18560000000000004,-0.11975531153357535
-0.18660000000000004,-0.1198260470985686
-0.18760000000000004,-0.11991092977656051
-0.18860000000000005,-0.11998166534155377
-0.18960000000000005,-0.12005240090654701
-0.19060000000000005,-0.1201372835845389
-0.19160000000000005,-0.1201938720365335
-0.19260000000000005,-0.12029290182752407
-0.19360000000000005,-0.12036363739251733
-0.19460000000000005,-0.12047681429650652
-0.19560000000000005,-0.12058999120049572
-0.19660000000000005,-0.12066072676548899
-0.19760000000000005,-0.12078805078247684
-0.19860000000000005,-0.12087293346046873
-0.19960000000000006,-0.12097196325145929
-0.20060000000000006,-0.12109928726844714
-0.20160000000000006,-0.1211700228334404
-0.20260000000000006,-0.12128319973742961
-0.20360000000000006,-0.12138222952842014
-0.20460000000000006,-0.12148125931941069
-0.20560000000000006,-0.12159443622339991
-0.20660000000000006,-0.12169346601439045
-0.20760000000000006,-0.12180664291837967
-0.20860000000000006,-0.12190567270937022
-0.20960000000000006,-0.12203299672635806
-0.21060000000000006,-0.12217446785634459
-0.21160000000000007,-0.12233008609932973
-0.21260000000000007,-0.12240082166432298
-0.21360000000000007,-0.12252814568131082
-0.21460000000000007,-0.1226271754723014
-0.21560000000000007,-0.12265546969829867
-0.21660000000000007,-0.12279694082828517
-0.21760000000000007,-0.12295255907127035
-0.21860000000000007,-0.1230515888622609
-0.21960000000000007,-0.12320720710524605
-0.22060000000000007,-0.12336282534823118
-0.22160000000000007,-0.1234760022522204
-0.22260000000000008,-0.12358917915620962
-0.22360000000000008,-0.12368820894720017
-0.22460000000000008,-0.12382968007718667
-0.22560000000000008,-0.12395700409417452
-0.22660000000000008,-0.12402773965916776
-0.22760000000000008,-0.12416921078915429
-0.22860000000000008,-0.1243106819191408
-0.22960000000000008,-0.12443800593612864
-0.23060000000000008,-0.12460777129211242
-0.23160000000000008,-0.12473509530910029
-0.23260000000000008,-0.12490486066508408
-0.23360000000000009,-0.12503218468207195
-0.2346000000000001,-0.12518780292505707
-0.2356000000000001,-0.12528683271604765
-0.2366000000000001,-0.12540000962003686
-0.2376000000000001,-0.125555627863022
-0.2386000000000001,-0.1256688047670112
-0.2396000000000001,-0.1258102758969977
-0.2406000000000001,-0.12593759991398557
-0.2416000000000001,-0.12605077681797475
-0.2426000000000001,-0.12624883639995585
-0.2436000000000001,-0.12633371907794774
-0.2446000000000001,-0.12644689598193698
-0.2456000000000001,-0.12657421999892482
-0.2466000000000001,-0.12668739690291403
-0.2476000000000001,-0.12682886803290053
-0.2486000000000001,-0.12694204493688974
-0.2496000000000001,-0.12708351606687623
-0.2506000000000001,-0.12722498719686276
-0.2516000000000001,-0.12736645832684926
-0.2526000000000001,-0.12756451790883036
-0.2536000000000001,-0.12772013615181552
-0.2546000000000001,-0.12779087171680875
-0.2556000000000001,-0.1278899015077993
-0.2566000000000001,-0.1280313726377858
-0.2576000000000001,-0.12813040242877638
-0.2586000000000001,-0.12824357933276556
-0.2596000000000001,-0.12837090334975343
-0.2606000000000001,-0.12845578602774532
-0.2616000000000001,-0.12861140427073048
-0.2626000000000001,-0.1287245811747197
-0.2636000000000001,-0.12879531673971292
-0.2646000000000001,-0.12890849364370216
-0.2656000000000001,-0.12904996477368866
-0.2666000000000001,-0.12914899456467918
-0.2676000000000001,-0.1292904656946657
-0.2686000000000001,-0.12938949548565626
-0.2696000000000001,-0.12954511372864141
-0.2706000000000001,-0.1296865848586279
-0.2716000000000001,-0.1297148790846252
-0.2726000000000001,-0.12987049732761038
-0.2736000000000001,-0.12998367423159957
-0.2746000000000001,-0.13005440979659283
-0.2756000000000001,-0.1301392924745847
-0.2766000000000001,-0.13021002803957799
-0.2776000000000001,-0.13028076360457122
-0.2786000000000001,-0.13039394050856043
-0.2796000000000001,-0.13050711741254964
-0.2806000000000001,-0.1305778529775429
-0.28160000000000013,-0.13064858854253616
-0.28260000000000013,-0.13070517699453074
-0.28360000000000013,-0.1307193241075294
-0.2846,-0.13083250101151858
-0.2856,-0.1309739721415051
-0.2866,-0.13104470770649834
-0.2876,-0.13112959038449024
-0.2886,-0.1311720317234862
-0.2896,-0.13122862017548081
-0.2906,-0.1313135028534727
-0.2916,-0.13134179707947
-0.2926,-0.13141253264446326
-0.2936,-0.1314549739834592
-0.29460000000000003,-0.13156815088744844
-0.29560000000000003,-0.13161059222644436
-0.29660000000000003,-0.13169547490443625
-0.29760000000000003,-0.13169547490443625
-0.29860000000000003,-0.13175206335643086
-0.29960000000000003,-0.1318086518084255
-0.30060000000000003,-0.13189353448641736
-0.30160000000000003,-0.13187938737341873
-0.30260000000000004,-0.131907681599416
-0.30360000000000004,-0.13192182871241467
-0.30460000000000004,-0.13193597582541333
-0.30560000000000004,-0.13196427005141062
-0.30660000000000004,-0.13203500561640388
-0.30760000000000004,-0.1320491527294025
-0.30860000000000004,-0.1320491527294025
-0.30960000000000004,-0.13202085850340523
-0.31060000000000004,-0.1320915940683985
-0.31160000000000004,-0.13210574118139712
-0.31260000000000004,-0.13214818252039306
-0.31360000000000005,-0.13216232963339172
-0.31460000000000005,-0.13217647674639038
-0.31560000000000005,-0.13211988829439578
-0.31660000000000005,-0.13211988829439578
-0.31760000000000005,-0.13217647674639038
-0.31860000000000005,-0.13216232963339172
-0.31960000000000005,-0.13217647674639038
-0.32060000000000005,-0.13220477097238767
-0.32160000000000005,-0.13219062385938904
-0.32260000000000005,-0.13217647674639038
-0.32360000000000005,-0.13217647674639038
-0.32460000000000006,-0.13213403540739443
-0.32560000000000006,-0.13213403540739443
-0.32660000000000006,-0.13213403540739443
-0.32760000000000006,-0.13210574118139712
-0.32860000000000006,-0.13206329984240117
-0.32960000000000006,-0.13207744695539983
-0.33060000000000006,-0.1320491527294025
-0.33160000000000006,-0.13207744695539983
-0.33260000000000006,-0.13210574118139712
-0.33360000000000006,-0.13206329984240117
-0.33460000000000006,-0.13202085850340523
-0.33560000000000006,-0.13202085850340523
-0.33660000000000007,-0.131950122938412
-0.33760000000000007,-0.13193597582541333
-0.33860000000000007,-0.13192182871241467
-0.33960000000000007,-0.13187938737341873
-0.34060000000000007,-0.1318227989214241
-0.34160000000000007,-0.13179450469542683
-0.34260000000000007,-0.13178035758242818
-0.34360000000000007,-0.13178035758242818
-0.3446000000000001,-0.13172376913043357
-0.3456000000000001,-0.13165303356544034
-0.3466000000000001,-0.13161059222644436
-0.34759999999999996,-0.13155400377444976
-0.3486000000000001,-0.13152570954845244
-0.34959999999999997,-0.1315115624354538
-0.3506000000000001,-0.13144082687046055
-0.35159999999999997,-0.13141253264446326
-0.3526000000000001,-0.13138423841846594
-0.35359999999999997,-0.1313135028534727
-0.3546000000000001,-0.1313135028534727
-0.35559999999999997,-0.13127106151447676
-0.3566000000000001,-0.13121447306248216
-0.3576,-0.1311720317234862
-0.3586000000000001,-0.1311437374974889
-0.3596,-0.13107300193249566
-0.3606000000000001,-0.13105885481949697
-0.3616,-0.1310305605934997
-0.3626000000000001,-0.13098811925450374
-0.3636,-0.13101641348050105
-0.3646000000000001,-0.13101641348050105
-0.3656,-0.13105885481949697
-0.3666000000000001,-0.1310305605934997
-0.3676,-0.13095982502850645
-0.3686000000000001,-0.13091738368951047
-0.3696,-0.13090323657651182
-0.3706000000000001,-0.13093153080250916
-0.3716,-0.13095982502850645
-0.3726000000000001,-0.1309739721415051
-0.3736,-0.1309739721415051
-0.3746000000000001,-0.13098811925450374
-0.3756,-0.1309739721415051
-0.3766000000000001,-0.13094567791550782
-0.3776,-0.13094567791550782
-0.3786000000000001,-0.13093153080250916
-0.3796,-0.1310305605934997
-0.3806000000000001,-0.13105885481949697
-0.3816,-0.13105885481949697
-0.3826000000000001,-0.1311154432714916
-0.3836,-0.13107300193249566
-0.3846000000000001,-0.13110129615849295
-0.3856,-0.13112959038449024
-0.3866000000000001,-0.1312569144014781
-0.3876,-0.13138423841846594
-0.3886000000000001,-0.13141253264446326
-0.3896,-0.13146912109645786
-0.3906000000000001,-0.13149741532245518
-0.3916,-0.1315398566614511
-0.3926000000000001,-0.131624739339443
-0.3936,-0.1316813277914376
-0.3946000000000001,-0.1318227989214241
-0.3956,-0.13196427005141062
-0.3966000000000001,-0.13207744695539983
-0.3976,-0.13226135942438227
-0.3986000000000001,-0.13236038921537283
-0.3996,-0.13244527189336472
-0.4006000000000001,-0.13247356611936204
-0.4016,-0.13260089013634987
-0.4026000000000001,-0.13275650837933503
-0.4036,-0.13281309683132964
-0.4046000000000001,-0.1329404208483175
-0.4056,-0.1330535977523067
-0.40660000000000013,-0.13306774486530534
-0.4076,-0.1331667746562959
-0.40860000000000013,-0.13326580444728645
-0.4096,-0.13340727557727297
-0.41060000000000013,-0.13354874670725947
-0.4116,-0.1337751005152379
-0.41260000000000013,-0.13391657164522439
-0.4136,-0.13410048411420683
-0.41460000000000014,-0.13419951390519738
-0.4156,-0.13429854369618793
-0.41660000000000014,-0.13446830905217175
-0.4176,-0.13465222152115416
-0.41860000000000014,-0.13483613399013666
-0.41960000000000003,-0.13506248779811506
-0.42060000000000014,-0.13520395892810155
-0.42160000000000003,-0.13541616562308129
-0.42260000000000014,-0.13568496077005568
-0.42360000000000003,-0.13579813767404486
-0.42460000000000014,-0.13602449148202328
-0.42560000000000003,-0.13622255106400438
-0.42660000000000015,-0.13637816930698954
-0.42760000000000004,-0.13663281734096522
-0.42860000000000015,-0.136845024035945
-0.42960000000000004,-0.13702893650492745
-0.43060000000000015,-0.1372411431999072
-0.43160000000000004,-0.13742505566888966
-0.43260000000000015,-0.13765140947686808
-0.43360000000000004,-0.13786361617184784
-0.43460000000000015,-0.13811826420582352
-0.43560000000000004,-0.1384012064657965
-0.43660000000000015,-0.13862756027377496
-0.43760000000000004,-0.13885391408175335
