Apr. 5, 2025   08:20:54
Cyclic Voltammetry
File: c:/users/guazh/data/banditlqround7_x0exp994_r5/2025-03-28-exp988\exp988-2025-04-05t08_07_49-h2koh\exp988_cv_sr_50mvs_efin_-1600mv.bin
Data Source:  Experiment
Instrument Model:  CHI760E
Header: CV ran at 50 mVs
Note: 

Init E (V) = -1
High E (V) = -1
Low E (V) = -1.6
Final E (V) = -1
Init P/N = N
Scan Rate (V/s) = 0.05
Segment = 3
Sample Interval (V) = 0.001
Quiet Time (sec) = 2
Sensitivity (A/V) = 0.01
Comp R (ohm) = 2.0

Results:

Channel 1:
Segment 1:

Segment 2:

Segment 3:

Potential/V, Current/A

-1.000, -2.289e-7
-1.001, 7.893e-9
-1.002, 1.066e-7
-1.003, 1.657e-7
-1.004, 3.631e-7
-1.005, 4.025e-7
-1.006, 3.433e-7
-1.007, 4.815e-7
-1.008, 5.111e-7
-1.009, 6.294e-7
-1.010, 5.998e-7
-1.011, 6.886e-7
-1.012, 7.577e-7
-1.013, 8.761e-7
-1.014, 9.254e-7
-1.015, 9.057e-7
-1.016, 9.156e-7
-1.017, 9.254e-7
-1.018, 1.083e-6
-1.019, 1.123e-6
-1.020, 1.024e-6
-1.021, 1.073e-6
-1.022, 1.093e-6
-1.023, 1.152e-6
-1.024, 1.330e-6
-1.025, 1.271e-6
-1.026, 1.320e-6
-1.027, 1.300e-6
-1.028, 1.409e-6
-1.029, 1.300e-6
-1.030, 1.310e-6
-1.031, 1.419e-6
-1.032, 1.369e-6
-1.033, 1.419e-6
-1.034, 1.448e-6
-1.035, 1.360e-6
-1.036, 1.468e-6
-1.037, 1.527e-6
-1.038, 1.478e-6
-1.039, 1.547e-6
-1.040, 1.586e-6
-1.041, 1.577e-6
-1.042, 1.488e-6
-1.043, 1.606e-6
-1.044, 1.665e-6
-1.045, 1.616e-6
-1.046, 1.646e-6
-1.047, 1.656e-6
-1.048, 1.586e-6
-1.049, 1.695e-6
-1.050, 1.695e-6
-1.051, 1.744e-6
-1.052, 1.715e-6
-1.053, 1.813e-6
-1.054, 1.813e-6
-1.055, 1.764e-6
-1.056, 1.853e-6
-1.057, 1.863e-6
-1.058, 1.803e-6
-1.059, 1.873e-6
-1.060, 1.882e-6
-1.061, 1.863e-6
-1.062, 1.912e-6
-1.063, 1.922e-6
-1.064, 1.922e-6
-1.065, 2.050e-6
-1.066, 2.040e-6
-1.067, 2.001e-6
-1.068, 2.030e-6
-1.069, 2.011e-6
-1.070, 1.991e-6
-1.071, 2.040e-6
-1.072, 1.991e-6
-1.073, 2.060e-6
-1.074, 1.961e-6
-1.075, 2.050e-6
-1.076, 2.070e-6
-1.077, 2.050e-6
-1.078, 2.129e-6
-1.079, 2.030e-6
-1.080, 2.149e-6
-1.081, 2.247e-6
-1.082, 2.149e-6
-1.083, 2.159e-6
-1.084, 2.198e-6
-1.085, 2.238e-6
-1.086, 2.188e-6
-1.087, 2.040e-6
-1.088, 2.336e-6
-1.089, 2.218e-6
-1.090, 2.218e-6
-1.091, 2.267e-6
-1.092, 2.307e-6
-1.093, 2.297e-6
-1.094, 2.277e-6
-1.095, 2.356e-6
-1.096, 2.257e-6
-1.097, 2.336e-6
-1.098, 2.336e-6
-1.099, 2.326e-6
-1.100, 2.326e-6
-1.101, 2.455e-6
-1.102, 2.376e-6
-1.103, 2.386e-6
-1.104, 2.494e-6
-1.105, 2.376e-6
-1.106, 2.386e-6
-1.107, 2.376e-6
-1.108, 2.514e-6
-1.109, 2.524e-6
-1.110, 2.455e-6
-1.111, 2.524e-6
-1.112, 2.484e-6
-1.113, 2.613e-6
-1.114, 2.622e-6
-1.115, 2.534e-6
-1.116, 2.524e-6
-1.117, 2.593e-6
-1.118, 2.622e-6
-1.119, 2.622e-6
-1.120, 2.652e-6
-1.121, 2.662e-6
-1.122, 2.632e-6
-1.123, 2.711e-6
-1.124, 2.622e-6
-1.125, 2.603e-6
-1.126, 2.682e-6
-1.127, 2.731e-6
-1.128, 2.731e-6
-1.129, 2.751e-6
-1.130, 2.721e-6
-1.131, 2.731e-6
-1.132, 2.721e-6
-1.133, 2.830e-6
-1.134, 2.780e-6
-1.135, 2.800e-6
-1.136, 2.820e-6
-1.137, 2.800e-6
-1.138, 2.839e-6
-1.139, 2.899e-6
-1.140, 2.751e-6
-1.141, 2.849e-6
-1.142, 2.879e-6
-1.143, 2.908e-6
-1.144, 2.908e-6
-1.145, 2.790e-6
-1.146, 2.908e-6
-1.147, 2.859e-6
-1.148, 2.987e-6
-1.149, 2.908e-6
-1.150, 2.869e-6
-1.151, 2.958e-6
-1.152, 2.968e-6
-1.153, 3.027e-6
-1.154, 2.938e-6
-1.155, 2.928e-6
-1.156, 3.017e-6
-1.157, 2.928e-6
-1.158, 3.037e-6
-1.159, 3.007e-6
-1.160, 2.968e-6
-1.161, 2.997e-6
-1.162, 3.056e-6
-1.163, 3.047e-6
-1.164, 3.037e-6
-1.165, 3.135e-6
-1.166, 3.106e-6
-1.167, 3.047e-6
-1.168, 3.106e-6
-1.169, 3.027e-6
-1.170, 3.086e-6
-1.171, 3.096e-6
-1.172, 3.027e-6
-1.173, 3.165e-6
-1.174, 3.086e-6
-1.175, 3.155e-6
-1.176, 3.096e-6
-1.177, 3.076e-6
-1.178, 3.244e-6
-1.179, 3.185e-6
-1.180, 3.244e-6
-1.181, 3.195e-6
-1.182, 3.224e-6
-1.183, 3.293e-6
-1.184, 3.195e-6
-1.185, 3.195e-6
-1.186, 3.234e-6
-1.187, 3.323e-6
-1.188, 3.224e-6
-1.189, 3.244e-6
-1.190, 3.234e-6
-1.191, 3.254e-6
-1.192, 3.244e-6
-1.193, 3.313e-6
-1.194, 3.303e-6
-1.195, 3.195e-6
-1.196, 3.293e-6
-1.197, 3.293e-6
-1.198, 3.362e-6
-1.199, 3.343e-6
-1.200, 3.303e-6
-1.201, 3.343e-6
-1.202, 3.234e-6
-1.203, 3.392e-6
-1.204, 3.382e-6
-1.205, 3.362e-6
-1.206, 3.352e-6
-1.207, 3.333e-6
-1.208, 3.422e-6
-1.209, 3.352e-6
-1.210, 3.352e-6
-1.211, 3.283e-6
-1.212, 3.323e-6
-1.213, 3.422e-6
-1.214, 3.343e-6
-1.215, 3.451e-6
-1.216, 3.422e-6
-1.217, 3.471e-6
-1.218, 3.471e-6
-1.219, 3.274e-6
-1.220, 3.451e-6
-1.221, 3.352e-6
-1.222, 3.481e-6
-1.223, 3.471e-6
-1.224, 3.431e-6
-1.225, 3.402e-6
-1.226, 3.530e-6
-1.227, 3.422e-6
-1.228, 3.560e-6
-1.229, 3.570e-6
-1.230, 3.579e-6
-1.231, 3.609e-6
-1.232, 3.698e-6
-1.233, 3.678e-6
-1.234, 3.579e-6
-1.235, 3.619e-6
-1.236, 3.767e-6
-1.237, 3.619e-6
-1.238, 3.658e-6
-1.239, 3.727e-6
-1.240, 3.708e-6
-1.241, 3.708e-6
-1.242, 3.777e-6
-1.243, 3.826e-6
-1.244, 3.747e-6
-1.245, 3.816e-6
-1.246, 3.806e-6
-1.247, 3.787e-6
-1.248, 3.964e-6
-1.249, 3.915e-6
-1.250, 3.935e-6
-1.251, 3.944e-6
-1.252, 3.925e-6
-1.253, 3.964e-6
-1.254, 3.915e-6
-1.255, 4.043e-6
-1.256, 3.984e-6
-1.257, 4.142e-6
-1.258, 4.191e-6
-1.259, 4.142e-6
-1.260, 4.191e-6
-1.261, 4.171e-6
-1.262, 4.191e-6
-1.263, 4.270e-6
-1.264, 4.369e-6
-1.265, 4.339e-6
-1.266, 4.319e-6
-1.267, 4.448e-6
-1.268, 4.477e-6
-1.269, 4.507e-6
-1.270, 4.556e-6
-1.271, 4.586e-6
-1.272, 4.665e-6
-1.273, 4.734e-6
-1.274, 4.714e-6
-1.275, 4.724e-6
-1.276, 4.832e-6
-1.277, 4.842e-6
-1.278, 5.020e-6
-1.279, 5.059e-6
-1.280, 5.128e-6
-1.281, 5.178e-6
-1.282, 5.316e-6
-1.283, 5.385e-6
-1.284, 5.424e-6
-1.285, 5.493e-6
-1.286, 5.493e-6
-1.287, 5.651e-6
-1.288, 5.799e-6
-1.289, 5.799e-6
-1.290, 5.947e-6
-1.291, 5.947e-6
-1.292, 6.085e-6
-1.293, 6.223e-6
-1.294, 6.342e-6
-1.295, 6.500e-6
-1.296, 6.618e-6
-1.297, 6.658e-6
-1.298, 6.825e-6
-1.299, 6.944e-6
-1.300, 7.171e-6
-1.301, 7.259e-6
-1.302, 7.397e-6
-1.303, 7.674e-6
-1.304, 7.841e-6
-1.305, 7.970e-6
-1.306, 8.295e-6
-1.307, 8.354e-6
-1.308, 8.581e-6
-1.309, 8.818e-6
-1.310, 9.124e-6
-1.311, 9.242e-6
-1.312, 9.558e-6
-1.313, 9.874e-6
-1.314, 1.010e-5
-1.315, 1.035e-5
-1.316, 1.064e-5
-1.317, 1.086e-5
-1.318, 1.128e-5
-1.319, 1.154e-5
-1.320, 1.197e-5
-1.321, 1.228e-5
-1.322, 1.256e-5
-1.323, 1.296e-5
-1.324, 1.339e-5
-1.325, 1.392e-5
-1.326, 1.432e-5
-1.327, 1.468e-5
-1.328, 1.531e-5
-1.329, 1.570e-5
-1.330, 1.629e-5
-1.331, 1.677e-5
-1.332, 1.741e-5
-1.333, 1.806e-5
-1.334, 1.856e-5
-1.335, 1.924e-5
-1.336, 1.981e-5
-1.337, 2.056e-5
-1.338, 2.129e-5
-1.339, 2.199e-5
-1.340, 2.285e-5
-1.341, 2.363e-5
-1.342, 2.446e-5
-1.343, 2.543e-5
-1.344, 2.631e-5
-1.345, 2.746e-5
-1.346, 2.832e-5
-1.347, 2.939e-5
-1.348, 3.048e-5
-1.349, 3.152e-5
-1.350, 3.276e-5
-1.351, 3.389e-5
-1.352, 3.518e-5
-1.353, 3.652e-5
-1.354, 3.782e-5
-1.355, 3.913e-5
-1.356, 4.051e-5
-1.357, 4.206e-5
-1.358, 4.373e-5
-1.359, 4.525e-5
-1.360, 4.701e-5
-1.361, 4.868e-5
-1.362, 5.046e-5
-1.363, 5.248e-5
-1.364, 5.437e-5
-1.365, 5.628e-5
-1.366, 5.841e-5
-1.367, 6.060e-5
-1.368, 6.293e-5
-1.369, 6.527e-5
-1.370, 6.780e-5
-1.371, 7.014e-5
-1.372, 7.271e-5
-1.373, 7.555e-5
-1.374, 7.827e-5
-1.375, 8.121e-5
-1.376, 8.420e-5
-1.377, 8.730e-5
-1.378, 9.059e-5
-1.379, 9.392e-5
-1.380, 9.741e-5
-1.381, 1.010e-4
-1.382, 1.049e-4
-1.383, 1.089e-4
-1.384, 1.128e-4
-1.385, 1.168e-4
-1.386, 1.210e-4
-1.387, 1.254e-4
-1.388, 1.301e-4
-1.389, 1.348e-4
-1.390, 1.396e-4
-1.391, 1.448e-4
-1.392, 1.499e-4
-1.393, 1.557e-4
-1.394, 1.613e-4
-1.395, 1.670e-4
-1.396, 1.730e-4
-1.397, 1.792e-4
-1.398, 1.858e-4
-1.399, 1.923e-4
-1.400, 1.991e-4
-1.401, 2.063e-4
-1.402, 2.138e-4
-1.403, 2.209e-4
-1.404, 2.281e-4
-1.405, 2.365e-4
-1.406, 2.435e-4
-1.407, 2.525e-4
-1.408, 2.612e-4
-1.409, 2.705e-4
-1.410, 2.802e-4
-1.411, 2.891e-4
-1.412, 2.992e-4
-1.413, 3.090e-4
-1.414, 3.199e-4
-1.415, 3.306e-4
-1.416, 3.411e-4
-1.417, 3.521e-4
-1.418, 3.633e-4
-1.419, 3.761e-4
-1.420, 3.888e-4
-1.421, 4.015e-4
-1.422, 4.145e-4
-1.423, 4.271e-4
-1.424, 4.409e-4
-1.425, 4.553e-4
-1.426, 4.693e-4
-1.427, 4.840e-4
-1.428, 4.996e-4
-1.429, 5.153e-4
-1.430, 5.330e-4
-1.431, 5.504e-4
-1.432, 5.608e-4
-1.433, 5.844e-4
-1.434, 5.998e-4
-1.435, 6.191e-4
-1.436, 6.374e-4
-1.437, 6.543e-4
-1.438, 6.796e-4
-1.439, 6.904e-4
-1.440, 7.130e-4
-1.441, 7.372e-4
-1.442, 7.555e-4
-1.443, 7.813e-4
-1.444, 8.014e-4
-1.445, 8.276e-4
-1.446, 8.480e-4
-1.447, 8.709e-4
-1.448, 8.964e-4
-1.449, 9.212e-4
-1.450, 9.474e-4
-1.451, 9.737e-4
-1.452, 1.002e-3
-1.453, 1.029e-3
-1.454, 1.057e-3
-1.455, 1.085e-3
-1.456, 1.107e-3
-1.457, 1.142e-3
-1.458, 1.178e-3
-1.459, 1.192e-3
-1.460, 1.234e-3
-1.461, 1.245e-3
-1.462, 1.297e-3
-1.463, 1.317e-3
-1.464, 1.350e-3
-1.465, 1.388e-3
-1.466, 1.415e-3
-1.467, 1.451e-3
-1.468, 1.483e-3
-1.469, 1.539e-3
-1.470, 1.563e-3
-1.471, 1.612e-3
-1.472, 1.646e-3
-1.473, 1.676e-3
-1.474, 1.712e-3
-1.475, 1.752e-3
-1.476, 1.794e-3
-1.477, 1.821e-3
-1.478, 1.863e-3
-1.479, 1.912e-3
-1.480, 1.964e-3
-1.481, 1.994e-3
-1.482, 2.036e-3
-1.483, 2.084e-3
-1.484, 2.154e-3
-1.485, 2.130e-3
-1.486, 2.242e-3
-1.487, 2.239e-3
-1.488, 2.308e-3
-1.489, 2.353e-3
-1.490, 2.390e-3
-1.491, 2.455e-3
-1.492, 2.486e-3
-1.493, 2.549e-3
-1.494, 2.593e-3
-1.495, 2.644e-3
-1.496, 2.692e-3
-1.497, 2.737e-3
-1.498, 2.787e-3
-1.499, 2.841e-3
-1.500, 2.910e-3
-1.501, 2.957e-3
-1.502, 3.004e-3
-1.503, 3.049e-3
-1.504, 3.104e-3
-1.505, 3.167e-3
-1.506, 3.237e-3
-1.507, 3.292e-3
-1.508, 3.360e-3
-1.509, 3.399e-3
-1.510, 3.448e-3
-1.511, 3.491e-3
-1.512, 3.584e-3
-1.513, 3.590e-3
-1.514, 3.669e-3
-1.515, 3.789e-3
-1.516, 3.771e-3
-1.517, 3.879e-3
-1.518, 3.985e-3
-1.519, 3.984e-3
-1.520, 4.041e-3
-1.521, 4.075e-3
-1.522, 4.138e-3
-1.523, 4.215e-3
-1.524, 4.298e-3
-1.525, 4.380e-3
-1.526, 4.398e-3
-1.527, 4.510e-3
-1.528, 4.520e-3
-1.529, 4.560e-3
-1.530, 4.660e-3
-1.531, 4.713e-3
-1.532, 4.820e-3
-1.533, 4.899e-3
-1.534, 4.963e-3
-1.535, 5.015e-3
-1.536, 5.084e-3
-1.537, 5.165e-3
-1.538, 5.212e-3
-1.539, 5.227e-3
-1.540, 5.326e-3
-1.541, 5.391e-3
-1.542, 5.475e-3
-1.543, 5.586e-3
-1.544, 5.606e-3
-1.545, 5.652e-3
-1.546, 5.739e-3
-1.547, 5.828e-3
-1.548, 5.878e-3
-1.549, 5.931e-3
-1.550, 6.008e-3
-1.551, 6.096e-3
-1.552, 6.178e-3
-1.553, 6.286e-3
-1.554, 6.247e-3
-1.555, 6.348e-3
-1.556, 6.402e-3
-1.557, 6.527e-3
-1.558, 6.574e-3
-1.559, 6.639e-3
-1.560, 6.786e-3
-1.561, 6.724e-3
-1.562, 6.856e-3
-1.563, 6.895e-3
-1.564, 6.974e-3
-1.565, 7.029e-3
-1.566, 7.078e-3
-1.567, 7.215e-3
-1.568, 7.304e-3
-1.569, 7.348e-3
-1.570, 7.385e-3
-1.571, 7.478e-3
-1.572, 7.442e-3
-1.573, 7.603e-3
-1.574, 7.680e-3
-1.575, 7.575e-3
-1.576, 7.767e-3
-1.577, 7.807e-3
-1.578, 7.898e-3
-1.579, 7.931e-3
-1.580, 8.112e-3
-1.581, 7.939e-3
-1.582, 8.093e-3
-1.583, 7.933e-3
-1.584, 8.259e-3
-1.585, 8.157e-3
-1.586, 8.304e-3
-1.587, 8.352e-3
-1.588, 8.322e-3
-1.589, 8.449e-3
-1.590, 8.599e-3
-1.591, 8.616e-3
-1.592, 8.778e-3
-1.593, 8.687e-3
-1.594, 8.734e-3
-1.595, 8.858e-3
-1.596, 8.864e-3
-1.597, 8.856e-3
-1.598, 9.032e-3
-1.599, 9.154e-3
-1.600, 8.976e-3
-1.599, 9.001e-3
-1.598, 8.852e-3
-1.597, 8.837e-3
-1.596, 8.695e-3
-1.595, 8.688e-3
-1.594, 8.484e-3
-1.593, 8.482e-3
-1.592, 8.324e-3
-1.591, 8.240e-3
-1.590, 8.115e-3
-1.589, 8.057e-3
-1.588, 7.979e-3
-1.587, 7.829e-3
-1.586, 7.827e-3
-1.585, 7.644e-3
-1.584, 7.591e-3
-1.583, 7.597e-3
-1.582, 7.542e-3
-1.581, 7.301e-3
-1.580, 7.271e-3
-1.579, 7.121e-3
-1.578, 6.999e-3
-1.577, 6.954e-3
-1.576, 6.905e-3
-1.575, 6.884e-3
-1.574, 6.801e-3
-1.573, 6.672e-3
-1.572, 6.659e-3
-1.571, 6.510e-3
-1.570, 6.494e-3
-1.569, 6.398e-3
-1.568, 6.237e-3
-1.567, 6.180e-3
-1.566, 6.147e-3
-1.565, 6.063e-3
-1.564, 5.994e-3
-1.563, 5.950e-3
-1.562, 5.812e-3
-1.561, 5.775e-3
-1.560, 5.704e-3
-1.559, 5.601e-3
-1.558, 5.529e-3
-1.557, 5.469e-3
-1.556, 5.416e-3
-1.555, 5.419e-3
-1.554, 5.264e-3
-1.553, 5.278e-3
-1.552, 5.116e-3
-1.551, 5.017e-3
-1.550, 5.067e-3
-1.549, 4.897e-3
-1.548, 4.903e-3
-1.547, 4.743e-3
-1.546, 4.723e-3
-1.545, 4.677e-3
-1.544, 4.591e-3
-1.543, 4.554e-3
-1.542, 4.453e-3
-1.541, 4.381e-3
-1.540, 4.336e-3
-1.539, 4.243e-3
-1.538, 4.206e-3
-1.537, 4.126e-3
-1.536, 4.071e-3
-1.535, 4.031e-3
-1.534, 4.007e-3
-1.533, 3.874e-3
-1.532, 3.820e-3
-1.531, 3.718e-3
-1.530, 3.693e-3
-1.529, 3.654e-3
-1.528, 3.621e-3
-1.527, 3.537e-3
-1.526, 3.494e-3
-1.525, 3.459e-3
-1.524, 3.353e-3
-1.523, 3.297e-3
-1.522, 3.255e-3
-1.521, 3.197e-3
-1.520, 3.160e-3
-1.519, 3.101e-3
-1.518, 3.053e-3
-1.517, 2.993e-3
-1.516, 2.921e-3
-1.515, 2.885e-3
-1.514, 2.852e-3
-1.513, 2.817e-3
-1.512, 2.766e-3
-1.511, 2.728e-3
-1.510, 2.672e-3
-1.509, 2.621e-3
-1.508, 2.562e-3
-1.507, 2.517e-3
-1.506, 2.463e-3
-1.505, 2.432e-3
-1.504, 2.396e-3
-1.503, 2.350e-3
-1.502, 2.310e-3
-1.501, 2.271e-3
-1.500, 2.226e-3
-1.499, 2.183e-3
-1.498, 2.137e-3
-1.497, 2.087e-3
-1.496, 2.051e-3
-1.495, 2.021e-3
-1.494, 1.981e-3
-1.493, 1.957e-3
-1.492, 1.915e-3
-1.491, 1.869e-3
-1.490, 1.836e-3
-1.489, 1.796e-3
-1.488, 1.766e-3
-1.487, 1.722e-3
-1.486, 1.701e-3
-1.485, 1.679e-3
-1.484, 1.618e-3
-1.483, 1.596e-3
-1.482, 1.558e-3
-1.481, 1.516e-3
-1.480, 1.498e-3
-1.479, 1.456e-3
-1.478, 1.430e-3
-1.477, 1.397e-3
-1.476, 1.362e-3
-1.475, 1.332e-3
-1.474, 1.312e-3
-1.473, 1.286e-3
-1.472, 1.259e-3
-1.471, 1.226e-3
-1.470, 1.204e-3
-1.469, 1.168e-3
-1.468, 1.149e-3
-1.467, 1.120e-3
-1.466, 1.097e-3
-1.465, 1.072e-3
-1.464, 1.046e-3
-1.463, 1.023e-3
-1.462, 9.977e-4
-1.461, 9.820e-4
-1.460, 9.584e-4
-1.459, 9.363e-4
-1.458, 9.169e-4
-1.457, 8.946e-4
-1.456, 8.743e-4
-1.455, 8.511e-4
-1.454, 8.317e-4
-1.453, 8.109e-4
-1.452, 7.930e-4
-1.451, 7.738e-4
-1.450, 7.548e-4
-1.449, 7.391e-4
-1.448, 7.179e-4
-1.447, 7.021e-4
-1.446, 6.822e-4
-1.445, 6.682e-4
-1.444, 6.507e-4
-1.443, 6.348e-4
-1.442, 6.183e-4
-1.441, 6.036e-4
-1.440, 5.881e-4
-1.439, 5.746e-4
-1.438, 5.592e-4
-1.437, 5.449e-4
-1.436, 5.309e-4
-1.435, 5.169e-4
-1.434, 5.051e-4
-1.433, 4.913e-4
-1.432, 4.794e-4
-1.431, 4.665e-4
-1.430, 4.540e-4
-1.429, 4.416e-4
-1.428, 4.306e-4
-1.427, 4.190e-4
-1.426, 4.070e-4
-1.425, 3.979e-4
-1.424, 3.862e-4
-1.423, 3.767e-4
-1.422, 3.669e-4
-1.421, 3.573e-4
-1.420, 3.474e-4
-1.419, 3.373e-4
-1.418, 3.280e-4
-1.417, 3.193e-4
-1.416, 3.114e-4
-1.415, 3.029e-4
-1.414, 2.943e-4
-1.413, 2.863e-4
-1.412, 2.786e-4
-1.411, 2.716e-4
-1.410, 2.643e-4
-1.409, 2.570e-4
-1.408, 2.498e-4
-1.407, 2.428e-4
-1.406, 2.361e-4
-1.405, 2.294e-4
-1.404, 2.232e-4
-1.403, 2.172e-4
-1.402, 2.117e-4
-1.401, 2.059e-4
-1.400, 1.999e-4
-1.399, 1.944e-4
-1.398, 1.889e-4
-1.397, 1.838e-4
-1.396, 1.787e-4
-1.395, 1.735e-4
-1.394, 1.686e-4
-1.393, 1.637e-4
-1.392, 1.589e-4
-1.391, 1.542e-4
-1.390, 1.500e-4
-1.389, 1.458e-4
-1.388, 1.418e-4
-1.387, 1.378e-4
-1.386, 1.340e-4
-1.385, 1.301e-4
-1.384, 1.264e-4
-1.383, 1.228e-4
-1.382, 1.193e-4
-1.381, 1.158e-4
-1.380, 1.123e-4
-1.379, 1.093e-4
-1.378, 1.063e-4
-1.377, 1.032e-4
-1.376, 1.001e-4
-1.375, 9.731e-5
-1.374, 9.458e-5
-1.373, 9.184e-5
-1.372, 8.916e-5
-1.371, 8.653e-5
-1.370, 8.398e-5
-1.369, 8.152e-5
-1.368, 7.918e-5
-1.367, 7.684e-5
-1.366, 7.465e-5
-1.365, 7.232e-5
-1.364, 7.035e-5
-1.363, 6.832e-5
-1.362, 6.637e-5
-1.361, 6.438e-5
-1.360, 6.262e-5
-1.359, 6.087e-5
-1.358, 5.905e-5
-1.357, 5.727e-5
-1.356, 5.569e-5
-1.355, 5.401e-5
-1.354, 5.254e-5
-1.353, 5.097e-5
-1.352, 4.953e-5
-1.351, 4.798e-5
-1.350, 4.657e-5
-1.349, 4.524e-5
-1.348, 4.395e-5
-1.347, 4.267e-5
-1.346, 4.138e-5
-1.345, 4.010e-5
-1.344, 3.902e-5
-1.343, 3.788e-5
-1.342, 3.673e-5
-1.341, 3.572e-5
-1.340, 3.468e-5
-1.339, 3.366e-5
-1.338, 3.260e-5
-1.337, 3.161e-5
-1.336, 3.068e-5
-1.335, 2.974e-5
-1.334, 2.892e-5
-1.333, 2.797e-5
-1.332, 2.706e-5
-1.331, 2.622e-5
-1.330, 2.543e-5
-1.329, 2.471e-5
-1.328, 2.393e-5
-1.327, 2.314e-5
-1.326, 2.253e-5
-1.325, 2.169e-5
-1.324, 2.118e-5
-1.323, 2.036e-5
-1.322, 1.980e-5
-1.321, 1.915e-5
-1.320, 1.861e-5
-1.319, 1.805e-5
-1.318, 1.745e-5
-1.317, 1.693e-5
-1.316, 1.638e-5
-1.315, 1.589e-5
-1.314, 1.551e-5
-1.313, 1.495e-5
-1.312, 1.450e-5
-1.311, 1.408e-5
-1.310, 1.358e-5
-1.309, 1.325e-5
-1.308, 1.282e-5
-1.307, 1.242e-5
-1.306, 1.203e-5
-1.305, 1.149e-5
-1.304, 1.138e-5
-1.303, 1.098e-5
-1.302, 1.055e-5
-1.301, 1.029e-5
-1.300, 9.894e-6
-1.299, 9.706e-6
-1.298, 9.390e-6
-1.297, 9.065e-6
-1.296, 8.838e-6
-1.295, 8.473e-6
-1.294, 8.236e-6
-1.293, 8.009e-6
-1.292, 7.763e-6
-1.291, 7.575e-6
-1.290, 7.269e-6
-1.289, 7.161e-6
-1.288, 6.756e-6
-1.287, 6.608e-6
-1.286, 6.431e-6
-1.285, 6.194e-6
-1.284, 6.016e-6
-1.283, 5.858e-6
-1.282, 5.651e-6
-1.281, 5.523e-6
-1.280, 5.207e-6
-1.279, 5.049e-6
-1.278, 4.862e-6
-1.277, 4.763e-6
-1.276, 4.625e-6
-1.275, 4.408e-6
-1.274, 4.339e-6
-1.273, 4.171e-6
-1.272, 3.994e-6
-1.271, 3.826e-6
-1.270, 3.708e-6
-1.269, 3.629e-6
-1.268, 3.540e-6
-1.267, 3.382e-6
-1.266, 3.244e-6
-1.265, 3.135e-6
-1.264, 3.096e-6
-1.263, 2.810e-6
-1.262, 2.790e-6
-1.261, 2.721e-6
-1.260, 2.504e-6
-1.259, 2.543e-6
-1.258, 2.445e-6
-1.257, 2.356e-6
-1.256, 2.307e-6
-1.255, 2.178e-6
-1.254, 2.129e-6
-1.253, 1.971e-6
-1.252, 1.873e-6
-1.251, 1.843e-6
-1.250, 1.734e-6
-1.249, 1.794e-6
-1.248, 1.626e-6
-1.247, 1.577e-6
-1.246, 1.537e-6
-1.245, 1.448e-6
-1.244, 1.448e-6
-1.243, 1.350e-6
-1.242, 1.281e-6
-1.241, 1.202e-6
-1.240, 1.123e-6
-1.239, 1.212e-6
-1.238, 9.353e-7
-1.237, 9.452e-7
-1.236, 8.860e-7
-1.235, 8.958e-7
-1.234, 9.550e-7
-1.233, 8.169e-7
-1.232, 7.676e-7
-1.231, 6.886e-7
-1.230, 7.676e-7
-1.229, 5.998e-7
-1.228, 4.617e-7
-1.227, 4.420e-7
-1.226, 3.729e-7
-1.225, 3.039e-7
-1.224, 3.729e-7
-1.223, 3.137e-7
-1.222, 2.644e-7
-1.221, 2.743e-7
-1.220, 2.545e-7
-1.219, 2.249e-7
-1.218, 8.682e-8
-1.217, 9.669e-8
-1.216, 8.682e-8
-1.215, -1.184e-8
-1.214, 5.722e-8
-1.213, -3.157e-8
-1.212, -1.006e-7
-1.211, -1.006e-7
-1.210, -1.006e-7
-1.209, -8.090e-8
-1.208, -1.894e-7
-1.207, -1.796e-7
-1.206, -1.204e-7
-1.205, -2.486e-7
-1.204, -1.302e-7
-1.203, -2.881e-7
-1.202, -2.486e-7
-1.201, -3.670e-7
-1.200, -3.966e-7
-1.199, -3.177e-7
-1.198, -3.769e-7
-1.197, -4.459e-7
-1.196, -3.966e-7
-1.195, -3.670e-7
-1.194, -3.867e-7
-1.193, -5.446e-7
-1.192, -4.361e-7
-1.191, -5.446e-7
-1.190, -5.347e-7
-1.189, -5.446e-7
-1.188, -5.051e-7
-1.187, -6.729e-7
-1.186, -5.643e-7
-1.185, -6.433e-7
-1.184, -6.038e-7
-1.183, -7.518e-7
-1.182, -7.025e-7
-1.181, -7.222e-7
-1.180, -7.814e-7
-1.179, -6.334e-7
-1.178, -8.307e-7
-1.177, -7.912e-7
-1.176, -7.617e-7
-1.175, -8.702e-7
-1.174, -7.814e-7
-1.173, -8.603e-7
-1.172, -8.702e-7
-1.171, -9.392e-7
-1.170, -7.912e-7
-1.169, -9.195e-7
-1.168, -8.998e-7
-1.167, -8.110e-7
-1.166, -9.491e-7
-1.165, -1.018e-6
-1.164, -9.392e-7
-1.163, -1.008e-6
-1.162, -9.984e-7
-1.161, -9.590e-7
-1.160, -1.018e-6
-1.159, -1.038e-6
-1.158, -1.087e-6
-1.157, -1.087e-6
-1.156, -1.028e-6
-1.155, -1.087e-6
-1.154, -1.077e-6
-1.153, -1.146e-6
-1.152, -1.137e-6
-1.151, -1.137e-6
-1.150, -1.304e-6
-1.149, -1.206e-6
-1.148, -1.255e-6
-1.147, -1.294e-6
-1.146, -1.363e-6
-1.145, -1.373e-6
-1.144, -1.255e-6
-1.143, -1.334e-6
-1.142, -1.324e-6
-1.141, -1.334e-6
-1.140, -1.354e-6
-1.139, -1.423e-6
-1.138, -1.433e-6
-1.137, -1.551e-6
-1.136, -1.482e-6
-1.135, -1.511e-6
-1.134, -1.413e-6
-1.133, -1.502e-6
-1.132, -1.551e-6
-1.131, -1.600e-6
-1.130, -1.620e-6
-1.129, -1.561e-6
-1.128, -1.571e-6
-1.127, -1.699e-6
-1.126, -1.778e-6
-1.125, -1.738e-6
-1.124, -1.729e-6
-1.123, -1.748e-6
-1.122, -1.788e-6
-1.121, -1.729e-6
-1.120, -1.877e-6
-1.119, -1.798e-6
-1.118, -1.847e-6
-1.117, -1.877e-6
-1.116, -1.847e-6
-1.115, -1.965e-6
-1.114, -1.886e-6
-1.113, -2.034e-6
-1.112, -1.965e-6
-1.111, -2.044e-6
-1.110, -2.074e-6
-1.109, -2.034e-6
-1.108, -2.074e-6
-1.107, -2.133e-6
-1.106, -2.163e-6
-1.105, -2.182e-6
-1.104, -2.172e-6
-1.103, -2.271e-6
-1.102, -2.182e-6
-1.101, -2.291e-6
-1.100, -2.311e-6
-1.099, -2.320e-6
-1.098, -2.350e-6
-1.097, -2.380e-6
-1.096, -2.419e-6
-1.095, -2.390e-6
-1.094, -2.468e-6
-1.093, -2.478e-6
-1.092, -2.518e-6
-1.091, -2.547e-6
-1.090, -2.607e-6
-1.089, -2.557e-6
-1.088, -2.745e-6
-1.087, -2.676e-6
-1.086, -2.656e-6
-1.085, -2.804e-6
-1.084, -2.735e-6
-1.083, -2.814e-6
-1.082, -2.824e-6
-1.081, -2.932e-6
-1.080, -2.981e-6
-1.079, -2.922e-6
-1.078, -2.873e-6
-1.077, -2.893e-6
-1.076, -2.991e-6
-1.075, -3.051e-6
-1.074, -3.060e-6
-1.073, -3.189e-6
-1.072, -3.129e-6
-1.071, -3.189e-6
-1.070, -3.149e-6
-1.069, -3.228e-6
-1.068, -3.248e-6
-1.067, -3.297e-6
-1.066, -3.406e-6
-1.065, -3.406e-6
-1.064, -3.327e-6
-1.063, -3.435e-6
-1.062, -3.514e-6
-1.061, -3.504e-6
-1.060, -3.534e-6
-1.059, -3.603e-6
-1.058, -3.721e-6
-1.057, -3.593e-6
-1.056, -3.761e-6
-1.055, -3.731e-6
-1.054, -3.751e-6
-1.053, -3.781e-6
-1.052, -3.721e-6
-1.051, -3.968e-6
-1.050, -3.968e-6
-1.049, -4.077e-6
-1.048, -4.116e-6
-1.047, -4.116e-6
-1.046, -4.175e-6
-1.045, -4.165e-6
-1.044, -4.175e-6
-1.043, -4.343e-6
-1.042, -4.294e-6
-1.041, -4.284e-6
-1.040, -4.333e-6
-1.039, -4.392e-6
-1.038, -4.412e-6
-1.037, -4.530e-6
-1.036, -4.590e-6
-1.035, -4.609e-6
-1.034, -4.619e-6
-1.033, -4.659e-6
-1.032, -4.708e-6
-1.031, -4.807e-6
-1.030, -4.876e-6
-1.029, -4.826e-6
-1.028, -4.925e-6
-1.027, -4.955e-6
-1.026, -5.073e-6
-1.025, -5.113e-6
-1.024, -5.103e-6
-1.023, -5.300e-6
-1.022, -5.320e-6
-1.021, -5.458e-6
-1.020, -5.438e-6
-1.019, -5.438e-6
-1.018, -5.468e-6
-1.017, -5.626e-6
-1.016, -5.665e-6
-1.015, -5.685e-6
-1.014, -5.754e-6
-1.013, -5.843e-6
-1.012, -5.872e-6
-1.011, -6.020e-6
-1.010, -5.872e-6
-1.009, -5.971e-6
-1.008, -6.148e-6
-1.007, -6.089e-6
-1.006, -6.158e-6
-1.005, -6.208e-6
-1.004, -6.158e-6
-1.003, -6.336e-6
-1.002, -6.385e-6
-1.001, -6.474e-6
