Potential V vs RHE, Current mA cm-2
0.4132999999999999,0.011863768960668198
0.4122999999999999,0.010126503484433932
0.4112999999999999,0.00960871914868333
0.4102999999999999,0.009273432570615317
0.4092999999999999,0.008996149155841768
0.4082999999999999,0.008800918996460395
0.4072999999999999,0.008594371146680099
0.4062999999999999,0.008393482142099264
0.4052999999999999,0.008162884200221262
0.4042999999999999,0.007967654040839886
0.4032999999999999,0.007830427044752978
0.4022999999999999,0.007647929287070387
0.4012999999999999,0.007480993353686315
0.4002999999999999,0.0073126427090023744
0.3992999999999999,0.0071287302400199195
0.3982999999999999,0.006990088532633146
0.3972999999999999,0.0068754969173440775
0.3962999999999999,0.006725537519558384
0.3952999999999999,0.006576992833072556
0.3942999999999999,0.006421374590087401
0.39329999999999987,0.006313856531297659
0.39229999999999987,0.00618794722560967
0.39129999999999987,0.006056379074722222
0.39029999999999987,0.005888028430038283
0.38929999999999987,0.005757874990450699
0.38829999999999987,0.005653186354260687
0.38729999999999987,0.005569718387568649
0.38629999999999987,0.005433906102781606
0.38529999999999986,0.005272629014596992
0.38429999999999986,0.005160866821907653
0.38329999999999986,0.005070325298716291
0.38229999999999986,0.004967051373826145
0.38129999999999986,0.004843971490737885
0.38029999999999986,0.004702500360751382
0.37929999999999986,0.004596397013261504
0.37829999999999986,0.004521417314368657
0.37729999999999986,0.004406825699079589
0.37629999999999986,0.004326187154987282
0.37529999999999986,0.004173398334601858
0.37429999999999986,0.0040800273888107665
0.37329999999999985,0.0039894858656194035
0.37229999999999985,0.003908847321527097
0.37129999999999985,0.003812646953136274
0.37029999999999985,0.0036994700491470712
0.36929999999999985,0.0035905372790574633
0.36829999999999985,0.0035268752705635365
0.36729999999999985,0.003430674902172714
0.36629999999999985,0.003354280491980002
0.36529999999999985,0.0032283711862920133
0.36429999999999985,0.0031350002405009215
0.36329999999999985,0.0030713382320069946
0.36229999999999984,0.0030048468009133376
0.36129999999999984,0.00289874345342346
0.36029999999999984,0.002788395972033987
0.35929999999999984,0.002697854448842625
0.35829999999999984,0.002625704172549508
0.35729999999999984,0.0025606274527557164
0.35629999999999984,0.0024842330425630045
0.35529999999999984,0.0023611531594747463
0.35429999999999984,0.002259293945884464
0.35329999999999984,0.0021843142469916165
0.35229999999999984,0.0021447023305953957
0.35129999999999983,0.002049916673504438
0.35029999999999983,0.0019324956356156402
0.34929999999999983,0.0018561012254229281
0.34829999999999983,0.0017938539282288664
0.34729999999999983,0.001699068271137909
0.34629999999999983,0.001624088572245062
0.34529999999999983,0.0015264734925543744
0.34429999999999983,0.0014444202371622023
0.3432999999999998,0.0013876903140376145
0.3422999999999998,0.0013387413030622843
0.3412999999999998,0.0012439556459713265
0.3402999999999998,0.001135022875881719
0.3392999999999998,0.0010764538280673066
0.3382999999999998,0.0010163285978230425
0.3372999999999998,0.0009522421759391562
0.3362999999999998,0.0008796674862560799
0.3352999999999998,0.000773564138766202
0.3342999999999998,0.0006939158925838005
0.3332999999999998,0.0006591139946071206
0.3322999999999998,0.0005656015776860417
0.3312999999999998,0.0005223114119101716
0.3302999999999998,0.0003883382518129526
0.3292999999999998,0.0003157635621298762
0.3282999999999998,0.00028223490432307483
0.3272999999999998,0.00021248963723972855
0.3262999999999998,0.00014967645552572088
0.3252999999999999,5.191990470504685e-05
0.3242999999999999,-2.902987587323055e-05
0.3232999999999999,-6.112967526716824e-05
0.3222999999999999,-0.00013790605751084377
0.3212999999999999,-0.00021333846401964753
0.3202999999999999,-0.0002997773244414013
0.3192999999999999,-0.00037235201412447763
0.3182999999999999,-0.00039753387526207526
0.3172999999999999,-0.0004422387523378105
0.3162999999999999,-0.0005357511692588893
0.3152999999999999,-0.0006026670137425056
0.3142999999999999,-0.000692076767893976
0.3132999999999999,-0.0007520605270082535
0.3122999999999999,-0.0007966239329540021
0.3112999999999999,-0.0008734427565366736
0.3102999999999999,-0.0009376706495505462
0.3092999999999999,-0.0010200068472026916
0.3082999999999999,-0.0010702290983479004
0.3072999999999999,-0.0010925815368857679
0.3062999999999999,-0.001179161868437508
0.3052999999999999,-0.0012726742853585871
0.3042999999999999,-0.0013172376913043356
0.3032999999999999,-0.0013605278570802057
0.3022999999999999,-0.0014052327341559409
0.3012999999999999,-0.0014741291744593684
0.3002999999999999,-0.0015675001202504607
0.2992999999999999,-0.0016141855931460067
0.2982999999999999,-0.0016566269321419578
0.2972999999999999,-0.0017132153841365593
0.2962999999999999,-0.0017881950830294063
0.2952999999999999,-0.001882980740120364
0.2942999999999999,-0.001925422079116315
0.2932999999999999,-0.001976351685911456
0.2922999999999999,-0.0020272812927065974
0.2912999999999999,-0.002075381476902009
0.2902999999999999,-0.0021715818452928315
0.2892999999999999,-0.002239487987686353
0.2882999999999999,-0.0022479762554855434
0.2872999999999999,-0.0023158823978790648
0.2862999999999999,-0.002380959117672857
0.2852999999999999,-0.0024545241052658386
0.2842999999999999,-0.00251394197986017
0.2832999999999999,-0.0025464803397570656
0.2822999999999999,-0.0026030687917516677
0.2812999999999999,-0.002651168975947079
0.2802999999999999,-0.0027332222313392507
0.2792999999999999,-0.002812446064131693
0.2782999999999999,-0.0028308373110299385
0.2772999999999999,-0.0028704492274261592
0.2762999999999999,-0.0029510877715184665
0.2752999999999999,-0.0030274821817111784
0.2742999999999999,-0.003085485345005645
0.2732999999999999,-0.003106706014503621
0.2722999999999999,-0.0031491473534995718
0.2712999999999999,-0.0032255417636922836
0.2702999999999999,-0.0032920331947859406
0.2692999999999999,-0.003362768759779192
0.26829999999999987,-0.0034066248100750084
0.26729999999999987,-0.003433504324772444
0.26629999999999987,-0.0035042398897656953
0.26529999999999987,-0.003573560743459083
0.26429999999999987,-0.0036442963084523344
0.26329999999999987,-0.0036584434214509847
0.26229999999999987,-0.003703714183046666
0.26129999999999987,-0.003768790902840458
0.26029999999999986,-0.003860747137331685
0.25929999999999986,-0.003914506166726556
0.25829999999999986,-0.003956947505722507
0.25729999999999986,-0.003997974133418594
0.25629999999999986,-0.004030512493315489
0.25529999999999986,-0.004126712861706312
0.25429999999999986,-0.004170568912002128
0.25329999999999986,-0.004205936694498754
0.25229999999999986,-0.0042554515899940306
0.25129999999999986,-0.004312040041988632
0.25029999999999986,-0.0043799461843821545
0.24929999999999986,-0.004432290502477159
0.24829999999999985,-0.00446341415107419
0.24729999999999985,-0.004512929046569467
0.24629999999999985,-0.004575176343763528
0.24529999999999985,-0.004679864979953542
0.24429999999999985,-0.004712403339850436
0.24329999999999985,-0.004722306318949493
0.24229999999999985,-0.004766162369245309
0.24129999999999985,-0.004829824377739236
0.24029999999999985,-0.004890656963633432
0.23929999999999985,-0.004941586570428573
0.23829999999999985,-0.004951489549527628
0.23729999999999984,-0.00502222511452088
0.23629999999999984,-0.0050646664535168315
0.23529999999999984,-0.005136816729809948
0.23429999999999984,-0.005187746336605089
0.23329999999999984,-0.00522452883040158
0.23229999999999984,-0.005258481901598342
0.23129999999999984,-0.005319314487492538
0.23029999999999984,-0.0053900500524857895
0.22929999999999984,-0.005443809081880662
0.22829999999999984,-0.005484835709576748
0.22729999999999984,-0.005500397533875262
0.22629999999999983,-0.005571133098868514
0.22529999999999983,-0.005653186354260687
0.22429999999999983,-0.005682895291557853
0.22329999999999983,-0.005721092496654209
0.22229999999999983,-0.005757874990450699
0.22129999999999983,-0.005804560463346245
0.22029999999999983,-0.005893687275237743
0.21929999999999983,-0.005940372748133289
0.21829999999999983,-0.005958763995031534
0.21729999999999983,-0.005992717066228296
0.21629999999999983,-0.006056379074722222
0.21529999999999982,-0.006148335309213449
0.21429999999999982,-0.00618794722560967
0.21329999999999982,-0.006196435493408861
0.21229999999999982,-0.006244535677604272
0.21129999999999982,-0.006289806439199953
0.21029999999999982,-0.0063647861380928
0.20929999999999982,-0.006418545167487672
0.20829999999999982,-0.006436936414385917
0.20729999999999982,-0.006472304196882543
0.20629999999999982,-0.0065387956279762
0.20529999999999982,-0.006629337151167562
0.20429999999999982,-0.006676022624063108
0.20329999999999981,-0.006690169737061759
0.2022999999999998,-0.00671846396305906
0.2012999999999998,-0.006779296548953256
0.20029999999999992,-0.006834470289647992
0.19929999999999992,-0.006886814607743
0.19829999999999992,-0.006910864699840703
0.19729999999999992,-0.00694906190493706
0.19629999999999992,-0.007016968047330582
0.19529999999999992,-0.007074971210625048
0.19429999999999992,-0.007174001001615601
0.19329999999999992,-0.007195221671113577
0.19229999999999992,-0.007193806959813712
0.19129999999999991,-0.007260298390907369
0.1902999999999999,-0.00733386337850035
0.1892999999999999,-0.007360742893197786
0.1882999999999999,-0.007397525386994277
0.1872999999999999,-0.007422990190391848
0.1862999999999999,-0.007482408064986179
0.1852999999999999,-0.007557387763879026
0.1842999999999999,-0.007604073236774573
0.1832999999999999,-0.007636611596671467
0.1822999999999999,-0.007653588132269849
0.1812999999999999,-0.00770168831646526
0.1802999999999999,-0.007795059262256353
0.1792999999999999,-0.007819109354354058
0.1782999999999999,-0.007855891848150548
0.1772999999999999,-0.007905406743645824
0.1762999999999999,-0.00793228625834326
0.1752999999999999,-0.008027071915434218
0.1742999999999999,-0.008044048451032598
0.1732999999999999,-0.00808083094482909
0.1722999999999999,-0.008116198727325717
0.1712999999999999,-0.00814873708722261
0.1702999999999999,-0.008227960920015053
0.1692999999999999,-0.008284549372009654
0.1682999999999999,-0.0083029406189079
0.1672999999999999,-0.00833689369010466
0.1662999999999999,-0.008382164451700343
0.1652999999999999,-0.008458558861893055
0.1642999999999999,-0.008509488468688197
0.1632999999999999,-0.008512317891287926
0.1622999999999999,-0.008568906343282527
0.1612999999999999,-0.008604274125779151
0.1602999999999999,-0.008666521422973214
0.1592999999999999,-0.008735842276666602
0.15829999999999989,-0.008737256987966466
0.15729999999999988,-0.008768380636563497
0.15629999999999988,-0.008849019180655804
0.15529999999999988,-0.008911266477849865
0.15429999999999988,-0.008946634260346491
0.15329999999999988,-0.008973513775043927
0.15229999999999988,-0.009000393289741363
0.15129999999999988,-0.009059811164335695
0.15029999999999988,-0.009129132018029082
0.14929999999999988,-0.009170158645725169
0.14829999999999988,-0.009194208737822873
0.14729999999999988,-0.009208355850821524
0.14629999999999987,-0.009287579683613966
0.14529999999999987,-0.009349826980808027
0.14429999999999987,-0.009386609474604518
0.14329999999999987,-0.00941490370060182
0.14229999999999987,-0.009465833307396958
0.14129999999999987,-0.009506859935093048
0.14029999999999987,-0.009598816169584273
0.13929999999999987,-0.009610133859983196
0.13829999999999987,-0.009651160487679281
0.13729999999999987,-0.009685113558876041
0.13629999999999987,-0.009724725475272263
0.13529999999999986,-0.009815266998463626
0.13429999999999986,-0.00984497593576079
0.13329999999999986,-0.009861952471359169
0.13229999999999986,-0.009902979099055256
0.13129999999999986,-0.009944005726751342
0.13029999999999986,-0.010028888404743246
0.12929999999999986,-0.010076988588938657
0.12829999999999986,-0.010085476856737845
0.12729999999999986,-0.010139235886132717
0.12629999999999986,-0.010170359534729749
0.12529999999999986,-0.01024392452232273
0.12429999999999986,-0.010290609995218277
0.12329999999999985,-0.010314660087315984
0.12229999999999985,-0.010345783735913012
0.12129999999999985,-0.010391054497508694
0.12029999999999985,-0.010468863619001272
0.11929999999999985,-0.010511304957997222
0.11829999999999985,-0.010524037359696007
0.11729999999999985,-0.010576381677791015
0.11629999999999985,-0.010655605510583456
0.11529999999999985,-0.010703705694778867
0.11429999999999985,-0.010733414632076034
0.11329999999999985,-0.01076878241457266
0.11229999999999984,-0.010798491351869825
0.11129999999999984,-0.010852250381264698
0.11029999999999984,-0.010924400657557813
0.10929999999999984,-0.010962597862654168
0.10829999999999984,-0.010995136222551065
0.10729999999999984,-0.011020601025948635
0.10629999999999984,-0.011092751302241754
0.10529999999999984,-0.01116490157853487
0.10429999999999984,-0.011210172340130551
0.10329999999999984,-0.011237051854827986
0.10229999999999984,-0.011266760792125153
0.10129999999999983,-0.011323349244119754
0.10029999999999983,-0.011411061344711386
0.09929999999999983,-0.011432282014209361
0.09829999999999983,-0.011470479219305718
0.09729999999999983,-0.011504432290502478
0.09629999999999983,-0.011565264876396674
0.09529999999999983,-0.011644488709189117
0.09429999999999983,-0.011669953512586689
0.09329999999999983,-0.011702491872483584
0.09229999999999983,-0.011736444943680344
0.09129999999999983,-0.011807180508673597
0.09029999999999982,-0.011860939538068467
0.08929999999999982,-0.011918942701362933
0.08829999999999982,-0.011934504525661449
0.08729999999999982,-0.01199392240025578
0.08629999999999982,-0.012033534316652
0.08529999999999982,-0.012107099304244983
0.08429999999999982,-0.012167931890139181
0.08329999999999982,-0.012166517178839315
0.08229999999999982,-0.012220276208234187
0.08129999999999982,-0.012264132258530003
0.08029999999999982,-0.012334867823523254
0.07929999999999982,-0.012392870986817722
0.07829999999999981,-0.012411262233715966
0.07729999999999981,-0.012456532995311648
0.07629999999999981,-0.012511706736006383
0.07529999999999992,-0.012564051054101391
0.07429999999999992,-0.012613565949596667
0.07329999999999992,-0.012627713062595318
0.07229999999999992,-0.012661666133792078
0.07129999999999992,-0.012746548811783982
0.07029999999999992,-0.012817284376777233
0.06929999999999992,-0.012855481581873588
0.06829999999999992,-0.012899337632169404
0.06729999999999992,-0.01292621714686684
0.06629999999999991,-0.012999782134459821
0.06529999999999991,-0.01307193241075294
0.06429999999999991,-0.01309456779155078
0.06329999999999991,-0.013124276728847946
0.06229999999999991,-0.013185109314742142
0.06129999999999991,-0.013219062385938904
0.06029999999999991,-0.013309603909130264
0.05929999999999991,-0.01335628938202581
0.05829999999999991,-0.013384583608023111
0.05729999999999991,-0.013434098503518389
0.056299999999999906,-0.013476539842514339
0.055299999999999905,-0.013557178386606646
0.054299999999999904,-0.013596790303002869
0.0532999999999999,-0.01364206106459855
0.0522999999999999,-0.01367318471319558
0.0512999999999999,-0.013722699608690856
0.0502999999999999,-0.01381607055448195
0.0492999999999999,-0.013859926604777764
0.0482999999999999,-0.013867000161277088
0.0472999999999999,-0.01394056514887007
0.0462999999999999,-0.013978762353966426
0.045299999999999896,-0.014056571475459002
0.044299999999999895,-0.01410891579355401
0.043299999999999894,-0.014132965885651718
0.04229999999999989,-0.014161260111649017
0.04129999999999989,-0.014231995676642267
0.04029999999999989,-0.014345172580631472
0.03929999999999989,-0.014373466806628774
0.03829999999999989,-0.014387613919627423
0.03729999999999989,-0.014444202371622025
0.03629999999999989,-0.014500790823616624
0.03529999999999989,-0.014571526388609878
0.034299999999999886,-0.01461396772760583
0.033299999999999885,-0.01465640906660178
0.032299999999999884,-0.014684703292599082
0.031299999999999883,-0.014769585970590984
0.030299999999999883,-0.014854468648582884
0.02929999999999988,-0.014896909987578835
0.02829999999999988,-0.014911057100577486
0.02729999999999988,-0.014967645552572089
0.02629999999999988,-0.01503838111756534
0.025299999999999878,-0.015109116682558592
0.024299999999999877,-0.015151558021554544
0.023299999999999876,-0.015193999360550494
0.022299999999999875,-0.015222293586547794
0.021299999999999875,-0.015293029151541045
0.020299999999999874,-0.015377911829532949
0.019299999999999873,-0.015420353168528897
0.018299999999999872,-0.015448647394526203
0.01729999999999987,-0.015491088733522153
0.01629999999999987,-0.015547677185516754
0.01529999999999987,-0.015632559863508654
0.014299999999999868,-0.015675001202504608
0.013299999999999867,-0.015703295428501907
0.012299999999999978,-0.01575988388049651
0.011299999999999866,-0.01581647233249111
0.010299999999999976,-0.015901355010483013
0.009299999999999864,-0.015929649236480315
0.008299999999999974,-0.01597209057547626
0.007299999999999862,-0.016028679027470863
0.006299999999999972,-0.016099414592464115
0.00529999999999986,-0.01615600304445872
0.0042999999999999705,-0.016226738609451972
0.0032999999999998586,-0.01624088572245062
0.0022999999999999687,-0.016311621287443873
0.0012999999999998568,-0.016368209739438477
0.00029999999999996696,-0.016453092417430374
-0.000700000000000145,-0.01650968086942498
-0.0017000000000000348,-0.016537975095422278
-0.0027000000000001467,-0.01658041643441823
-0.0037000000000000366,-0.01666529911241013
-0.0047000000000001485,-0.016750181790402035
-0.005700000000000038,-0.016792623129397985
-0.00670000000000015,-0.016820917355395284
-0.00770000000000004,-0.016863358694391237
-0.008700000000000152,-0.016948241372383138
-0.009700000000000042,-0.01703312405037504
-0.010700000000000154,-0.017089712502369642
-0.011700000000000044,-0.017146300954364244
-0.012700000000000156,-0.017160448067362895
-0.013700000000000045,-0.0172453307453548
-0.014700000000000157,-0.0173302134233467
-0.015700000000000047,-0.017358507649344
-0.01670000000000016,-0.017400948988339954
-0.01770000000000005,-0.017443390327335904
-0.01870000000000016,-0.017514125892329157
-0.01970000000000005,-0.017613155683319705
-0.020700000000000163,-0.017641449909317007
-0.021700000000000053,-0.01769803836131161
-0.022700000000000164,-0.01772633258730891
-0.023700000000000054,-0.01781121526530081
-0.024700000000000166,-0.017896097943292714
-0.025700000000000056,-0.017924392169290013
-0.026700000000000168,-0.017966833508285963
-0.027700000000000058,-0.018009274847281917
-0.02870000000000017,-0.018065863299276518
-0.02970000000000006,-0.01816489309026707
-0.03070000000000017,-0.01820733442926302
-0.03170000000000006,-0.018235628655260322
-0.03270000000000017,-0.018292217107254923
-0.03370000000000006,-0.018362952672248176
-0.034700000000000175,-0.018447835350240076
-0.035700000000000065,-0.01851857091523333
-0.03670000000000018,-0.01853271802823198
-0.03770000000000007,-0.01858930648022658
-0.03870000000000018,-0.018660042045219833
-0.03970000000000007,-0.018730777610213082
-0.04070000000000018,-0.018801513175206338
-0.04170000000000007,-0.01882980740120364
-0.04270000000000018,-0.018886395853198238
-0.04370000000000007,-0.018957131418191494
-0.044700000000000184,-0.019027866983184743
-0.045700000000000074,-0.019070308322180696
-0.046700000000000186,-0.019126896774175294
-0.047700000000000076,-0.019141043887173945
-0.04870000000000019,-0.01922592656516585
-0.04970000000000008,-0.019310809243157753
-0.05070000000000019,-0.019367397695152354
-0.05170000000000008,-0.019395691921149656
-0.05270000000000019,-0.019438133260145606
-0.05370000000000008,-0.01950886882513886
-0.05470000000000019,-0.01959375150313076
-0.05570000000000008,-0.01963619284212671
-0.056700000000000195,-0.019664487068124008
-0.057700000000000085,-0.019721075520118612
-0.058700000000000196,-0.019763516859114563
-0.059700000000000086,-0.019890840876102416
-0.0607000000000002,-0.019919135102099715
-0.06170000000000009,-0.01997572355409432
-0.0627000000000002,-0.020018164893090266
