Potential V vs RHE, Current mA cm-2
0.4132999999999999,0.0033868188518768974
0.4122999999999999,0.0016679446225408782
0.4112999999999999,0.001229950004102663
0.4102999999999999,0.0009410659566702225
0.4092999999999999,0.0007455528550288743
0.4082999999999999,0.0005865393049240442
0.4072999999999999,0.0004413899255578915
0.4062999999999999,0.00029341112359200863
0.4052999999999999,0.00011054554097145396
0.4042999999999999,-2.3441766238763656e-05
0.4032999999999999,-9.741702010870641e-05
0.4022999999999999,-0.00023286147995778506
0.4012999999999999,-0.00034872633541673155
0.4002999999999999,-0.0004715232762450167
0.3992999999999999,-0.0006207753183807782
0.3982999999999999,-0.0006947647193637196
0.3972999999999999,-0.0007646514575770523
0.3962999999999999,-0.00090555670304361
0.3952999999999999,-0.0009921370345953504
0.3942999999999999,-0.0011065871787544316
0.39329999999999987,-0.001179161868437508
0.39229999999999987,-0.0012531512694204494
0.39129999999999987,-0.0013271406704033909
0.39029999999999987,-0.0014401761032626073
0.38929999999999987,-0.0015377911829532948
0.38829999999999987,-0.0015957943462477614
0.38729999999999987,-0.0016509680869424977
0.38629999999999987,-0.0017570714344323753
0.38529999999999986,-0.001875907183621039
0.38429999999999986,-0.001942398614714695
0.38329999999999986,-0.002004645911908757
0.38229999999999986,-0.0020654784978029537
0.38129999999999986,-0.0021489464644949908
0.38029999999999986,-0.002250805678085273
0.37929999999999986,-0.0023187118204787954
0.37829999999999986,-0.002375300272473396
0.37729999999999986,-0.002436132858367593
0.37629999999999986,-0.0024898918877624644
0.37529999999999986,-0.0026044835030515326
0.37429999999999986,-0.002663901377645864
0.37329999999999985,-0.0027303928087395206
0.37229999999999985,-0.002781322415534662
0.37129999999999985,-0.0028407402901289938
0.37029999999999985,-0.0029411847924194112
0.36929999999999985,-0.0030161644913122582
0.36829999999999985,-0.0030161644913122582
0.36729999999999985,-0.0031081207258034853
0.36629999999999985,-0.0031618797551983572
0.36529999999999985,-0.003256665412289315
0.36429999999999985,-0.003344377512880947
0.36329999999999985,-0.003364183471079057
0.36229999999999984,-0.0034193572117737934
0.36129999999999984,-0.0034900927767670454
0.36029999999999984,-0.0035749754547589473
0.35929999999999984,-0.0036556139988512546
0.35829999999999984,-0.003683908224848555
0.35729999999999984,-0.0037348378316436966
0.35629999999999984,-0.0037984998401376234
0.35529999999999984,-0.0038862119407292554
0.35429999999999984,-0.003966850484821563
0.35329999999999984,-0.003990900576919269
0.35229999999999984,-0.004029097782015624
0.35129999999999983,-0.00409558921310928
0.35029999999999983,-0.004193204292799968
0.34929999999999983,-0.0042526221673943
0.34829999999999983,-0.004293648795090386
0.34729999999999983,-0.004347407824485258
0.34629999999999983,-0.004402581565179994
0.34529999999999983,-0.004480390686672572
0.34429999999999983,-0.004545467406466362
0.3432999999999998,-0.004575176343763528
0.3422999999999998,-0.0046147882601597495
0.3412999999999998,-0.004651570753956241
0.3402999999999998,-0.004749185833646928
0.3392999999999998,-0.0048071889969413945
0.3382999999999998,-0.004821336109940045
0.3372999999999998,-0.004896315808832892
0.3362999999999998,-0.004921780612230462
0.3352999999999998,-0.005006663290222365
0.3342999999999998,-0.005057592897017506
0.3332999999999998,-0.005071740010016156
0.3322999999999998,-0.005131157884610488
0.3312999999999998,-0.005180672780105764
0.3302999999999998,-0.005266970169397532
0.3292999999999998,-0.005313655642293078
0.3282999999999998,-0.005322143910092268
0.3272999999999998,-0.005374488228187275
0.3262999999999998,-0.005397123608985115
0.3252999999999999,-0.005494738688675803
0.3242999999999999,-0.005542838872871214
0.3232999999999999,-0.005554156563270134
0.3222999999999999,-0.005610745015264736
0.3212999999999999,-0.005663089333359742
0.3202999999999999,-0.005739483743552453
0.3192999999999999,-0.005813048731145435
0.3182999999999999,-0.005828610555443951
0.3172999999999999,-0.0058866137187384175
0.3162999999999999,-0.005931884480334099
0.3152999999999999,-0.006011108313126541
0.3142999999999999,-0.006056379074722222
0.3132999999999999,-0.006073355610320603
0.3122999999999999,-0.006086088012019387
0.3112999999999999,-0.006156823577012639
0.3102999999999999,-0.006220485585506566
0.3092999999999999,-0.006286977016600223
0.3082999999999999,-0.0063025388408987386
0.3072999999999999,-0.006335077200795635
0.3062999999999999,-0.006391665652790235
0.3052999999999999,-0.006453912949984298
0.3042999999999999,-0.006493524866380518
0.3032999999999999,-0.0065246485149775485
0.3022999999999999,-0.006554357452274715
0.3012999999999999,-0.006602457636470126
0.3002999999999999,-0.006683096180562433
0.2992999999999999,-0.00671846396305906
0.2982999999999999,-0.006748172900356226
0.2972999999999999,-0.006780711260253121
0.2962999999999999,-0.006814664331449882
0.2952999999999999,-0.006903791143341379
0.2942999999999999,-0.006936329503238275
0.2932999999999999,-0.00694906190493706
0.2922999999999999,-0.006992917955232876
0.2912999999999999,-0.007008479779531391
0.2902999999999999,-0.007113168415721404
0.2892999999999999,-0.007158439177317086
0.2882999999999999,-0.007159853888616951
0.2872999999999999,-0.0072065393615124975
0.2862999999999999,-0.007247565989208582
0.2852999999999999,-0.00732820453330089
0.2842999999999999,-0.007396110675694412
0.2832999999999999,-0.0074031842321937375
0.2822999999999999,-0.0074498697050892826
0.2812999999999999,-0.007514946424883075
0.2802999999999999,-0.007554558341279296
0.2792999999999999,-0.007602658525474707
0.2782999999999999,-0.007621049772372953
0.2772999999999999,-0.0076564175548695795
0.2762999999999999,-0.0076946147599659355
0.2752999999999999,-0.007766765036259051
0.2742999999999999,-0.007814865220454463
0.2732999999999999,-0.007857306559450413
0.2722999999999999,-0.00786438011594974
0.2712999999999999,-0.00791248030014515
0.2702999999999999,-0.007963409906940291
0.2692999999999999,-0.008004436534636379
0.26829999999999987,-0.00804121902843287
0.26729999999999987,-0.008053951430131654
0.26629999999999987,-0.00809780748042747
0.26529999999999987,-0.008182690158419373
0.26429999999999987,-0.00820391082791735
0.26329999999999987,-0.008244937455613433
0.26229999999999987,-0.008256255146012354
0.26129999999999987,-0.00829728177370844
0.26029999999999986,-0.008376505606500884
0.25929999999999986,-0.008410458677697642
0.25829999999999986,-0.008445826460194268
0.25729999999999986,-0.008458558861893055
0.25629999999999986,-0.008495341355689546
0.25529999999999986,-0.00858305345628118
0.25429999999999986,-0.008625494795277128
0.25329999999999986,-0.008633983063076318
0.25229999999999986,-0.008673594979472541
0.25129999999999986,-0.008697645071570247
0.25029999999999986,-0.008772624770463092
0.24929999999999986,-0.008813651398159178
0.24829999999999985,-0.008816480820758909
0.24729999999999985,-0.008868825138853915
0.24629999999999985,-0.008904192921350541
0.24529999999999985,-0.008986246176742712
0.24429999999999985,-0.009032931649638259
0.24329999999999985,-0.009032931649638259
0.24229999999999985,-0.009066884720835021
0.24129999999999985,-0.009109326059830971
0.24029999999999985,-0.009172988068324898
0.23929999999999985,-0.009226747097719768
0.23829999999999985,-0.00924372363331815
0.23729999999999984,-0.009257870746316801
0.23629999999999984,-0.009301726796612616
0.23529999999999984,-0.009378121206805328
0.23429999999999984,-0.009423391968401008
0.23329999999999984,-0.009444612637898985
0.23229999999999984,-0.009474321575196152
0.23129999999999984,-0.009509689357692776
0.23029999999999984,-0.009571936654886837
0.22929999999999984,-0.00960871914868333
0.22829999999999984,-0.00963701337468063
0.22729999999999984,-0.009669551734577526
0.22629999999999983,-0.009695016537975098
0.22529999999999983,-0.009774240370767538
0.22429999999999983,-0.009805364019364568
0.22329999999999983,-0.00983365824536187
0.22229999999999983,-0.009832243534062004
0.22129999999999983,-0.009874684873057957
0.22029999999999983,-0.009955323417150264
0.21929999999999983,-0.009989276488347024
0.21829999999999983,-0.01000766773524527
0.21729999999999983,-0.010041620806442029
0.21629999999999983,-0.010074159166338926
0.21529999999999982,-0.010140650597432582
0.21429999999999982,-0.01017318895732948
0.21329999999999982,-0.010205727317226375
0.21229999999999982,-0.010231192120623945
0.21129999999999982,-0.010265145191820707
0.21029999999999982,-0.010334466045514093
0.20929999999999982,-0.010378322095809907
0.20829999999999982,-0.010375492673210179
0.20729999999999982,-0.010416519300906266
0.20629999999999982,-0.0104433988156037
0.20529999999999982,-0.010525452070995872
0.20429999999999982,-0.010557990430892767
0.20329999999999981,-0.01057779638909088
0.2022999999999998,-0.01061457888288737
0.2012999999999998,-0.010658434933183185
0.20029999999999992,-0.010703705694778867
0.19929999999999992,-0.010747561745074683
0.19829999999999992,-0.010763123569373199
0.19729999999999992,-0.010790003084070635
0.19629999999999992,-0.010850835669964832
0.19529999999999992,-0.010893277008960783
0.19429999999999992,-0.011003624490350255
0.19329999999999992,-0.0110220157372485
0.19229999999999992,-0.01101635689204904
0.19129999999999991,-0.011064457076244451
0.1902999999999999,-0.011121045528239054
0.1892999999999999,-0.011157828022035543
0.1882999999999999,-0.01118470753673298
0.1872999999999999,-0.011210172340130551
0.1862999999999999,-0.011262516658225558
0.1852999999999999,-0.01133042280061908
0.1842999999999999,-0.011343155202317863
0.1832999999999999,-0.011382767118714086
0.1822999999999999,-0.011408231922111656
0.1812999999999999,-0.011447843838507877
0.1802999999999999,-0.011521408826100858
0.1792999999999999,-0.011555361897297618
0.1782999999999999,-0.011568094298996405
0.1772999999999999,-0.01160912092669249
0.1762999999999999,-0.011654391688288171
0.1752999999999999,-0.01172371254198156
0.1742999999999999,-0.011770398014877104
0.1732999999999999,-0.01178313041657589
0.1722999999999999,-0.011811424642573193
0.1712999999999999,-0.011860939538068467
0.1702999999999999,-0.01192601625786226
0.1692999999999999,-0.011969872308158077
0.1682999999999999,-0.011986848843756457
0.1672999999999999,-0.012017972492353486
0.1662999999999999,-0.012053340274850112
0.1652999999999999,-0.012129734685042826
0.1642999999999999,-0.012184908425737561
0.1632999999999999,-0.012180664291837964
0.1622999999999999,-0.012214617363034726
0.1612999999999999,-0.012276864660228788
0.1602999999999999,-0.012310817731425549
0.1592999999999999,-0.012363162049520557
0.15829999999999989,-0.0123532590704215
0.15729999999999988,-0.012382968007718667
0.15629999999999988,-0.012459362417911377
0.15529999999999988,-0.012528683271604767
0.15429999999999988,-0.012576783455800175
0.15329999999999988,-0.012581027589699771
0.15229999999999988,-0.012624883639995588
0.15129999999999988,-0.012678642669390458
0.15029999999999988,-0.012743719389184251
0.14929999999999988,-0.012796063707279256
0.14829999999999988,-0.012820113799376963
0.14729999999999988,-0.012828602067176153
0.14629999999999987,-0.012886605230470619
0.14529999999999987,-0.01293470541466603
0.14429999999999987,-0.01296299964066333
0.14329999999999987,-0.012998367423159957
0.14229999999999987,-0.013045052896055504
0.14129999999999987,-0.013074761833352669
0.14029999999999987,-0.013148326820945652
0.13929999999999987,-0.013180865180842547
0.13829999999999987,-0.013213403540739443
0.13729999999999987,-0.013226135942438228
0.13629999999999987,-0.013271406704033909
0.13529999999999986,-0.013359118804625541
0.13429999999999986,-0.013383168896723247
0.13329999999999986,-0.013383168896723247
0.13229999999999986,-0.013449660327816904
0.13129999999999986,-0.01349068695551299
0.13029999999999986,-0.013565666654405837
0.12929999999999986,-0.01361376683860125
0.12829999999999986,-0.01361659626120098
0.12729999999999986,-0.01365054933239774
0.12629999999999986,-0.013691575960093825
0.12529999999999986,-0.013770799792886269
0.12429999999999986,-0.013814655843182085
0.12329999999999985,-0.013817485265781812
0.12229999999999985,-0.013859926604777764
0.12129999999999985,-0.0138868061194752
0.12029999999999985,-0.013964615240967778
0.11929999999999985,-0.014008471291263595
0.11829999999999985,-0.014031106672061432
0.11729999999999985,-0.014059400898058733
0.11629999999999985,-0.0141174040613532
0.11529999999999985,-0.014175407224647668
0.11429999999999985,-0.014231995676642267
0.11329999999999985,-0.014231995676642267
0.11229999999999984,-0.01426028990263957
0.11129999999999984,-0.014331025467632824
0.11029999999999984,-0.014387613919627423
0.10929999999999984,-0.014430055258623373
0.10829999999999984,-0.014458349484620674
0.10729999999999984,-0.014486643710617976
0.10629999999999984,-0.014529085049613928
0.10529999999999984,-0.014599820614607179
0.10429999999999984,-0.014642261953603129
0.10329999999999984,-0.014670556179600431
0.10229999999999984,-0.01469885040559773
0.10129999999999983,-0.014741291744593682
0.10029999999999983,-0.014826174422585584
0.09929999999999983,-0.014854468648582884
0.09829999999999983,-0.014882762874580187
0.09729999999999983,-0.014925204213576137
0.09629999999999983,-0.014939351326574786
0.09529999999999983,-0.01503838111756534
0.09429999999999983,-0.015080822456561293
0.09329999999999983,-0.015080822456561293
0.09229999999999983,-0.015151558021554544
0.09129999999999983,-0.015179852247551842
0.09029999999999982,-0.015250587812545097
0.08929999999999982,-0.015321323377538347
0.08829999999999982,-0.015293029151541045
0.08729999999999982,-0.015349617603535646
0.08629999999999982,-0.015377911829532949
0.08529999999999982,-0.015448647394526203
0.08429999999999982,-0.015491088733522153
0.08329999999999982,-0.015519382959519455
0.08229999999999982,-0.015547677185516754
0.08129999999999982,-0.015604265637511355
0.08029999999999982,-0.015660854089505957
0.07929999999999982,-0.015717442541500558
0.07829999999999981,-0.01573158965449921
0.07729999999999981,-0.01575988388049651
0.07629999999999981,-0.01581647233249111
0.07529999999999992,-0.015873060784485714
0.07429999999999992,-0.015929649236480315
0.07329999999999992,-0.015943796349478963
0.07229999999999992,-0.015986237688474913
0.07129999999999992,-0.016028679027470863
0.07029999999999992,-0.016099414592464115
0.06929999999999992,-0.01614185593146007
0.06829999999999992,-0.016170150157457368
0.06729999999999992,-0.01618429727045602
0.06629999999999991,-0.01624088572245062
0.06529999999999991,-0.016325768400442524
0.06429999999999991,-0.016339915513441175
0.06329999999999991,-0.01638235685243712
0.06229999999999991,-0.016410651078434424
0.06129999999999991,-0.016453092417430374
0.06029999999999991,-0.016552122208420932
0.05929999999999991,-0.01659456354741688
0.05829999999999991,-0.01662285777341418
0.05729999999999991,-0.01665115199941148
0.056299999999999906,-0.016693593338407434
0.055299999999999905,-0.016778476016399334
0.054299999999999904,-0.016820917355395284
0.0532999999999999,-0.016849211581392583
0.0522999999999999,-0.016891652920388536
0.0512999999999999,-0.01693409425938449
0.0502999999999999,-0.017018976937376393
0.0492999999999999,-0.01706141827637234
0.0482999999999999,-0.01706141827637234
0.0472999999999999,-0.017132153841365592
0.0462999999999999,-0.017160448067362895
0.045299999999999896,-0.0172453307453548
0.044299999999999895,-0.0173019191973494
0.043299999999999894,-0.0173302134233467
0.04229999999999989,-0.017358507649344
0.04129999999999989,-0.0174150961013386
0.04029999999999989,-0.017514125892329157
0.03929999999999989,-0.017556567231325104
0.03829999999999989,-0.017570714344323755
0.03729999999999989,-0.017599008570321057
0.03629999999999989,-0.01766974413531431
0.03529999999999989,-0.01772633258730891
0.034299999999999886,-0.017797068152302163
0.033299999999999885,-0.017825362378299462
0.032299999999999884,-0.01785365660429676
0.031299999999999883,-0.017924392169290013
0.030299999999999883,-0.017995127734283266
0.02929999999999988,-0.01803756907327922
0.02829999999999988,-0.018080010412275173
0.02729999999999988,-0.018108304638272472
0.02629999999999988,-0.01816489309026707
0.025299999999999878,-0.018235628655260322
0.024299999999999877,-0.018292217107254923
0.023299999999999876,-0.018320511333252226
0.022299999999999875,-0.018348805559249524
0.021299999999999875,-0.018405394011244126
0.020299999999999874,-0.01849027668923603
0.019299999999999873,-0.018546865141230634
0.018299999999999872,-0.01858930648022658
0.01729999999999987,-0.018645894932221182
0.01629999999999987,-0.018674189158218484
0.01529999999999987,-0.018773218949209036
0.014299999999999868,-0.01882980740120364
0.013299999999999867,-0.018843954514202284
0.012299999999999978,-0.018900542966196893
0.011299999999999866,-0.018942984305192843
0.010299999999999976,-0.019027866983184743
0.009299999999999864,-0.019084455435179344
0.008299999999999974,-0.019126896774175294
0.007299999999999862,-0.019169338113171244
0.006299999999999972,-0.01922592656516585
0.00529999999999986,-0.019310809243157753
0.0042999999999999705,-0.019353250582153703
0.0032999999999998586,-0.019381544808151
0.0022999999999999687,-0.019452280373144254
0.0012999999999998568,-0.01950886882513886
0.00029999999999996696,-0.019579604390132108
-0.000700000000000145,-0.01965033995512536
-0.0017000000000000348,-0.019664487068124008
-0.0027000000000001467,-0.019721075520118612
-0.0037000000000000366,-0.019777663972113214
-0.0047000000000001485,-0.019862546650105117
-0.005700000000000038,-0.019947429328097017
-0.00670000000000015,-0.019961576441095665
-0.00770000000000004,-0.02000401778009162
-0.008700000000000152,-0.02004645911908757
-0.009700000000000042,-0.020131341797079472
-0.010700000000000154,-0.020230371588070024
-0.011700000000000044,-0.020258665814067326
-0.012700000000000156,-0.020272812927065977
-0.013700000000000045,-0.020343548492059226
-0.014700000000000157,-0.02042843117005113
-0.015700000000000047,-0.020470872509047083
-0.01670000000000016,-0.020513313848043033
-0.01770000000000005,-0.020584049413036282
-0.01870000000000016,-0.020612343639033585
-0.01970000000000005,-0.020697226317025485
-0.020700000000000163,-0.02073966765602144
-0.021700000000000053,-0.02079625610801604
-0.022700000000000164,-0.020838697447011986
-0.023700000000000054,-0.020895285899006594
-0.024700000000000166,-0.020994315689997142
-0.025700000000000056,-0.021065051254990398
-0.026700000000000168,-0.021079198367989046
-0.027700000000000058,-0.021121639706984996
-0.02870000000000017,-0.0211782281589796
-0.02970000000000006,-0.0212631108369715
-0.03070000000000017,-0.021319699288966102
-0.03170000000000006,-0.021347993514963404
-0.03270000000000017,-0.021404581966958002
-0.03370000000000006,-0.021461170418952607
-0.034700000000000175,-0.02153190598394586
-0.035700000000000065,-0.021602641548939108
-0.03670000000000018,-0.02163093577493641
-0.03770000000000007,-0.021687524226931015
-0.03870000000000018,-0.021744112678925617
-0.03970000000000007,-0.021800701130920214
-0.04070000000000018,-0.02189973092191077
-0.04170000000000007,-0.021913878034909417
-0.04270000000000018,-0.02197046648690402
-0.04370000000000007,-0.022027054938898623
-0.044700000000000184,-0.022097790503891875
-0.045700000000000074,-0.022154378955886473
-0.046700000000000186,-0.022196820294882423
-0.047700000000000076,-0.022239261633878377
-0.04870000000000019,-0.02232414431187028
-0.04970000000000008,-0.02239487987686353
-0.05070000000000019,-0.022437321215859483
-0.05170000000000008,-0.022479762554855433
-0.05270000000000019,-0.022508056780852735
-0.05370000000000008,-0.022607086571843286
-0.05470000000000019,-0.02267782213683654
-0.05570000000000008,-0.02273441058883114
-0.056700000000000195,-0.02279099904082574
-0.057700000000000085,-0.022819293266823044
-0.058700000000000196,-0.022890028831816296
-0.059700000000000086,-0.022960764396809545
-0.0607000000000002,-0.0230032057358055
-0.06170000000000009,-0.023045647074801445
