Potential V vs RHE, Current mA cm-2
0.05339999999999995,-0.09915711500754042
0.05239999999999995,-0.10099623969736496
0.051399999999999946,-0.10202897894626643
0.050399999999999945,-0.10279292304819357
0.049399999999999944,-0.10354272003712203
0.04839999999999994,-0.10425007568705455
0.04739999999999994,-0.10511304957997222
0.04639999999999994,-0.10574966966491149
0.04539999999999994,-0.1064287310888467
0.04439999999999994,-0.10705120406078733
0.04339999999999994,-0.10761708858073335
0.04239999999999994,-0.10809809042268745
0.04139999999999994,-0.10863568071663617
0.040399999999999936,-0.10920156523658218
0.039399999999999935,-0.10975330264352953
0.038399999999999934,-0.11036162850247151
0.03739999999999993,-0.11094166013541619
0.03639999999999993,-0.11146510331636625
0.03539999999999993,-0.11203098783631225
0.03439999999999993,-0.11259687235625826
0.03339999999999993,-0.11306372708521374
0.03239999999999993,-0.11360131737916243
0.03139999999999993,-0.11425208457710037
0.030399999999999927,-0.11481796909704638
0.029399999999999926,-0.11527067671300319
0.028399999999999925,-0.11589314968494381
0.027399999999999924,-0.11654391688288172
0.026399999999999924,-0.11702491872483582
0.025399999999999923,-0.1176049503577805
0.024399999999999922,-0.11822742332972111
0.02339999999999992,-0.11883574918866308
0.02239999999999992,-0.11930260391761856
0.02139999999999992,-0.12008069513254432
0.020399999999999918,-0.12063243253949167
0.019399999999999917,-0.12105684592945118
0.018399999999999916,-0.12155199488440395
0.017399999999999916,-0.12211787940434997
0.016399999999999915,-0.12274035237629059
0.015399999999999914,-0.12324964844424201
0.014399999999999913,-0.12371650317319745
0.013399999999999912,-0.12436727037113537
0.012399999999999911,-0.12498974334307597
0.01139999999999991,-0.12545659807203147
0.01039999999999991,-0.12589515857498962
0.009399999999999908,-0.126404454642941
0.008399999999999908,-0.12688545648489513
0.007399999999999907,-0.12733816410085197
0.006399999999999906,-0.12787575439480064
0.005399999999999905,-0.12832846201075748
0.004399999999999904,-0.12876702251371563
0.003399999999999903,-0.12924802435566976
0.002399999999999902,-0.12975732042362115
0.0013999999999999013,-0.13022417515257662
0.00039999999999990044,-0.1307476183335267
-0.0006000000000001005,-0.1313983855314646
-0.0016000000000001013,-0.13192182871241467
-0.0026000000000001022,-0.13240283055436877
-0.003600000000000103,-0.13274236126633637
-0.004600000000000104,-0.1331950688822932
-0.005600000000000105,-0.13369021783724597
-0.006600000000000106,-0.13427024947019062
-0.007600000000000107,-0.13465222152115416
-0.008600000000000108,-0.13509078202411234
-0.009600000000000108,-0.1354586069620773
-0.01060000000000011,-0.1358688732390381
-0.01160000000000011,-0.136279139515999
-0.012600000000000111,-0.13677428847095174
-0.013600000000000112,-0.1372411431999072
-0.014600000000000113,-0.13772214504186134
-0.015600000000000114,-0.13818899977081678
-0.016600000000000115,-0.13862756027377496
-0.017600000000000116,-0.1389529438727439
-0.018600000000000116,-0.1394056514887007
-0.019600000000000117,-0.13983006487866023
-0.020600000000000118,-0.14012715425163189
-0.02160000000000012,-0.14048083207659814
-0.02260000000000012,-0.14079206856256846
-0.02360000000000012,-0.14118818772653066
-0.024600000000000122,-0.14147112998650369
-0.025600000000000123,-0.14189554337646318
-0.026600000000000124,-0.1423199567664227
-0.027600000000000124,-0.1427443701563822
-0.028600000000000125,-0.14302731241635522
-0.029600000000000126,-0.1433102546763282
-0.030600000000000127,-0.1437346680662877
-0.03160000000000013,-0.14401761032626076
-0.03260000000000013,-0.14430055258623375
-0.03360000000000013,-0.14472496597619325
-0.03460000000000002,-0.14486643710617977
-0.03560000000000002,-0.14557379275611226
-0.03660000000000002,-0.1458567350160853
-0.03760000000000002,-0.14613967727605828
-0.03860000000000002,-0.14642261953603128
-0.039600000000000024,-0.1467055617960043
-0.040600000000000025,-0.14698850405597733
-0.041600000000000026,-0.14727144631595032
-0.04260000000000003,-0.14755438857592332
-0.04360000000000003,-0.14783733083589634
-0.04460000000000003,-0.14812027309586934
-0.04560000000000003,-0.14840321535584233
-0.04660000000000003,-0.14854468648582883
-0.04760000000000003,-0.14882762874580185
-0.04860000000000003,-0.14911057100577488
-0.04960000000000003,-0.14939351326574787
-0.050600000000000034,-0.14953498439573437
-0.051600000000000035,-0.1496764555257209
-0.052600000000000036,-0.1499593977856939
-0.053600000000000037,-0.1499593977856939
-0.05460000000000004,-0.1501008689156804
-0.05560000000000004,-0.1502423400456669
-0.05660000000000004,-0.1503838111756534
-0.05760000000000004,-0.1506667534356264
-0.05860000000000004,-0.1508082245656129
-0.05960000000000004,-0.1509496956955994
-0.06060000000000004,-0.1510911668255859
-0.061600000000000044,-0.1510911668255859
-0.06260000000000004,-0.1512326379555724
-0.06360000000000005,-0.15151558021554543
-0.06460000000000005,-0.15151558021554543
-0.06560000000000005,-0.15165705134553195
-0.06660000000000005,-0.15179852247551845
-0.06760000000000005,-0.15193999360550495
-0.06860000000000005,-0.15193999360550495
-0.06960000000000005,-0.15208146473549145
-0.07060000000000005,-0.15222293586547794
-0.07160000000000005,-0.15222293586547794
-0.07260000000000005,-0.15236440699546444
-0.07360000000000005,-0.15250587812545094
-0.07460000000000006,-0.15264734925543746
-0.07560000000000006,-0.15264734925543746
-0.07660000000000006,-0.15264734925543746
-0.07760000000000006,-0.15264734925543746
-0.07860000000000006,-0.15278882038542396
-0.07960000000000006,-0.15264734925543746
-0.08060000000000006,-0.15264734925543746
-0.08160000000000006,-0.15278882038542396
-0.08260000000000006,-0.15278882038542396
-0.08360000000000006,-0.15278882038542396
-0.08460000000000006,-0.15278882038542396
-0.08560000000000006,-0.15293029151541046
-0.08660000000000007,-0.15278882038542396
-0.08760000000000007,-0.15278882038542396
-0.08860000000000007,-0.15264734925543746
-0.08960000000000007,-0.15264734925543746
-0.09060000000000007,-0.15264734925543746
-0.09160000000000007,-0.15264734925543746
-0.09260000000000007,-0.15264734925543746
-0.09360000000000007,-0.15264734925543746
-0.09460000000000007,-0.15264734925543746
-0.09560000000000007,-0.15264734925543746
-0.09660000000000007,-0.15250587812545094
-0.09760000000000008,-0.15236440699546444
-0.09860000000000008,-0.15236440699546444
-0.09960000000000008,-0.15236440699546444
-0.10060000000000008,-0.15236440699546444
-0.10160000000000008,-0.15236440699546444
-0.10260000000000008,-0.15222293586547794
-0.10360000000000008,-0.15222293586547794
-0.10460000000000008,-0.15222293586547794
-0.10560000000000008,-0.15222293586547794
-0.10660000000000008,-0.15208146473549145
-0.10760000000000008,-0.15208146473549145
-0.10860000000000009,-0.15208146473549145
-0.10960000000000009,-0.15193999360550495
-0.11060000000000009,-0.15179852247551845
-0.11160000000000009,-0.15165705134553195
-0.11260000000000009,-0.15165705134553195
-0.11360000000000009,-0.15165705134553195
-0.11460000000000009,-0.15151558021554543
-0.11560000000000009,-0.15151558021554543
-0.11660000000000009,-0.1513741090855589
-0.1176000000000001,-0.1513741090855589
-0.1186000000000001,-0.1512326379555724
-0.1196000000000001,-0.1509496956955994
-0.1206000000000001,-0.1509496956955994
-0.1216000000000001,-0.1508082245656129
-0.1226000000000001,-0.1506667534356264
-0.1236000000000001,-0.15052528230563988
-0.1246000000000001,-0.1503838111756534
-0.1256000000000001,-0.1503838111756534
-0.1266000000000001,-0.1502423400456669
-0.1276000000000001,-0.1501008689156804
-0.1286000000000001,-0.1501008689156804
-0.1296000000000001,-0.1499593977856939
-0.1306000000000001,-0.1501008689156804
-0.1316000000000001,-0.1499593977856939
-0.1326000000000001,-0.1498179266557074
-0.1336000000000001,-0.1496764555257209
-0.1346000000000001,-0.1496764555257209
-0.1356000000000001,-0.1496764555257209
-0.1366000000000001,-0.14953498439573437
-0.1376000000000001,-0.14953498439573437
-0.1386000000000001,-0.14939351326574787
-0.1396000000000001,-0.14911057100577488
-0.1406000000000001,-0.14911057100577488
-0.14160000000000011,-0.14896909987578838
-0.14260000000000012,-0.14882762874580185
-0.14360000000000012,-0.14882762874580185
-0.14460000000000012,-0.14868615761581536
-0.14560000000000012,-0.14854468648582883
-0.14660000000000012,-0.14854468648582883
-0.14760000000000012,-0.14840321535584233
-0.14860000000000012,-0.14840321535584233
-0.14960000000000012,-0.14812027309586934
-0.15060000000000012,-0.14826174422585583
-0.15160000000000012,-0.14812027309586934
-0.15260000000000012,-0.14812027309586934
-0.15360000000000013,-0.14797880196588284
-0.15460000000000013,-0.14783733083589634
-0.15560000000000013,-0.14783733083589634
-0.15660000000000013,-0.14755438857592332
-0.15760000000000013,-0.14755438857592332
-0.15860000000000013,-0.14769585970590982
-0.15960000000000002,-0.14769585970590982
-0.16060000000000002,-0.14769585970590982
-0.16160000000000002,-0.14769585970590982
-0.16260000000000002,-0.14755438857592332
-0.16360000000000002,-0.14755438857592332
-0.16460000000000002,-0.14755438857592332
-0.16560000000000002,-0.14755438857592332
-0.16660000000000003,-0.14755438857592332
-0.16760000000000003,-0.14755438857592332
-0.16860000000000003,-0.14755438857592332
-0.16960000000000003,-0.14755438857592332
-0.17060000000000003,-0.14755438857592332
-0.17160000000000003,-0.14741291744593682
-0.17260000000000003,-0.14727144631595032
-0.17360000000000003,-0.14727144631595032
-0.17460000000000003,-0.14712997518596382
-0.17560000000000003,-0.14712997518596382
-0.17660000000000003,-0.14712997518596382
-0.17760000000000004,-0.14698850405597733
-0.17860000000000004,-0.14698850405597733
-0.17960000000000004,-0.14712997518596382
-0.18060000000000004,-0.14698850405597733
-0.18160000000000004,-0.14698850405597733
-0.18260000000000004,-0.14684703292599083
-0.18360000000000004,-0.14684703292599083
-0.18460000000000004,-0.14698850405597733
-0.18560000000000004,-0.14698850405597733
-0.18660000000000004,-0.14684703292599083
-0.18760000000000004,-0.14698850405597733
-0.18860000000000005,-0.14698850405597733
-0.18960000000000005,-0.14684703292599083
-0.19060000000000005,-0.14698850405597733
-0.19160000000000005,-0.14712997518596382
-0.19260000000000005,-0.14712997518596382
-0.19360000000000005,-0.14727144631595032
-0.19460000000000005,-0.14727144631595032
-0.19560000000000005,-0.14727144631595032
-0.19660000000000005,-0.14741291744593682
-0.19760000000000005,-0.14755438857592332
-0.19860000000000005,-0.14769585970590982
-0.19960000000000006,-0.14755438857592332
-0.20060000000000006,-0.14755438857592332
-0.20160000000000006,-0.14755438857592332
-0.20260000000000006,-0.14769585970590982
-0.20360000000000006,-0.14769585970590982
-0.20460000000000006,-0.14769585970590982
-0.20560000000000006,-0.14769585970590982
-0.20660000000000006,-0.14783733083589634
-0.20760000000000006,-0.14797880196588284
-0.20860000000000006,-0.14797880196588284
-0.20960000000000006,-0.14797880196588284
-0.21060000000000006,-0.14797880196588284
-0.21160000000000007,-0.14812027309586934
-0.21260000000000007,-0.14826174422585583
-0.21360000000000007,-0.14826174422585583
-0.21460000000000007,-0.14826174422585583
-0.21560000000000007,-0.14826174422585583
-0.21660000000000007,-0.14840321535584233
-0.21760000000000007,-0.14840321535584233
-0.21860000000000007,-0.14868615761581536
-0.21960000000000007,-0.14882762874580185
-0.22060000000000007,-0.14868615761581536
-0.22160000000000007,-0.14882762874580185
-0.22260000000000008,-0.14882762874580185
-0.22360000000000008,-0.14868615761581536
-0.22460000000000008,-0.14882762874580185
-0.22560000000000008,-0.14896909987578838
-0.22660000000000008,-0.14925204213576138
-0.22760000000000008,-0.14939351326574787
-0.22860000000000008,-0.14953498439573437
-0.22960000000000008,-0.14953498439573437
-0.23060000000000008,-0.1496764555257209
-0.23160000000000008,-0.1498179266557074
-0.23260000000000008,-0.1499593977856939
-0.23360000000000009,-0.1502423400456669
-0.2346000000000001,-0.15052528230563988
-0.2356000000000001,-0.15052528230563988
-0.2366000000000001,-0.15052528230563988
-0.2376000000000001,-0.1508082245656129
-0.2386000000000001,-0.1509496956955994
-0.2396000000000001,-0.1510911668255859
-0.2406000000000001,-0.1513741090855589
-0.2416000000000001,-0.15151558021554543
-0.2426000000000001,-0.15165705134553195
-0.2436000000000001,-0.15179852247551845
-0.2446000000000001,-0.15193999360550495
-0.2456000000000001,-0.15208146473549145
-0.2466000000000001,-0.15222293586547794
-0.2476000000000001,-0.15236440699546444
-0.2486000000000001,-0.15250587812545094
-0.2496000000000001,-0.15264734925543746
-0.2506000000000001,-0.15264734925543746
-0.2516000000000001,-0.15293029151541046
-0.2526000000000001,-0.15307176264539696
-0.2536000000000001,-0.15321323377538346
-0.2546000000000001,-0.15335470490536995
-0.2556000000000001,-0.15349617603535648
-0.2566000000000001,-0.15349617603535648
-0.2576000000000001,-0.15377911829532948
-0.2586000000000001,-0.15392058942531597
-0.2596000000000001,-0.1540620605553025
-0.2606000000000001,-0.154203531685289
-0.2616000000000001,-0.15448647394526202
-0.2626000000000001,-0.15448647394526202
-0.2636000000000001,-0.15462794507524852
-0.2646000000000001,-0.15476941620523502
-0.2656000000000001,-0.15491088733522151
-0.2666000000000001,-0.155052358465208
-0.2676000000000001,-0.1551938295951945
-0.2686000000000001,-0.1551938295951945
-0.2696000000000001,-0.155335300725181
-0.2706000000000001,-0.15547677185516753
-0.2716000000000001,-0.15590118524512703
-0.2726000000000001,-0.15618412750510002
-0.2736000000000001,-0.15646706976507307
-0.2746000000000001,-0.15660854089505957
-0.2756000000000001,-0.15675001202504607
-0.2766000000000001,-0.15675001202504607
-0.2776000000000001,-0.15703295428501907
-0.2786000000000001,-0.15731589654499206
-0.2796000000000001,-0.1574573676749786
-0.2806000000000001,-0.15774030993495158
-0.28160000000000013,-0.15802325219492458
-0.28260000000000013,-0.15816472332491108
-0.28360000000000013,-0.1584476655848841
-0.2846,-0.1587306078448571
-0.2856,-0.1588720789748436
-0.2866,-0.15915502123481662
-0.2876,-0.15957943462477614
-0.2886,-0.15972090575476264
-0.2896,-0.15986237688474914
-0.2906,-0.16014531914472213
-0.2916,-0.16028679027470866
-0.2926,-0.16042826140469515
-0.2936,-0.16071120366466815
-0.29460000000000003,-0.16085267479465465
-0.29560000000000003,-0.16113561705462764
-0.29660000000000003,-0.16127708818461417
-0.29760000000000003,-0.1615600304445872
-0.29860000000000003,-0.1617015015745737
-0.29960000000000003,-0.1619844438345467
-0.30060000000000003,-0.1622673860945197
-0.30160000000000003,-0.1625503283544927
-0.30260000000000004,-0.1628332706144657
-0.30360000000000004,-0.1629747417444522
-0.30460000000000004,-0.16325768400442522
-0.30560000000000004,-0.16339915513441172
-0.30660000000000004,-0.16368209739438472
-0.30760000000000004,-0.16396503965435774
-0.30860000000000004,-0.16424798191433077
-0.30960000000000004,-0.16453092417430376
-0.31060000000000004,-0.16495533756426325
-0.31160000000000004,-0.16523827982423628
-0.31260000000000004,-0.1656626932141958
-0.31360000000000005,-0.1658041643441823
-0.31460000000000005,-0.16608710660415532
-0.31560000000000005,-0.16622857773414182
-0.31660000000000005,-0.1666529911241013
-0.31760000000000005,-0.16707740451406086
-0.31860000000000005,-0.16721887564404736
-0.31960000000000005,-0.16750181790402036
-0.32060000000000005,-0.16778476016399335
-0.32160000000000005,-0.16806770242396638
-0.32260000000000005,-0.16835064468393937
-0.32360000000000005,-0.16863358694391237
-0.32460000000000006,-0.1689165292038854
-0.32560000000000006,-0.16919947146385841
-0.32660000000000006,-0.1693409425938449
-0.32760000000000006,-0.1694824137238314
-0.32860000000000006,-0.1697653559838044
-0.32960000000000006,-0.16990682711379093
-0.33060000000000006,-0.17018976937376393
-0.33160000000000006,-0.17047271163373692
-0.33260000000000006,-0.17089712502369644
-0.33360000000000006,-0.17118006728366944
-0.33460000000000006,-0.17132153841365594
-0.33560000000000006,-0.17160448067362896
-0.33660000000000007,-0.17188742293360199
-0.33760000000000007,-0.17217036519357498
-0.33860000000000007,-0.17245330745354798
-0.33960000000000007,-0.172736249713521
-0.34060000000000007,-0.1731606631034805
-0.34160000000000007,-0.1734436053634535
-0.34260000000000007,-0.1737265476234265
-0.34360000000000007,-0.17400948988339954
-0.3446000000000001,-0.17443390327335903
-0.3456000000000001,-0.17471684553333205
-0.3466000000000001,-0.17514125892329155
-0.34759999999999996,-0.17542420118326454
-0.3486000000000001,-0.17570714344323757
-0.34959999999999997,-0.17599008570321056
-0.3506000000000001,-0.17641449909317006
-0.35159999999999997,-0.1766974413531431
-0.3526000000000001,-0.1771218547431026
-0.35359999999999997,-0.1774047970030756
-0.3546000000000001,-0.17768773926304862
-0.35559999999999997,-0.17811215265300812
-0.3566000000000001,-0.17853656604296764
-0.3576,-0.17881950830294063
-0.3586000000000001,-0.17924392169290015
-0.3596,-0.17966833508285968
-0.3606000000000001,-0.18009274847281917
-0.3616,-0.18037569073279217
-0.3626000000000001,-0.1806586329927652
-0.3636,-0.18094157525273818
-0.3646000000000001,-0.18136598864269768
-0.3656,-0.18179040203265723
-0.3666000000000001,-0.18207334429263022
-0.3676,-0.18249775768258975
-0.3686000000000001,-0.18278069994256274
-0.3696,-0.18334658446250876
-0.3706000000000001,-0.18377099785246825
-0.3716,-0.18405394011244128
-0.3726000000000001,-0.1843368823724143
-0.3736,-0.1847612957623738
-0.3746000000000001,-0.1850442380223468
-0.3756,-0.18532718028231981
-0.3766000000000001,-0.1856101225422928
-0.3776,-0.1858930648022658
-0.3786000000000001,-0.1861760070622388
-0.3796,-0.18660042045219835
-0.3806000000000001,-0.18702483384215784
-0.3816,-0.18730777610213087
-0.3826000000000001,-0.18773218949209036
-0.3836,-0.18787366062207686
-0.3846000000000001,-0.18815660288204988
-0.3856,-0.18858101627200938
-0.3866000000000001,-0.18886395853198237
-0.3876,-0.18914690079195542
-0.3886000000000001,-0.18942984305192842
-0.3896,-0.18985425644188791
-0.3906000000000001,-0.19013719870186094
-0.3916,-0.19042014096183393
-0.3926000000000001,-0.19084455435179343
-0.3936,-0.19112749661176645
-0.3946000000000001,-0.19141043887173945
-0.3956,-0.19169338113171247
-0.3966000000000001,-0.1919763233916855
-0.3976,-0.1922592656516585
-0.3986000000000001,-0.19268367904161798
-0.3996,-0.192966621301591
-0.4006000000000001,-0.1933910346915505
-0.4016,-0.1936739769515235
-0.4026000000000001,-0.19381544808151
-0.4036,-0.19409839034148305
-0.4046000000000001,-0.19423986147146954
-0.4056,-0.19466427486142904
-0.40660000000000013,-0.19494721712140206
-0.4076,-0.19523015938137506
-0.40860000000000013,-0.19551310164134805
-0.4096,-0.19579604390132105
-0.41060000000000013,-0.19607898616129407
-0.4116,-0.19636192842126707
-0.41260000000000013,-0.1965033995512536
-0.4136,-0.19678634181122662
-0.41460000000000014,-0.19692781294121312
-0.4156,-0.1970692840711996
-0.41660000000000014,-0.1974936974611591
-0.4176,-0.19777663972113213
-0.41860000000000014,-0.19791811085111863
-0.41960000000000003,-0.19820105311109162
-0.42060000000000014,-0.19820105311109162
-0.42160000000000003,-0.19848399537106462
-0.42260000000000014,-0.19876693763103764
-0.42360000000000003,-0.19919135102099716
-0.42460000000000014,-0.19947429328097016
-0.42560000000000003,-0.19989870667092968
-0.42660000000000015,-0.20004017780091618
-0.42760000000000004,-0.20032312006088918
-0.42860000000000015,-0.20046459119087567
-0.42960000000000004,-0.2007475334508487
-0.43060000000000015,-0.2010304757108217
-0.43160000000000004,-0.20131341797079472
-0.43260000000000015,-0.20159636023076774
-0.43360000000000004,-0.20187930249074074
-0.43460000000000015,-0.20216224475071373
-0.43560000000000004,-0.20244518701068673
-0.43660000000000015,-0.20258665814067325
-0.43760000000000004,-0.20286960040064628
