Apr. 19, 2025   22:58:48
Cyclic Voltammetry
File: c:/users/guazh/data/banditlqround7_x0exp590_r20/2025-04-16-exp1131\exp1131-2025-04-19t22_32_58-arkoh\exp1131_cv_sr_700mvs_efin_-2000mv.bin
Data Source:  Experiment
Instrument Model:  CHI760E
Header: CV ran at 700 mVs
Note: 

Init E (V) = -1
High E (V) = -1
Low E (V) = -2
Final E (V) = -1
Init P/N = N
Scan Rate (V/s) = 0.7
Segment = 3
Sample Interval (V) = 0.001
Quiet Time (sec) = 2
Sensitivity (A/V) = 0.01
Comp R (ohm) = 1.7

Results:

Channel 1:
Segment 1:

Segment 2:

Segment 3:

Potential/V, Current/A

-1.000, 3.239e-6
-1.001, 3.239e-6
-1.002, 6.322e-6
-1.003, 6.322e-6
-1.004, 6.322e-6
-1.005, 6.322e-6
-1.006, 3.239e-6
-1.007, 3.239e-6
-1.008, 3.239e-6
-1.009, 6.322e-6
-1.010, 6.322e-6
-1.011, 6.322e-6
-1.012, 6.322e-6
-1.013, 6.322e-6
-1.014, 6.322e-6
-1.015, 6.322e-6
-1.016, 6.322e-6
-1.017, 6.322e-6
-1.018, 6.322e-6
-1.019, 6.322e-6
-1.020, 6.322e-6
-1.021, 6.322e-6
-1.022, 6.322e-6
-1.023, 6.322e-6
-1.024, 6.322e-6
-1.025, 9.405e-6
-1.026, 6.322e-6
-1.027, 6.322e-6
-1.028, 6.322e-6
-1.029, 6.322e-6
-1.030, 6.322e-6
-1.031, 6.322e-6
-1.032, 6.322e-6
-1.033, 6.322e-6
-1.034, 9.405e-6
-1.035, 6.322e-6
-1.036, 6.322e-6
-1.037, 6.322e-6
-1.038, 6.322e-6
-1.039, 9.405e-6
-1.040, 6.322e-6
-1.041, 6.322e-6
-1.042, 6.322e-6
-1.043, 6.322e-6
-1.044, 6.322e-6
-1.045, 6.322e-6
-1.046, 6.322e-6
-1.047, 6.322e-6
-1.048, 6.322e-6
-1.049, 9.405e-6
-1.050, 9.405e-6
-1.051, 6.322e-6
-1.052, 9.405e-6
-1.053, 6.322e-6
-1.054, 6.322e-6
-1.055, 6.322e-6
-1.056, 6.322e-6
-1.057, 6.322e-6
-1.058, 9.405e-6
-1.059, 9.405e-6
-1.060, 9.405e-6
-1.061, 9.405e-6
-1.062, 6.322e-6
-1.063, 9.405e-6
-1.064, 9.405e-6
-1.065, 6.322e-6
-1.066, 9.405e-6
-1.067, 6.322e-6
-1.068, 9.405e-6
-1.069, 9.405e-6
-1.070, 9.405e-6
-1.071, 6.322e-6
-1.072, 6.322e-6
-1.073, 9.405e-6
-1.074, 9.405e-6
-1.075, 9.405e-6
-1.076, 6.322e-6
-1.077, 6.322e-6
-1.078, 6.322e-6
-1.079, 6.322e-6
-1.080, 9.405e-6
-1.081, 9.405e-6
-1.082, 6.322e-6
-1.083, 9.405e-6
-1.084, 9.405e-6
-1.085, 9.405e-6
-1.086, 9.405e-6
-1.087, 9.405e-6
-1.088, 9.405e-6
-1.089, 6.322e-6
-1.090, 9.405e-6
-1.091, 9.405e-6
-1.092, 9.405e-6
-1.093, 9.405e-6
-1.094, 9.405e-6
-1.095, 9.405e-6
-1.096, 6.322e-6
-1.097, 9.405e-6
-1.098, 9.405e-6
-1.099, 9.405e-6
-1.100, 9.405e-6
-1.101, 9.405e-6
-1.102, 9.405e-6
-1.103, 9.405e-6
-1.104, 9.405e-6
-1.105, 9.405e-6
-1.106, 9.405e-6
-1.107, 9.405e-6
-1.108, 9.405e-6
-1.109, 9.405e-6
-1.110, 9.405e-6
-1.111, 9.405e-6
-1.112, 9.405e-6
-1.113, 9.405e-6
-1.114, 9.405e-6
-1.115, 9.405e-6
-1.116, 9.405e-6
-1.117, 9.405e-6
-1.118, 9.405e-6
-1.119, 9.405e-6
-1.120, 9.405e-6
-1.121, 9.405e-6
-1.122, 9.405e-6
-1.123, 9.405e-6
-1.124, 9.405e-6
-1.125, 9.405e-6
-1.126, 9.405e-6
-1.127, 9.405e-6
-1.128, 9.405e-6
-1.129, 9.405e-6
-1.130, 9.405e-6
-1.131, 9.405e-6
-1.132, 9.405e-6
-1.133, 9.405e-6
-1.134, 9.405e-6
-1.135, 9.405e-6
-1.136, 9.405e-6
-1.137, 9.405e-6
-1.138, 9.405e-6
-1.139, 9.405e-6
-1.140, 9.405e-6
-1.141, 9.405e-6
-1.142, 1.249e-5
-1.143, 9.405e-6
-1.144, 9.405e-6
-1.145, 9.405e-6
-1.146, 9.405e-6
-1.147, 9.405e-6
-1.148, 9.405e-6
-1.149, 9.405e-6
-1.150, 9.405e-6
-1.151, 9.405e-6
-1.152, 9.405e-6
-1.153, 9.405e-6
-1.154, 9.405e-6
-1.155, 9.405e-6
-1.156, 9.405e-6
-1.157, 9.405e-6
-1.158, 9.405e-6
-1.159, 9.405e-6
-1.160, 9.405e-6
-1.161, 9.405e-6
-1.162, 9.405e-6
-1.163, 9.405e-6
-1.164, 9.405e-6
-1.165, 1.249e-5
-1.166, 9.405e-6
-1.167, 9.405e-6
-1.168, 9.405e-6
-1.169, 9.405e-6
-1.170, 9.405e-6
-1.171, 9.405e-6
-1.172, 9.405e-6
-1.173, 9.405e-6
-1.174, 1.249e-5
-1.175, 9.405e-6
-1.176, 9.405e-6
-1.177, 9.405e-6
-1.178, 9.405e-6
-1.179, 9.405e-6
-1.180, 9.405e-6
-1.181, 1.249e-5
-1.182, 9.405e-6
-1.183, 9.405e-6
-1.184, 9.405e-6
-1.185, 9.405e-6
-1.186, 9.405e-6
-1.187, 9.405e-6
-1.188, 9.405e-6
-1.189, 9.405e-6
-1.190, 9.405e-6
-1.191, 9.405e-6
-1.192, 9.405e-6
-1.193, 9.405e-6
-1.194, 9.405e-6
-1.195, 9.405e-6
-1.196, 1.249e-5
-1.197, 1.249e-5
-1.198, 1.249e-5
-1.199, 1.249e-5
-1.200, 9.405e-6
-1.201, 1.249e-5
-1.202, 9.405e-6
-1.203, 1.249e-5
-1.204, 9.405e-6
-1.205, 9.405e-6
-1.206, 1.249e-5
-1.207, 1.249e-5
-1.208, 1.249e-5
-1.209, 9.405e-6
-1.210, 1.249e-5
-1.211, 1.249e-5
-1.212, 1.249e-5
-1.213, 9.405e-6
-1.214, 9.405e-6
-1.215, 1.249e-5
-1.216, 1.249e-5
-1.217, 1.249e-5
-1.218, 9.405e-6
-1.219, 1.249e-5
-1.220, 9.405e-6
-1.221, 1.249e-5
-1.222, 1.249e-5
-1.223, 1.249e-5
-1.224, 1.249e-5
-1.225, 1.249e-5
-1.226, 1.249e-5
-1.227, 9.405e-6
-1.228, 1.249e-5
-1.229, 9.405e-6
-1.230, 9.405e-6
-1.231, 1.249e-5
-1.232, 1.249e-5
-1.233, 1.249e-5
-1.234, 1.249e-5
-1.235, 1.249e-5
-1.236, 1.249e-5
-1.237, 1.249e-5
-1.238, 1.249e-5
-1.239, 1.249e-5
-1.240, 1.249e-5
-1.241, 1.249e-5
-1.242, 1.249e-5
-1.243, 1.249e-5
-1.244, 1.249e-5
-1.245, 1.249e-5
-1.246, 1.249e-5
-1.247, 1.249e-5
-1.248, 1.249e-5
-1.249, 1.249e-5
-1.250, 1.249e-5
-1.251, 1.249e-5
-1.252, 1.249e-5
-1.253, 1.249e-5
-1.254, 1.249e-5
-1.255, 1.249e-5
-1.256, 1.249e-5
-1.257, 1.249e-5
-1.258, 1.249e-5
-1.259, 1.249e-5
-1.260, 1.249e-5
-1.261, 1.249e-5
-1.262, 1.249e-5
-1.263, 1.249e-5
-1.264, 1.249e-5
-1.265, 1.249e-5
-1.266, 1.249e-5
-1.267, 1.249e-5
-1.268, 1.249e-5
-1.269, 1.249e-5
-1.270, 1.249e-5
-1.271, 1.249e-5
-1.272, 1.249e-5
-1.273, 1.249e-5
-1.274, 1.249e-5
-1.275, 1.249e-5
-1.276, 1.249e-5
-1.277, 1.249e-5
-1.278, 1.249e-5
-1.279, 1.249e-5
-1.280, 1.249e-5
-1.281, 1.249e-5
-1.282, 1.249e-5
-1.283, 1.249e-5
-1.284, 1.249e-5
-1.285, 1.249e-5
-1.286, 1.249e-5
-1.287, 1.249e-5
-1.288, 1.249e-5
-1.289, 1.249e-5
-1.290, 1.249e-5
-1.291, 1.249e-5
-1.292, 1.249e-5
-1.293, 1.249e-5
-1.294, 1.249e-5
-1.295, 1.249e-5
-1.296, 1.249e-5
-1.297, 1.249e-5
-1.298, 1.249e-5
-1.299, 1.249e-5
-1.300, 1.249e-5
-1.301, 1.249e-5
-1.302, 1.249e-5
-1.303, 1.249e-5
-1.304, 1.249e-5
-1.305, 1.557e-5
-1.306, 1.249e-5
-1.307, 1.249e-5
-1.308, 1.249e-5
-1.309, 1.249e-5
-1.310, 1.249e-5
-1.311, 1.249e-5
-1.312, 1.249e-5
-1.313, 1.249e-5
-1.314, 1.249e-5
-1.315, 1.249e-5
-1.316, 1.557e-5
-1.317, 1.249e-5
-1.318, 1.557e-5
-1.319, 1.249e-5
-1.320, 1.249e-5
-1.321, 1.249e-5
-1.322, 1.249e-5
-1.323, 1.249e-5
-1.324, 1.249e-5
-1.325, 1.249e-5
-1.326, 1.249e-5
-1.327, 1.249e-5
-1.328, 1.249e-5
-1.329, 1.249e-5
-1.330, 1.249e-5
-1.331, 1.249e-5
-1.332, 1.557e-5
-1.333, 1.249e-5
-1.334, 1.249e-5
-1.335, 1.249e-5
-1.336, 1.249e-5
-1.337, 1.249e-5
-1.338, 1.557e-5
-1.339, 1.249e-5
-1.340, 1.249e-5
-1.341, 1.557e-5
-1.342, 1.249e-5
-1.343, 1.249e-5
-1.344, 1.249e-5
-1.345, 1.249e-5
-1.346, 1.249e-5
-1.347, 1.249e-5
-1.348, 1.249e-5
-1.349, 1.249e-5
-1.350, 1.557e-5
-1.351, 1.249e-5
-1.352, 1.557e-5
-1.353, 1.249e-5
-1.354, 1.557e-5
-1.355, 1.249e-5
-1.356, 1.249e-5
-1.357, 1.249e-5
-1.358, 1.249e-5
-1.359, 1.249e-5
-1.360, 1.249e-5
-1.361, 1.557e-5
-1.362, 1.249e-5
-1.363, 1.557e-5
-1.364, 1.557e-5
-1.365, 1.557e-5
-1.366, 1.557e-5
-1.367, 1.249e-5
-1.368, 1.249e-5
-1.369, 1.249e-5
-1.370, 1.249e-5
-1.371, 1.249e-5
-1.372, 1.557e-5
-1.373, 1.557e-5
-1.374, 1.557e-5
-1.375, 1.557e-5
-1.376, 1.557e-5
-1.377, 1.557e-5
-1.378, 1.249e-5
-1.379, 1.249e-5
-1.380, 1.249e-5
-1.381, 1.249e-5
-1.382, 1.249e-5
-1.383, 1.249e-5
-1.384, 1.557e-5
-1.385, 1.557e-5
-1.386, 1.557e-5
-1.387, 1.249e-5
-1.388, 1.557e-5
-1.389, 1.249e-5
-1.390, 1.557e-5
-1.391, 1.557e-5
-1.392, 1.249e-5
-1.393, 1.249e-5
-1.394, 1.249e-5
-1.395, 1.557e-5
-1.396, 1.557e-5
-1.397, 1.557e-5
-1.398, 1.557e-5
-1.399, 1.557e-5
-1.400, 1.557e-5
-1.401, 1.557e-5
-1.402, 1.557e-5
-1.403, 1.249e-5
-1.404, 1.557e-5
-1.405, 1.249e-5
-1.406, 1.557e-5
-1.407, 1.557e-5
-1.408, 1.557e-5
-1.409, 1.557e-5
-1.410, 1.557e-5
-1.411, 1.557e-5
-1.412, 1.249e-5
-1.413, 1.557e-5
-1.414, 1.557e-5
-1.415, 1.557e-5
-1.416, 1.557e-5
-1.417, 1.557e-5
-1.418, 1.557e-5
-1.419, 1.557e-5
-1.420, 1.557e-5
-1.421, 1.557e-5
-1.422, 1.557e-5
-1.423, 1.557e-5
-1.424, 1.557e-5
-1.425, 1.557e-5
-1.426, 1.557e-5
-1.427, 1.557e-5
-1.428, 1.557e-5
-1.429, 1.557e-5
-1.430, 1.557e-5
-1.431, 1.557e-5
-1.432, 1.557e-5
-1.433, 1.557e-5
-1.434, 1.557e-5
-1.435, 1.557e-5
-1.436, 1.557e-5
-1.437, 1.557e-5
-1.438, 1.557e-5
-1.439, 1.557e-5
-1.440, 1.557e-5
-1.441, 1.557e-5
-1.442, 1.557e-5
-1.443, 1.557e-5
-1.444, 1.557e-5
-1.445, 1.557e-5
-1.446, 1.557e-5
-1.447, 1.557e-5
-1.448, 1.557e-5
-1.449, 1.557e-5
-1.450, 1.557e-5
-1.451, 1.557e-5
-1.452, 1.557e-5
-1.453, 1.557e-5
-1.454, 1.557e-5
-1.455, 1.557e-5
-1.456, 1.557e-5
-1.457, 1.557e-5
-1.458, 1.557e-5
-1.459, 1.557e-5
-1.460, 1.557e-5
-1.461, 1.557e-5
-1.462, 1.557e-5
-1.463, 1.557e-5
-1.464, 1.557e-5
-1.465, 1.557e-5
-1.466, 1.557e-5
-1.467, 1.865e-5
-1.468, 1.557e-5
-1.469, 1.557e-5
-1.470, 1.557e-5
-1.471, 1.557e-5
-1.472, 1.557e-5
-1.473, 1.557e-5
-1.474, 1.557e-5
-1.475, 1.557e-5
-1.476, 1.865e-5
-1.477, 1.557e-5
-1.478, 1.557e-5
-1.479, 1.865e-5
-1.480, 1.865e-5
-1.481, 1.865e-5
-1.482, 1.557e-5
-1.483, 1.865e-5
-1.484, 1.557e-5
-1.485, 1.557e-5
-1.486, 1.557e-5
-1.487, 1.557e-5
-1.488, 1.557e-5
-1.489, 1.865e-5
-1.490, 1.865e-5
-1.491, 1.865e-5
-1.492, 1.865e-5
-1.493, 1.865e-5
-1.494, 1.557e-5
-1.495, 1.865e-5
-1.496, 1.557e-5
-1.497, 1.865e-5
-1.498, 1.557e-5
-1.499, 1.865e-5
-1.500, 1.865e-5
-1.501, 1.865e-5
-1.502, 1.865e-5
-1.503, 1.865e-5
-1.504, 1.865e-5
-1.505, 1.865e-5
-1.506, 1.865e-5
-1.507, 1.865e-5
-1.508, 1.865e-5
-1.509, 1.865e-5
-1.510, 1.865e-5
-1.511, 1.865e-5
-1.512, 1.865e-5
-1.513, 1.865e-5
-1.514, 1.865e-5
-1.515, 1.865e-5
-1.516, 1.865e-5
-1.517, 1.865e-5
-1.518, 1.865e-5
-1.519, 1.865e-5
-1.520, 1.865e-5
-1.521, 1.865e-5
-1.522, 1.865e-5
-1.523, 1.865e-5
-1.524, 1.865e-5
-1.525, 1.865e-5
-1.526, 2.174e-5
-1.527, 1.865e-5
-1.528, 1.865e-5
-1.529, 1.865e-5
-1.530, 1.865e-5
-1.531, 1.865e-5
-1.532, 1.865e-5
-1.533, 1.865e-5
-1.534, 1.865e-5
-1.535, 1.865e-5
-1.536, 1.865e-5
-1.537, 2.174e-5
-1.538, 2.174e-5
-1.539, 2.174e-5
-1.540, 2.174e-5
-1.541, 2.174e-5
-1.542, 2.174e-5
-1.543, 1.865e-5
-1.544, 2.174e-5
-1.545, 1.865e-5
-1.546, 1.865e-5
-1.547, 2.174e-5
-1.548, 2.174e-5
-1.549, 2.174e-5
-1.550, 2.174e-5
-1.551, 2.174e-5
-1.552, 2.174e-5
-1.553, 2.174e-5
-1.554, 2.174e-5
-1.555, 2.174e-5
-1.556, 2.174e-5
-1.557, 2.174e-5
-1.558, 2.174e-5
-1.559, 2.174e-5
-1.560, 2.174e-5
-1.561, 2.174e-5
-1.562, 2.482e-5
-1.563, 2.174e-5
-1.564, 2.174e-5
-1.565, 2.174e-5
-1.566, 2.174e-5
-1.567, 2.174e-5
-1.568, 2.174e-5
-1.569, 2.482e-5
-1.570, 2.174e-5
-1.571, 2.482e-5
-1.572, 2.482e-5
-1.573, 2.482e-5
-1.574, 2.482e-5
-1.575, 2.482e-5
-1.576, 2.482e-5
-1.577, 2.482e-5
-1.578, 2.482e-5
-1.579, 2.482e-5
-1.580, 2.482e-5
-1.581, 2.482e-5
-1.582, 2.482e-5
-1.583, 2.790e-5
-1.584, 2.482e-5
-1.585, 2.790e-5
-1.586, 2.482e-5
-1.587, 2.790e-5
-1.588, 2.482e-5
-1.589, 2.482e-5
-1.590, 2.482e-5
-1.591, 2.482e-5
-1.592, 2.790e-5
-1.593, 2.790e-5
-1.594, 2.790e-5
-1.595, 2.790e-5
-1.596, 2.790e-5
-1.597, 2.790e-5
-1.598, 2.790e-5
-1.599, 2.790e-5
-1.600, 2.790e-5
-1.601, 2.790e-5
-1.602, 2.790e-5
-1.603, 3.099e-5
-1.604, 2.790e-5
-1.605, 3.099e-5
-1.606, 3.099e-5
-1.607, 3.099e-5
-1.608, 3.099e-5
-1.609, 3.099e-5
-1.610, 3.099e-5
-1.611, 3.099e-5
-1.612, 3.407e-5
-1.613, 3.099e-5
-1.614, 3.407e-5
-1.615, 3.099e-5
-1.616, 3.407e-5
-1.617, 3.407e-5
-1.618, 3.407e-5
-1.619, 3.407e-5
-1.620, 3.407e-5
-1.621, 3.715e-5
-1.622, 3.407e-5
-1.623, 3.407e-5
-1.624, 3.407e-5
-1.625, 3.407e-5
-1.626, 3.715e-5
-1.627, 3.715e-5
-1.628, 3.715e-5
-1.629, 3.715e-5
-1.630, 3.715e-5
-1.631, 3.715e-5
-1.632, 4.024e-5
-1.633, 4.024e-5
-1.634, 3.715e-5
-1.635, 4.024e-5
-1.636, 4.024e-5
-1.637, 4.024e-5
-1.638, 4.024e-5
-1.639, 4.024e-5
-1.640, 4.332e-5
-1.641, 4.332e-5
-1.642, 4.332e-5
-1.643, 4.332e-5
-1.644, 4.332e-5
-1.645, 4.332e-5
-1.646, 4.640e-5
-1.647, 4.332e-5
-1.648, 4.640e-5
-1.649, 4.332e-5
-1.650, 4.640e-5
-1.651, 4.640e-5
-1.652, 4.949e-5
-1.653, 4.949e-5
-1.654, 4.949e-5
-1.655, 4.949e-5
-1.656, 4.949e-5
-1.657, 4.949e-5
-1.658, 5.257e-5
-1.659, 5.257e-5
-1.660, 5.257e-5
-1.661, 5.257e-5
-1.662, 5.257e-5
-1.663, 5.257e-5
-1.664, 5.565e-5
-1.665, 5.565e-5
-1.666, 5.565e-5
-1.667, 5.873e-5
-1.668, 5.873e-5
-1.669, 5.873e-5
-1.670, 5.873e-5
-1.671, 5.873e-5
-1.672, 5.873e-5
-1.673, 6.182e-5
-1.674, 6.182e-5
-1.675, 6.490e-5
-1.676, 6.490e-5
-1.677, 6.490e-5
-1.678, 6.798e-5
-1.679, 6.798e-5
-1.680, 6.798e-5
-1.681, 6.798e-5
-1.682, 7.107e-5
-1.683, 6.798e-5
-1.684, 7.107e-5
-1.685, 7.107e-5
-1.686, 7.415e-5
-1.687, 7.415e-5
-1.688, 7.723e-5
-1.689, 7.723e-5
-1.690, 8.032e-5
-1.691, 8.032e-5
-1.692, 8.032e-5
-1.693, 8.032e-5
-1.694, 8.340e-5
-1.695, 8.340e-5
-1.696, 8.340e-5
-1.697, 8.648e-5
-1.698, 8.648e-5
-1.699, 8.957e-5
-1.700, 8.957e-5
-1.701, 8.957e-5
-1.702, 9.265e-5
-1.703, 9.573e-5
-1.704, 9.573e-5
-1.705, 9.573e-5
-1.706, 9.573e-5
-1.707, 9.882e-5
-1.708, 9.882e-5
-1.709, 1.019e-4
-1.710, 1.019e-4
-1.711, 1.050e-4
-1.712, 1.081e-4
-1.713, 1.081e-4
-1.714, 1.081e-4
-1.715, 1.111e-4
-1.716, 1.111e-4
-1.717, 1.142e-4
-1.718, 1.142e-4
-1.719, 1.173e-4
-1.720, 1.173e-4
-1.721, 1.204e-4
-1.722, 1.204e-4
-1.723, 1.235e-4
-1.724, 1.266e-4
-1.725, 1.266e-4
-1.726, 1.296e-4
-1.727, 1.327e-4
-1.728, 1.327e-4
-1.729, 1.327e-4
-1.730, 1.358e-4
-1.731, 1.358e-4
-1.732, 1.389e-4
-1.733, 1.420e-4
-1.734, 1.451e-4
-1.735, 1.481e-4
-1.736, 1.481e-4
-1.737, 1.512e-4
-1.738, 1.543e-4
-1.739, 1.543e-4
-1.740, 1.574e-4
-1.741, 1.605e-4
-1.742, 1.605e-4
-1.743, 1.636e-4
-1.744, 1.666e-4
-1.745, 1.697e-4
-1.746, 1.728e-4
-1.747, 1.759e-4
-1.748, 1.790e-4
-1.749, 1.790e-4
-1.750, 1.851e-4
-1.751, 1.851e-4
-1.752, 1.882e-4
-1.753, 1.913e-4
-1.754, 1.913e-4
-1.755, 1.975e-4
-1.756, 1.975e-4
-1.757, 2.036e-4
-1.758, 2.067e-4
-1.759, 2.098e-4
-1.760, 2.129e-4
-1.761, 2.160e-4
-1.762, 2.191e-4
-1.763, 2.221e-4
-1.764, 2.252e-4
-1.765, 2.283e-4
-1.766, 2.314e-4
-1.767, 2.345e-4
-1.768, 2.406e-4
-1.769, 2.437e-4
-1.770, 2.468e-4
-1.771, 2.499e-4
-1.772, 2.561e-4
-1.773, 2.591e-4
-1.774, 2.622e-4
-1.775, 2.653e-4
-1.776, 2.715e-4
-1.777, 2.746e-4
-1.778, 2.776e-4
-1.779, 2.807e-4
-1.780, 2.869e-4
-1.781, 2.931e-4
-1.782, 2.992e-4
-1.783, 3.023e-4
-1.784, 3.085e-4
-1.785, 3.115e-4
-1.786, 3.177e-4
-1.787, 3.208e-4
-1.788, 3.270e-4
-1.789, 3.300e-4
-1.790, 3.331e-4
-1.791, 3.424e-4
-1.792, 3.485e-4
-1.793, 3.547e-4
-1.794, 3.578e-4
-1.795, 3.670e-4
-1.796, 3.732e-4
-1.797, 3.763e-4
-1.798, 3.825e-4
-1.799, 3.886e-4
-1.800, 3.948e-4
-1.801, 4.010e-4
-1.802, 4.071e-4
-1.803, 4.133e-4
-1.804, 4.195e-4
-1.805, 4.256e-4
-1.806, 4.349e-4
-1.807, 4.410e-4
-1.808, 4.472e-4
-1.809, 4.565e-4
-1.810, 4.626e-4
-1.811, 4.688e-4
-1.812, 4.750e-4
-1.813, 4.842e-4
-1.814, 4.904e-4
-1.815, 4.996e-4
-1.816, 5.089e-4
-1.817, 5.181e-4
-1.818, 5.243e-4
-1.819, 5.335e-4
-1.820, 5.428e-4
-1.821, 5.520e-4
-1.822, 5.582e-4
-1.823, 5.674e-4
-1.824, 5.767e-4
-1.825, 5.859e-4
-1.826, 5.921e-4
-1.827, 6.044e-4
-1.828, 6.137e-4
-1.829, 6.260e-4
-1.830, 6.322e-4
-1.831, 6.445e-4
-1.832, 6.569e-4
-1.833, 6.661e-4
-1.834, 6.754e-4
-1.835, 6.815e-4
-1.836, 6.939e-4
-1.837, 7.062e-4
-1.838, 7.185e-4
-1.839, 7.278e-4
-1.840, 7.401e-4
-1.841, 7.555e-4
-1.842, 7.679e-4
-1.843, 7.833e-4
-1.844, 7.925e-4
-1.845, 8.079e-4
-1.846, 8.172e-4
-1.847, 8.295e-4
-1.848, 8.418e-4
-1.849, 8.542e-4
-1.850, 8.696e-4
-1.851, 8.819e-4
-1.852, 9.004e-4
-1.853, 9.128e-4
-1.854, 9.282e-4
-1.855, 9.436e-4
-1.856, 9.590e-4
-1.857, 9.744e-4
-1.858, 9.898e-4
-1.859, 9.991e-4
-1.860, 1.014e-3
-1.861, 1.030e-3
-1.862, 1.045e-3
-1.863, 1.067e-3
-1.864, 1.092e-3
-1.865, 1.107e-3
-1.866, 1.125e-3
-1.867, 1.144e-3
-1.868, 1.162e-3
-1.869, 1.178e-3
-1.870, 1.193e-3
-1.871, 1.212e-3
-1.872, 1.227e-3
-1.873, 1.249e-3
-1.874, 1.270e-3
-1.875, 1.295e-3
-1.876, 1.314e-3
-1.877, 1.338e-3
-1.878, 1.357e-3
-1.879, 1.357e-3
-1.880, 1.378e-3
-1.881, 1.397e-3
-1.882, 1.415e-3
-1.883, 1.434e-3
-1.884, 1.455e-3
-1.885, 1.480e-3
-1.886, 1.505e-3
-1.887, 1.526e-3
-1.888, 1.554e-3
-1.889, 1.576e-3
-1.890, 1.600e-3
-1.891, 1.622e-3
-1.892, 1.647e-3
-1.893, 1.665e-3
-1.894, 1.702e-3
-1.895, 1.727e-3
-1.896, 1.754e-3
-1.897, 1.779e-3
-1.898, 1.810e-3
-1.899, 1.838e-3
-1.900, 1.869e-3
-1.901, 1.893e-3
-1.902, 1.921e-3
-1.903, 1.952e-3
-1.904, 1.980e-3
-1.905, 2.007e-3
-1.906, 2.032e-3
-1.907, 2.063e-3
-1.908, 2.091e-3
-1.909, 2.106e-3
-1.910, 2.121e-3
-1.911, 2.168e-3
-1.912, 2.201e-3
-1.913, 2.238e-3
-1.914, 2.272e-3
-1.915, 2.303e-3
-1.916, 2.334e-3
-1.917, 2.365e-3
-1.918, 2.383e-3
-1.919, 2.420e-3
-1.920, 2.467e-3
-1.921, 2.501e-3
-1.922, 2.541e-3
-1.923, 2.578e-3
-1.924, 2.615e-3
-1.925, 2.642e-3
-1.926, 2.652e-3
-1.927, 2.686e-3
-1.928, 2.723e-3
-1.929, 2.753e-3
-1.930, 2.790e-3
-1.931, 2.830e-3
-1.932, 2.883e-3
-1.933, 2.926e-3
-1.934, 2.975e-3
-1.935, 3.019e-3
-1.936, 3.065e-3
-1.937, 3.102e-3
-1.938, 3.139e-3
-1.939, 3.176e-3
-1.940, 3.222e-3
-1.941, 3.268e-3
-1.942, 3.311e-3
-1.943, 3.358e-3
-1.944, 3.401e-3
-1.945, 3.441e-3
-1.946, 3.459e-3
-1.947, 3.521e-3
-1.948, 3.573e-3
-1.949, 3.617e-3
-1.950, 3.663e-3
-1.951, 3.709e-3
-1.952, 3.755e-3
-1.953, 3.802e-3
-1.954, 3.848e-3
-1.955, 3.897e-3
-1.956, 3.953e-3
-1.957, 4.008e-3
-1.958, 4.070e-3
-1.959, 4.159e-3
-1.960, 4.212e-3
-1.961, 4.267e-3
-1.962, 4.326e-3
-1.963, 4.347e-3
-1.964, 4.409e-3
-1.965, 4.468e-3
-1.966, 4.529e-3
-1.967, 4.579e-3
-1.968, 4.643e-3
-1.969, 4.705e-3
-1.970, 4.788e-3
-1.971, 4.853e-3
-1.972, 4.918e-3
-1.973, 4.986e-3
-1.974, 5.056e-3
-1.975, 5.112e-3
-1.976, 5.174e-3
-1.977, 5.245e-3
-1.978, 5.325e-3
-1.979, 5.405e-3
-1.980, 5.488e-3
-1.981, 5.565e-3
-1.982, 5.679e-3
-1.983, 5.759e-3
-1.984, 5.846e-3
-1.985, 5.910e-3
-1.986, 5.988e-3
-1.987, 6.052e-3
-1.988, 6.132e-3
-1.989, 6.222e-3
-1.990, 6.321e-3
-1.991, 6.419e-3
-1.992, 6.521e-3
-1.993, 6.632e-3
-1.994, 6.734e-3
-1.995, 6.845e-3
-1.996, 6.953e-3
-1.997, 7.048e-3
-1.998, 7.156e-3
-1.999, 7.276e-3
-2.000, 7.356e-3
-1.999, 7.356e-3
-1.998, 7.329e-3
-1.997, 7.341e-3
-1.996, 7.350e-3
-1.995, 7.353e-3
-1.994, 7.350e-3
-1.993, 7.319e-3
-1.992, 7.307e-3
-1.991, 7.292e-3
-1.990, 7.276e-3
-1.989, 7.255e-3
-1.988, 7.230e-3
-1.987, 7.221e-3
-1.986, 7.196e-3
-1.985, 7.196e-3
-1.984, 7.202e-3
-1.983, 7.171e-3
-1.982, 7.134e-3
-1.981, 7.113e-3
-1.980, 7.091e-3
-1.979, 7.067e-3
-1.978, 7.039e-3
-1.977, 6.962e-3
-1.976, 6.937e-3
-1.975, 6.916e-3
-1.974, 6.885e-3
-1.973, 6.860e-3
-1.972, 6.823e-3
-1.971, 6.792e-3
-1.970, 6.752e-3
-1.969, 6.721e-3
-1.968, 6.687e-3
-1.967, 6.626e-3
-1.966, 6.555e-3
-1.965, 6.509e-3
-1.964, 6.481e-3
-1.963, 6.444e-3
-1.962, 6.410e-3
-1.961, 6.339e-3
-1.960, 6.299e-3
-1.959, 6.256e-3
-1.958, 6.203e-3
-1.957, 6.151e-3
-1.956, 6.099e-3
-1.955, 6.049e-3
-1.954, 5.994e-3
-1.953, 5.944e-3
-1.952, 5.910e-3
-1.951, 5.861e-3
-1.950, 5.793e-3
-1.949, 5.756e-3
-1.948, 5.716e-3
-1.947, 5.676e-3
-1.946, 5.630e-3
-1.945, 5.550e-3
-1.944, 5.497e-3
-1.943, 5.445e-3
-1.942, 5.383e-3
-1.941, 5.334e-3
-1.940, 5.288e-3
-1.939, 5.245e-3
-1.938, 5.198e-3
-1.937, 5.152e-3
-1.936, 5.115e-3
-1.935, 5.081e-3
-1.934, 5.035e-3
-1.933, 4.952e-3
-1.932, 4.899e-3
-1.931, 4.850e-3
-1.930, 4.807e-3
-1.929, 4.767e-3
-1.928, 4.717e-3
-1.927, 4.656e-3
-1.926, 4.609e-3
-1.925, 4.566e-3
-1.924, 4.529e-3
-1.923, 4.480e-3
-1.922, 4.437e-3
-1.921, 4.387e-3
-1.920, 4.338e-3
-1.919, 4.283e-3
-1.918, 4.233e-3
-1.917, 4.202e-3
-1.916, 4.162e-3
-1.915, 4.122e-3
-1.914, 4.064e-3
-1.913, 4.017e-3
-1.912, 3.980e-3
-1.911, 3.956e-3
-1.910, 3.910e-3
-1.909, 3.866e-3
-1.908, 3.789e-3
-1.907, 3.746e-3
-1.906, 3.709e-3
-1.905, 3.669e-3
-1.904, 3.632e-3
-1.903, 3.598e-3
-1.902, 3.555e-3
-1.901, 3.518e-3
-1.900, 3.484e-3
-1.899, 3.444e-3
-1.898, 3.416e-3
-1.897, 3.370e-3
-1.896, 3.321e-3
-1.895, 3.259e-3
-1.894, 3.222e-3
-1.893, 3.185e-3
-1.892, 3.151e-3
-1.891, 3.130e-3
-1.890, 3.102e-3
-1.889, 3.068e-3
-1.888, 3.012e-3
-1.887, 2.982e-3
-1.886, 2.935e-3
-1.885, 2.898e-3
-1.884, 2.858e-3
-1.883, 2.821e-3
-1.882, 2.781e-3
-1.881, 2.753e-3
-1.880, 2.723e-3
-1.879, 2.692e-3
-1.878, 2.664e-3
-1.877, 2.642e-3
-1.876, 2.612e-3
-1.875, 2.578e-3
-1.874, 2.522e-3
-1.873, 2.485e-3
-1.872, 2.451e-3
-1.871, 2.427e-3
-1.870, 2.393e-3
-1.869, 2.362e-3
-1.868, 2.340e-3
-1.867, 2.331e-3
-1.866, 2.282e-3
-1.865, 2.245e-3
-1.864, 2.217e-3
-1.863, 2.186e-3
-1.862, 2.155e-3
-1.861, 2.124e-3
-1.860, 2.100e-3
-1.859, 2.069e-3
-1.858, 2.038e-3
-1.857, 2.020e-3
-1.856, 1.986e-3
-1.855, 1.967e-3
-1.854, 1.949e-3
-1.853, 1.927e-3
-1.852, 1.899e-3
-1.851, 1.872e-3
-1.850, 1.847e-3
-1.849, 1.804e-3
-1.848, 1.779e-3
-1.847, 1.754e-3
-1.846, 1.733e-3
-1.845, 1.708e-3
-1.844, 1.690e-3
-1.843, 1.677e-3
-1.842, 1.671e-3
-1.841, 1.619e-3
-1.840, 1.597e-3
-1.839, 1.576e-3
-1.838, 1.551e-3
-1.837, 1.536e-3
-1.836, 1.508e-3
-1.835, 1.489e-3
-1.834, 1.471e-3
-1.833, 1.449e-3
-1.832, 1.431e-3
-1.831, 1.415e-3
-1.830, 1.397e-3
-1.829, 1.375e-3
-1.828, 1.360e-3
-1.827, 1.341e-3
-1.826, 1.326e-3
-1.825, 1.307e-3
-1.824, 1.286e-3
-1.823, 1.267e-3
-1.822, 1.255e-3
-1.821, 1.240e-3
-1.820, 1.212e-3
-1.819, 1.203e-3
-1.818, 1.184e-3
-1.817, 1.166e-3
-1.816, 1.147e-3
-1.815, 1.135e-3
-1.814, 1.125e-3
-1.813, 1.107e-3
-1.812, 1.092e-3
-1.811, 1.061e-3
-1.810, 1.048e-3
-1.809, 1.039e-3
-1.808, 1.030e-3
-1.807, 1.018e-3
-1.806, 9.960e-4
-1.805, 9.837e-4
-1.804, 9.683e-4
-1.803, 9.590e-4
-1.802, 9.405e-4
-1.801, 9.251e-4
-1.800, 9.097e-4
-1.799, 9.004e-4
-1.798, 8.912e-4
-1.797, 8.819e-4
-1.796, 8.696e-4
-1.795, 8.603e-4
-1.794, 8.480e-4
-1.793, 8.357e-4
-1.792, 8.233e-4
-1.791, 8.079e-4
-1.790, 7.956e-4
-1.789, 7.740e-4
-1.788, 7.648e-4
-1.787, 7.555e-4
-1.786, 7.463e-4
-1.785, 7.370e-4
-1.784, 7.309e-4
-1.783, 7.278e-4
-1.782, 7.154e-4
-1.781, 7.031e-4
-1.780, 6.908e-4
-1.779, 6.784e-4
-1.778, 6.630e-4
-1.777, 6.507e-4
-1.776, 6.445e-4
-1.775, 6.353e-4
-1.774, 6.291e-4
-1.773, 6.168e-4
-1.772, 6.075e-4
-1.771, 6.044e-4
-1.770, 5.921e-4
-1.769, 5.859e-4
-1.768, 5.736e-4
-1.767, 5.644e-4
-1.766, 5.551e-4
-1.765, 5.489e-4
-1.764, 5.397e-4
-1.763, 5.366e-4
-1.762, 5.305e-4
-1.761, 5.212e-4
-1.760, 5.120e-4
-1.759, 5.058e-4
-1.758, 4.965e-4
-1.757, 4.904e-4
-1.756, 4.811e-4
-1.755, 4.750e-4
-1.754, 4.688e-4
-1.753, 4.626e-4
-1.752, 4.565e-4
-1.751, 4.503e-4
-1.750, 4.441e-4
-1.749, 4.318e-4
-1.748, 4.225e-4
-1.747, 4.164e-4
-1.746, 4.133e-4
-1.745, 4.102e-4
-1.744, 4.040e-4
-1.743, 3.948e-4
-1.742, 3.917e-4
-1.741, 3.825e-4
-1.740, 3.794e-4
-1.739, 3.732e-4
-1.738, 3.609e-4
-1.737, 3.578e-4
-1.736, 3.547e-4
-1.735, 3.485e-4
-1.734, 3.424e-4
-1.733, 3.362e-4
-1.732, 3.270e-4
-1.731, 3.239e-4
-1.730, 3.208e-4
-1.729, 3.146e-4
-1.728, 3.115e-4
-1.727, 3.054e-4
-1.726, 3.023e-4
-1.725, 2.961e-4
-1.724, 2.900e-4
-1.723, 2.869e-4
-1.722, 2.807e-4
-1.721, 2.746e-4
-1.720, 2.715e-4
-1.719, 2.684e-4
-1.718, 2.653e-4
-1.717, 2.622e-4
-1.716, 2.561e-4
-1.715, 2.530e-4
-1.714, 2.499e-4
-1.713, 2.468e-4
-1.712, 2.406e-4
-1.711, 2.376e-4
-1.710, 2.314e-4
-1.709, 2.283e-4
-1.708, 2.252e-4
-1.707, 2.221e-4
-1.706, 2.160e-4
-1.705, 2.098e-4
-1.704, 2.098e-4
-1.703, 2.067e-4
-1.702, 2.036e-4
-1.701, 2.006e-4
-1.700, 1.975e-4
-1.699, 1.944e-4
-1.698, 1.882e-4
-1.697, 1.851e-4
-1.696, 1.851e-4
-1.695, 1.790e-4
-1.694, 1.759e-4
-1.693, 1.728e-4
-1.692, 1.728e-4
-1.691, 1.697e-4
-1.690, 1.666e-4
-1.689, 1.636e-4
-1.688, 1.605e-4
-1.687, 1.574e-4
-1.686, 1.543e-4
-1.685, 1.512e-4
-1.684, 1.481e-4
-1.683, 1.451e-4
-1.682, 1.420e-4
-1.681, 1.420e-4
-1.680, 1.389e-4
-1.679, 1.358e-4
-1.678, 1.327e-4
-1.677, 1.296e-4
-1.676, 1.266e-4
-1.675, 1.235e-4
-1.674, 1.235e-4
-1.673, 1.204e-4
-1.672, 1.204e-4
-1.671, 1.173e-4
-1.670, 1.142e-4
-1.669, 1.142e-4
-1.668, 1.111e-4
-1.667, 1.081e-4
-1.666, 1.081e-4
-1.665, 1.019e-4
-1.664, 9.882e-5
-1.663, 9.882e-5
-1.662, 9.573e-5
-1.661, 9.573e-5
-1.660, 9.573e-5
-1.659, 9.265e-5
-1.658, 8.957e-5
-1.657, 8.957e-5
-1.656, 8.957e-5
-1.655, 8.648e-5
-1.654, 8.340e-5
-1.653, 8.340e-5
-1.652, 8.032e-5
-1.651, 7.723e-5
-1.650, 7.723e-5
-1.649, 7.723e-5
-1.648, 7.415e-5
-1.647, 7.723e-5
-1.646, 7.415e-5
-1.645, 7.107e-5
-1.644, 7.107e-5
-1.643, 6.798e-5
-1.642, 6.490e-5
-1.641, 6.490e-5
-1.640, 6.182e-5
-1.639, 6.182e-5
-1.638, 5.873e-5
-1.637, 5.873e-5
-1.636, 5.873e-5
-1.635, 5.565e-5
-1.634, 5.873e-5
-1.633, 5.565e-5
-1.632, 5.565e-5
-1.631, 5.257e-5
-1.630, 5.257e-5
-1.629, 4.949e-5
-1.628, 4.949e-5
-1.627, 4.640e-5
-1.626, 4.640e-5
-1.625, 4.640e-5
-1.624, 4.640e-5
-1.623, 4.332e-5
-1.622, 4.332e-5
-1.621, 4.332e-5
-1.620, 4.332e-5
-1.619, 4.024e-5
-1.618, 4.024e-5
-1.617, 3.715e-5
-1.616, 3.715e-5
-1.615, 3.715e-5
-1.614, 3.715e-5
-1.613, 3.715e-5
-1.612, 3.407e-5
-1.611, 3.407e-5
-1.610, 3.407e-5
-1.609, 3.407e-5
-1.608, 3.099e-5
-1.607, 3.099e-5
-1.606, 3.099e-5
-1.605, 3.099e-5
-1.604, 2.790e-5
-1.603, 2.790e-5
-1.602, 2.790e-5
-1.601, 2.790e-5
-1.600, 2.790e-5
-1.599, 2.482e-5
-1.598, 2.482e-5
-1.597, 2.482e-5
-1.596, 2.482e-5
-1.595, 2.174e-5
-1.594, 2.174e-5
-1.593, 2.174e-5
-1.592, 2.174e-5
-1.591, 2.174e-5
-1.590, 1.865e-5
-1.589, 2.174e-5
-1.588, 1.865e-5
-1.587, 1.865e-5
-1.586, 1.865e-5
-1.585, 1.865e-5
-1.584, 1.865e-5
-1.583, 1.557e-5
-1.582, 1.557e-5
-1.581, 1.557e-5
-1.580, 1.557e-5
-1.579, 1.557e-5
-1.578, 1.557e-5
-1.577, 1.557e-5
-1.576, 1.249e-5
-1.575, 1.557e-5
-1.574, 1.249e-5
-1.573, 1.249e-5
-1.572, 1.249e-5
-1.571, 1.249e-5
-1.570, 9.405e-6
-1.569, 9.405e-6
-1.568, 1.249e-5
-1.567, 9.405e-6
-1.566, 9.405e-6
-1.565, 9.405e-6
-1.564, 9.405e-6
-1.563, 9.405e-6
-1.562, 9.405e-6
-1.561, 6.322e-6
-1.560, 9.405e-6
-1.559, 6.322e-6
-1.558, 6.322e-6
-1.557, 6.322e-6
-1.556, 6.322e-6
-1.555, 6.322e-6
-1.554, 6.322e-6
-1.553, 6.322e-6
-1.552, 6.322e-6
-1.551, 6.322e-6
-1.550, 6.322e-6
-1.549, 6.322e-6
-1.548, 6.322e-6
-1.547, 3.239e-6
-1.546, 3.239e-6
-1.545, 6.322e-6
-1.544, 3.239e-6
-1.543, 3.239e-6
-1.542, 3.239e-6
-1.541, 3.239e-6
-1.540, 3.239e-6
-1.539, 3.239e-6
-1.538, 3.239e-6
-1.537, 3.239e-6
-1.536, 1.559e-7
-1.535, 3.239e-6
-1.534, 3.239e-6
-1.533, 1.559e-7
-1.532, 3.239e-6
-1.531, 1.559e-7
-1.530, 3.239e-6
-1.529, 1.559e-7
-1.528, 1.559e-7
-1.527, 1.559e-7
-1.526, 1.559e-7
-1.525, 1.559e-7
-1.524, 1.559e-7
-1.523, 1.559e-7
-1.522, 1.559e-7
-1.521, 1.559e-7
-1.520, 1.559e-7
-1.519, 1.559e-7
-1.518, 1.559e-7
-1.517, 1.559e-7
-1.516, 1.559e-7
-1.515, 1.559e-7
-1.514, 1.559e-7
-1.513, 1.559e-7
-1.512, 1.559e-7
-1.511, -2.927e-6
-1.510, 1.559e-7
-1.509, 1.559e-7
-1.508, 1.559e-7
-1.507, 1.559e-7
-1.506, -2.927e-6
-1.505, 1.559e-7
-1.504, -2.927e-6
-1.503, 1.559e-7
-1.502, 1.559e-7
-1.501, -2.927e-6
-1.500, -2.927e-6
-1.499, -2.927e-6
-1.498, -2.927e-6
-1.497, -2.927e-6
-1.496, -2.927e-6
-1.495, -2.927e-6
-1.494, -2.927e-6
-1.493, -2.927e-6
-1.492, -2.927e-6
-1.491, -2.927e-6
-1.490, -2.927e-6
-1.489, -2.927e-6
-1.488, -2.927e-6
-1.487, -2.927e-6
-1.486, -2.927e-6
-1.485, -2.927e-6
-1.484, -2.927e-6
-1.483, -2.927e-6
-1.482, -2.927e-6
-1.481, -2.927e-6
-1.480, -2.927e-6
-1.479, -2.927e-6
-1.478, -2.927e-6
-1.477, -2.927e-6
-1.476, -2.927e-6
-1.475, -6.010e-6
-1.474, -2.927e-6
-1.473, -2.927e-6
-1.472, -2.927e-6
-1.471, -2.927e-6
-1.470, -2.927e-6
-1.469, -2.927e-6
-1.468, -2.927e-6
-1.467, -2.927e-6
-1.466, -6.010e-6
-1.465, -2.927e-6
-1.464, -6.010e-6
-1.463, -2.927e-6
-1.462, -2.927e-6
-1.461, -6.010e-6
-1.460, -2.927e-6
-1.459, -2.927e-6
-1.458, -2.927e-6
-1.457, -2.927e-6
-1.456, -2.927e-6
-1.455, -6.010e-6
-1.454, -6.010e-6
-1.453, -6.010e-6
-1.452, -6.010e-6
-1.451, -2.927e-6
-1.450, -6.010e-6
-1.449, -2.927e-6
-1.448, -2.927e-6
-1.447, -2.927e-6
-1.446, -6.010e-6
-1.445, -2.927e-6
-1.444, -6.010e-6
-1.443, -6.010e-6
-1.442, -6.010e-6
-1.441, -6.010e-6
-1.440, -6.010e-6
-1.439, -6.010e-6
-1.438, -2.927e-6
-1.437, -6.010e-6
-1.436, -6.010e-6
-1.435, -6.010e-6
-1.434, -2.927e-6
-1.433, -2.927e-6
-1.432, -6.010e-6
-1.431, -6.010e-6
-1.430, -6.010e-6
-1.429, -6.010e-6
-1.428, -6.010e-6
-1.427, -6.010e-6
-1.426, -6.010e-6
-1.425, -6.010e-6
-1.424, -6.010e-6
-1.423, -6.010e-6
-1.422, -2.927e-6
-1.421, -6.010e-6
-1.420, -6.010e-6
-1.419, -6.010e-6
-1.418, -6.010e-6
-1.417, -6.010e-6
-1.416, -6.010e-6
-1.415, -6.010e-6
-1.414, -6.010e-6
-1.413, -6.010e-6
-1.412, -6.010e-6
-1.411, -6.010e-6
-1.410, -6.010e-6
-1.409, -6.010e-6
-1.408, -6.010e-6
-1.407, -6.010e-6
-1.406, -6.010e-6
-1.405, -6.010e-6
-1.404, -6.010e-6
-1.403, -6.010e-6
-1.402, -6.010e-6
-1.401, -6.010e-6
-1.400, -6.010e-6
-1.399, -6.010e-6
-1.398, -6.010e-6
-1.397, -2.927e-6
-1.396, -6.010e-6
-1.395, -6.010e-6
-1.394, -6.010e-6
-1.393, -6.010e-6
-1.392, -6.010e-6
-1.391, -6.010e-6
-1.390, -6.010e-6
-1.389, -6.010e-6
-1.388, -6.010e-6
-1.387, -6.010e-6
-1.386, -6.010e-6
-1.385, -6.010e-6
-1.384, -6.010e-6
-1.383, -6.010e-6
-1.382, -6.010e-6
-1.381, -6.010e-6
-1.380, -6.010e-6
-1.379, -6.010e-6
-1.378, -6.010e-6
-1.377, -6.010e-6
-1.376, -6.010e-6
-1.375, -6.010e-6
-1.374, -6.010e-6
-1.373, -6.010e-6
-1.372, -6.010e-6
-1.371, -6.010e-6
-1.370, -6.010e-6
-1.369, -6.010e-6
-1.368, -6.010e-6
-1.367, -6.010e-6
-1.366, -6.010e-6
-1.365, -6.010e-6
-1.364, -6.010e-6
-1.363, -6.010e-6
-1.362, -6.010e-6
-1.361, -6.010e-6
-1.360, -9.093e-6
-1.359, -6.010e-6
-1.358, -6.010e-6
-1.357, -6.010e-6
-1.356, -6.010e-6
-1.355, -6.010e-6
-1.354, -6.010e-6
-1.353, -6.010e-6
-1.352, -6.010e-6
-1.351, -6.010e-6
-1.350, -6.010e-6
-1.349, -6.010e-6
-1.348, -6.010e-6
-1.347, -6.010e-6
-1.346, -6.010e-6
-1.345, -6.010e-6
-1.344, -6.010e-6
-1.343, -6.010e-6
-1.342, -6.010e-6
-1.341, -6.010e-6
-1.340, -6.010e-6
-1.339, -6.010e-6
-1.338, -6.010e-6
-1.337, -9.093e-6
-1.336, -6.010e-6
-1.335, -6.010e-6
-1.334, -6.010e-6
-1.333, -6.010e-6
-1.332, -6.010e-6
-1.331, -6.010e-6
-1.330, -6.010e-6
-1.329, -6.010e-6
-1.328, -6.010e-6
-1.327, -6.010e-6
-1.326, -6.010e-6
-1.325, -9.093e-6
-1.324, -9.093e-6
-1.323, -6.010e-6
-1.322, -6.010e-6
-1.321, -6.010e-6
-1.320, -6.010e-6
-1.319, -6.010e-6
-1.318, -6.010e-6
-1.317, -6.010e-6
-1.316, -6.010e-6
-1.315, -6.010e-6
-1.314, -9.093e-6
-1.313, -9.093e-6
-1.312, -6.010e-6
-1.311, -9.093e-6
-1.310, -6.010e-6
-1.309, -6.010e-6
-1.308, -9.093e-6
-1.307, -6.010e-6
-1.306, -9.093e-6
-1.305, -6.010e-6
-1.304, -6.010e-6
-1.303, -6.010e-6
-1.302, -6.010e-6
-1.301, -6.010e-6
-1.300, -9.093e-6
-1.299, -9.093e-6
-1.298, -6.010e-6
-1.297, -6.010e-6
-1.296, -6.010e-6
-1.295, -9.093e-6
-1.294, -6.010e-6
-1.293, -9.093e-6
-1.292, -6.010e-6
-1.291, -9.093e-6
-1.290, -9.093e-6
-1.289, -9.093e-6
-1.288, -6.010e-6
-1.287, -6.010e-6
-1.286, -6.010e-6
-1.285, -6.010e-6
-1.284, -6.010e-6
-1.283, -9.093e-6
-1.282, -6.010e-6
-1.281, -9.093e-6
-1.280, -9.093e-6
-1.279, -9.093e-6
-1.278, -9.093e-6
-1.277, -9.093e-6
-1.276, -6.010e-6
-1.275, -9.093e-6
-1.274, -6.010e-6
-1.273, -6.010e-6
-1.272, -9.093e-6
-1.271, -6.010e-6
-1.270, -9.093e-6
-1.269, -6.010e-6
-1.268, -9.093e-6
-1.267, -9.093e-6
-1.266, -9.093e-6
-1.265, -9.093e-6
-1.264, -9.093e-6
-1.263, -9.093e-6
-1.262, -6.010e-6
-1.261, -9.093e-6
-1.260, -9.093e-6
-1.259, -9.093e-6
-1.258, -9.093e-6
-1.257, -9.093e-6
-1.256, -9.093e-6
-1.255, -6.010e-6
-1.254, -9.093e-6
-1.253, -9.093e-6
-1.252, -9.093e-6
-1.251, -6.010e-6
-1.250, -9.093e-6
-1.249, -6.010e-6
-1.248, -9.093e-6
-1.247, -9.093e-6
-1.246, -6.010e-6
-1.245, -9.093e-6
-1.244, -9.093e-6
-1.243, -9.093e-6
-1.242, -9.093e-6
-1.241, -9.093e-6
-1.240, -6.010e-6
-1.239, -9.093e-6
-1.238, -6.010e-6
-1.237, -9.093e-6
-1.236, -9.093e-6
-1.235, -9.093e-6
-1.234, -9.093e-6
-1.233, -9.093e-6
-1.232, -9.093e-6
-1.231, -9.093e-6
-1.230, -9.093e-6
-1.229, -9.093e-6
-1.228, -9.093e-6
-1.227, -9.093e-6
-1.226, -9.093e-6
-1.225, -9.093e-6
-1.224, -9.093e-6
-1.223, -9.093e-6
-1.222, -9.093e-6
-1.221, -9.093e-6
-1.220, -9.093e-6
-1.219, -9.093e-6
-1.218, -9.093e-6
-1.217, -9.093e-6
-1.216, -9.093e-6
-1.215, -9.093e-6
-1.214, -9.093e-6
-1.213, -9.093e-6
-1.212, -9.093e-6
-1.211, -9.093e-6
-1.210, -9.093e-6
-1.209, -9.093e-6
-1.208, -9.093e-6
-1.207, -9.093e-6
-1.206, -9.093e-6
-1.205, -9.093e-6
-1.204, -6.010e-6
-1.203, -9.093e-6
-1.202, -6.010e-6
-1.201, -9.093e-6
-1.200, -9.093e-6
-1.199, -9.093e-6
-1.198, -9.093e-6
-1.197, -9.093e-6
-1.196, -9.093e-6
-1.195, -9.093e-6
-1.194, -9.093e-6
-1.193, -9.093e-6
-1.192, -9.093e-6
-1.191, -6.010e-6
-1.190, -9.093e-6
-1.189, -9.093e-6
-1.188, -9.093e-6
-1.187, -9.093e-6
-1.186, -9.093e-6
-1.185, -9.093e-6
-1.184, -9.093e-6
-1.183, -9.093e-6
-1.182, -9.093e-6
-1.181, -9.093e-6
-1.180, -9.093e-6
-1.179, -9.093e-6
-1.178, -9.093e-6
-1.177, -9.093e-6
-1.176, -9.093e-6
-1.175, -9.093e-6
-1.174, -9.093e-6
-1.173, -9.093e-6
-1.172, -9.093e-6
-1.171, -9.093e-6
-1.170, -6.010e-6
-1.169, -6.010e-6
-1.168, -9.093e-6
-1.167, -9.093e-6
-1.166, -9.093e-6
-1.165, -9.093e-6
-1.164, -9.093e-6
-1.163, -9.093e-6
-1.162, -9.093e-6
-1.161, -9.093e-6
-1.160, -9.093e-6
-1.159, -9.093e-6
-1.158, -9.093e-6
-1.157, -9.093e-6
-1.156, -9.093e-6
-1.155, -9.093e-6
-1.154, -9.093e-6
-1.153, -9.093e-6
-1.152, -9.093e-6
-1.151, -9.093e-6
-1.150, -9.093e-6
-1.149, -9.093e-6
-1.148, -9.093e-6
-1.147, -9.093e-6
-1.146, -9.093e-6
-1.145, -9.093e-6
-1.144, -9.093e-6
-1.143, -9.093e-6
-1.142, -9.093e-6
-1.141, -9.093e-6
-1.140, -9.093e-6
-1.139, -9.093e-6
-1.138, -9.093e-6
-1.137, -9.093e-6
-1.136, -9.093e-6
-1.135, -9.093e-6
-1.134, -9.093e-6
-1.133, -9.093e-6
-1.132, -9.093e-6
-1.131, -9.093e-6
-1.130, -9.093e-6
-1.129, -9.093e-6
-1.128, -9.093e-6
-1.127, -9.093e-6
-1.126, -9.093e-6
-1.125, -9.093e-6
-1.124, -9.093e-6
-1.123, -9.093e-6
-1.122, -9.093e-6
-1.121, -9.093e-6
-1.120, -9.093e-6
-1.119, -9.093e-6
-1.118, -9.093e-6
-1.117, -9.093e-6
-1.116, -9.093e-6
-1.115, -1.218e-5
-1.114, -9.093e-6
-1.113, -9.093e-6
-1.112, -9.093e-6
-1.111, -9.093e-6
-1.110, -9.093e-6
-1.109, -9.093e-6
-1.108, -9.093e-6
-1.107, -9.093e-6
-1.106, -9.093e-6
-1.105, -9.093e-6
-1.104, -9.093e-6
-1.103, -1.218e-5
-1.102, -9.093e-6
-1.101, -9.093e-6
-1.100, -9.093e-6
-1.099, -9.093e-6
-1.098, -9.093e-6
-1.097, -9.093e-6
-1.096, -9.093e-6
-1.095, -9.093e-6
-1.094, -9.093e-6
-1.093, -9.093e-6
-1.092, -1.218e-5
-1.091, -9.093e-6
-1.090, -9.093e-6
-1.089, -9.093e-6
-1.088, -9.093e-6
-1.087, -9.093e-6
-1.086, -9.093e-6
-1.085, -9.093e-6
-1.084, -9.093e-6
-1.083, -9.093e-6
-1.082, -9.093e-6
-1.081, -9.093e-6
-1.080, -9.093e-6
-1.079, -1.218e-5
-1.078, -9.093e-6
-1.077, -9.093e-6
-1.076, -9.093e-6
-1.075, -9.093e-6
-1.074, -9.093e-6
-1.073, -9.093e-6
-1.072, -9.093e-6
-1.071, -9.093e-6
-1.070, -1.218e-5
-1.069, -9.093e-6
-1.068, -9.093e-6
-1.067, -9.093e-6
-1.066, -9.093e-6
-1.065, -9.093e-6
-1.064, -9.093e-6
-1.063, -9.093e-6
-1.062, -9.093e-6
-1.061, -9.093e-6
-1.060, -9.093e-6
-1.059, -9.093e-6
-1.058, -9.093e-6
-1.057, -1.218e-5
-1.056, -1.218e-5
-1.055, -9.093e-6
-1.054, -9.093e-6
-1.053, -9.093e-6
-1.052, -9.093e-6
-1.051, -9.093e-6
-1.050, -9.093e-6
-1.049, -9.093e-6
-1.048, -1.218e-5
-1.047, -9.093e-6
-1.046, -1.218e-5
-1.045, -1.218e-5
-1.044, -1.218e-5
-1.043, -1.218e-5
-1.042, -9.093e-6
-1.041, -9.093e-6
-1.040, -1.218e-5
-1.039, -9.093e-6
-1.038, -9.093e-6
-1.037, -1.218e-5
-1.036, -1.218e-5
-1.035, -9.093e-6
-1.034, -1.218e-5
-1.033, -1.218e-5
-1.032, -1.218e-5
-1.031, -1.218e-5
-1.030, -9.093e-6
-1.029, -1.218e-5
-1.028, -9.093e-6
-1.027, -1.218e-5
-1.026, -1.218e-5
-1.025, -1.218e-5
-1.024, -9.093e-6
-1.023, -1.218e-5
-1.022, -1.218e-5
-1.021, -1.218e-5
-1.020, -1.218e-5
-1.019, -1.218e-5
-1.018, -9.093e-6
-1.017, -9.093e-6
-1.016, -1.218e-5
-1.015, -9.093e-6
-1.014, -1.218e-5
-1.013, -9.093e-6
-1.012, -1.218e-5
-1.011, -1.218e-5
-1.010, -1.218e-5
-1.009, -1.218e-5
-1.008, -1.218e-5
-1.007, -1.218e-5
-1.006, -1.218e-5
-1.005, -1.218e-5
-1.004, -1.218e-5
-1.003, -9.093e-6
-1.002, -1.218e-5
-1.001, -9.093e-6
