Potential V vs RHE, Current mA cm-2
0.4132999999999999,-0.004900559942732487
0.4122999999999999,-0.006748172900356226
0.4112999999999999,-0.007406013654793468
0.4102999999999999,-0.007755447345860131
0.4092999999999999,-0.00796058048434056
0.4082999999999999,-0.008119028149925446
0.4072999999999999,-0.008267572836411274
0.4062999999999999,-0.008406214543798049
0.4052999999999999,-0.008564662209382932
0.4042999999999999,-0.008635397774376184
0.4032999999999999,-0.008725939297567546
0.4022999999999999,-0.008803748419060124
0.4012999999999999,-0.008928243013448247
0.4002999999999999,-0.00901029626884042
0.3992999999999999,-0.00910649663723124
0.3982999999999999,-0.009147523264927326
0.3972999999999999,-0.009204111716921927
0.3962999999999999,-0.009301726796612616
0.3952999999999999,-0.009363974093806677
0.3942999999999999,-0.00941207427800209
0.39329999999999987,-0.009472906863896286
0.39229999999999987,-0.009496956955993991
0.39129999999999987,-0.009587498479185353
0.39029999999999987,-0.009653989910279012
0.38929999999999987,-0.009710578362273611
0.38829999999999987,-0.009744531433470371
0.38729999999999987,-0.00975443441256943
0.38629999999999987,-0.009849220069660386
0.38529999999999986,-0.009919955634653638
0.38429999999999986,-0.009949664571950801
0.38329999999999986,-0.009972299952748644
0.38229999999999986,-0.009980788220547833
0.38129999999999986,-0.010051523785541087
0.38029999999999986,-0.010133577040933258
0.37929999999999986,-0.010127918195733797
0.37829999999999986,-0.010170359534729749
0.37729999999999986,-0.010201483183326778
0.37629999999999986,-0.010265145191820707
0.37529999999999986,-0.0103302219116145
0.37429999999999986,-0.010333051334214229
0.37329999999999985,-0.010378322095809907
0.37229999999999985,-0.010413689878306535
0.37129999999999985,-0.010466034196401542
0.37029999999999985,-0.010533940338795064
0.36929999999999985,-0.010543843317894118
0.36829999999999985,-0.010557990430892767
0.36729999999999985,-0.010587699368189934
0.36629999999999985,-0.010642873108884671
0.36529999999999985,-0.010712193962578057
0.36429999999999985,-0.010716438096477652
0.36329999999999985,-0.010723511652976978
0.36229999999999984,-0.010763123569373199
0.36129999999999984,-0.010822541443967531
0.36029999999999984,-0.010896106431560512
0.35929999999999984,-0.01092864479145741
0.35829999999999984,-0.010938547770556462
0.35729999999999984,-0.010964012573954034
0.35629999999999984,-0.01101635689204904
0.35529999999999984,-0.011084263034442562
0.35429999999999984,-0.011096995436141347
0.35329999999999984,-0.011113971971739729
0.35229999999999984,-0.011115386683039593
0.35129999999999983,-0.011200269361031495
0.35029999999999983,-0.011259687235625827
0.34929999999999983,-0.011262516658225558
0.34829999999999983,-0.011302128574621777
0.34729999999999983,-0.011358717026616378
0.34629999999999983,-0.011391255386513276
0.34529999999999983,-0.01143511143680909
0.34429999999999983,-0.011457746817606931
0.3432999999999998,-0.011477552775805042
0.3422999999999998,-0.011500188156602883
0.3412999999999998,-0.011562435453796944
0.3402999999999998,-0.011630341596190467
0.3392999999999998,-0.011613365060592087
0.3382999999999998,-0.011627512173590737
0.3372999999999998,-0.011645903420488983
0.3362999999999998,-0.011698247738583988
0.3352999999999998,-0.01176049503577805
0.3342999999999998,-0.011776056860076566
0.3332999999999998,-0.011790203973075217
0.3322999999999998,-0.011807180508673597
0.3312999999999998,-0.011863768960668198
0.3302999999999998,-0.011910454433563745
0.3292999999999998,-0.011921772123962664
0.3282999999999998,-0.01194299279346064
0.3272999999999998,-0.01196562817425848
0.3262999999999998,-0.012012313647154027
0.3252999999999999,-0.012087293346046874
0.3242999999999999,-0.012097196325145929
0.3232999999999999,-0.012095781613846062
0.3222999999999999,-0.012121246417243634
0.3212999999999999,-0.012176420157938371
0.3202999999999999,-0.012223105630833916
0.3192999999999999,-0.012241496877732162
0.3182999999999999,-0.012241496877732162
0.3172999999999999,-0.012249985145531354
0.3162999999999999,-0.012326379555724064
0.3152999999999999,-0.0123532590704215
0.3142999999999999,-0.012371650317319745
0.3132999999999999,-0.01238721214161826
0.3122999999999999,-0.012412676945015832
0.3112999999999999,-0.012467850685710569
0.3102999999999999,-0.012523024426405304
0.3092999999999999,-0.01254141567330355
0.3082999999999999,-0.0125555627863022
0.3072999999999999,-0.012556977497602066
0.3062999999999999,-0.012614980660896532
0.3052999999999999,-0.01266732497899154
0.3042999999999999,-0.012664495556391809
0.3032999999999999,-0.01268996035978938
0.3022999999999999,-0.012697033916288705
0.3012999999999999,-0.012760695924782631
0.3002999999999999,-0.012839919757575072
0.2992999999999999,-0.012828602067176153
0.2982999999999999,-0.012838505046275208
0.2972999999999999,-0.012868213983572373
0.2962999999999999,-0.012964414351963197
0.2952999999999999,-0.013013929247458473
0.2942999999999999,-0.013025246937857393
0.2932999999999999,-0.013021002803957798
0.2922999999999999,-0.013037979339556178
0.2912999999999999,-0.013066273565553479
0.2902999999999999,-0.013138423841846596
0.2892999999999999,-0.013129935574047406
0.2882999999999999,-0.013135594419246865
0.2872999999999999,-0.013152570954845245
0.2862999999999999,-0.013211988829439577
0.2852999999999999,-0.01326008901363499
0.2842999999999999,-0.013292627373531886
0.2832999999999999,-0.013286968528332426
0.2822999999999999,-0.01329970093003121
0.2812999999999999,-0.013359118804625541
0.2802999999999999,-0.013404389566221224
0.2792999999999999,-0.013427024947019063
0.2782999999999999,-0.013414292545320276
0.2772999999999999,-0.013451075039116769
0.2762999999999999,-0.013514737047610694
0.2752999999999999,-0.013533128294508942
0.2742999999999999,-0.01355010483010732
0.2732999999999999,-0.013558593097906512
0.2722999999999999,-0.013564251943105973
0.2712999999999999,-0.0136562081775972
0.2702999999999999,-0.01369016124879396
0.2692999999999999,-0.013694405382693555
0.26829999999999987,-0.01371562605219153
0.26729999999999987,-0.01370147893919288
0.26629999999999987,-0.01378070277198532
0.26529999999999987,-0.013837291223979923
0.26429999999999987,-0.013830217667480599
0.26329999999999987,-0.01384153535787952
0.26229999999999987,-0.013842950069179384
0.26129999999999987,-0.013902367943773714
0.26029999999999986,-0.013964615240967778
0.25929999999999986,-0.013961785818368048
0.25829999999999986,-0.013985835910465752
0.25729999999999986,-0.014016959559062781
0.25629999999999986,-0.014083450990156442
0.25529999999999986,-0.014123062906552662
0.25429999999999986,-0.014131551174351852
0.25329999999999986,-0.014120233483952931
0.25229999999999986,-0.014140039442151042
0.25129999999999986,-0.014189554337646317
0.25029999999999986,-0.01424614278964092
0.24929999999999986,-0.01426028990263957
0.24829999999999985,-0.01426028990263957
0.24729999999999985,-0.01427443701563822
0.24629999999999985,-0.014345172580631472
0.24529999999999985,-0.014430055258623373
0.24429999999999985,-0.014430055258623373
0.24329999999999985,-0.014401761032626074
0.24229999999999985,-0.014430055258623373
0.24129999999999985,-0.014472496597619325
0.24029999999999985,-0.014514937936615275
0.23929999999999985,-0.014543232162612576
0.23829999999999985,-0.014529085049613928
0.23729999999999984,-0.014557379275611227
0.23629999999999984,-0.014642261953603129
0.23529999999999984,-0.014684703292599082
0.23429999999999984,-0.014684703292599082
0.23329999999999984,-0.014684703292599082
0.23229999999999984,-0.01469885040559773
0.23129999999999984,-0.014783733083589632
0.23029999999999984,-0.014812027309586936
0.22929999999999984,-0.014812027309586936
0.22829999999999984,-0.014826174422585584
0.22729999999999984,-0.014868615761581536
0.22629999999999983,-0.014925204213576137
0.22529999999999983,-0.014967645552572089
0.22429999999999983,-0.014953498439573438
0.22329999999999983,-0.014981792665570736
0.22229999999999983,-0.014981792665570736
0.22129999999999983,-0.01505252823056399
0.22029999999999983,-0.015109116682558592
0.21929999999999983,-0.015123263795557243
0.21829999999999983,-0.015123263795557243
0.21729999999999983,-0.015151558021554544
0.21629999999999983,-0.015193999360550494
0.21529999999999982,-0.015264734925543746
0.21429999999999982,-0.015236440699546445
0.21329999999999982,-0.015278882038542396
0.21229999999999982,-0.015349617603535646
0.21129999999999982,-0.015392058942531598
0.21029999999999982,-0.015420353168528897
0.20929999999999982,-0.015420353168528897
0.20829999999999982,-0.015406206055530251
0.20729999999999982,-0.01543450028152755
0.20629999999999982,-0.015491088733522153
0.20529999999999982,-0.015561824298515404
0.20429999999999982,-0.015561824298515404
0.20329999999999981,-0.015561824298515404
0.2022999999999998,-0.015590118524512706
0.2012999999999998,-0.015660854089505957
0.20029999999999992,-0.015703295428501907
0.19929999999999992,-0.015703295428501907
0.19829999999999992,-0.015703295428501907
0.19729999999999992,-0.01573158965449921
0.19629999999999992,-0.01580232521949246
0.19529999999999992,-0.01583061944548976
0.19429999999999992,-0.015901355010483013
0.19329999999999992,-0.015929649236480315
0.19229999999999992,-0.015901355010483013
0.19129999999999991,-0.01597209057547626
0.1902999999999999,-0.016000384801473564
0.1892999999999999,-0.016014531914472215
0.1882999999999999,-0.016042826140469518
0.1872999999999999,-0.016042826140469518
0.1862999999999999,-0.01611356170546277
0.1852999999999999,-0.01615600304445872
0.1842999999999999,-0.01615600304445872
0.1832999999999999,-0.016170150157457368
0.1822999999999999,-0.016212591496453318
0.1812999999999999,-0.016283327061446574
0.1802999999999999,-0.016325768400442524
0.1792999999999999,-0.016311621287443873
0.1782999999999999,-0.016325768400442524
0.1772999999999999,-0.016368209739438477
0.1762999999999999,-0.016424798191433075
0.1752999999999999,-0.016495533756426328
0.1742999999999999,-0.01648138664342768
0.1732999999999999,-0.01650968086942498
0.1722999999999999,-0.01652382798242363
0.1712999999999999,-0.01658041643441823
0.1702999999999999,-0.016637004886412832
0.1692999999999999,-0.01666529911241013
0.1682999999999999,-0.016679446225408782
0.1672999999999999,-0.01670774045140608
0.1662999999999999,-0.016778476016399334
0.1652999999999999,-0.01683506446839394
0.1642999999999999,-0.01683506446839394
0.1632999999999999,-0.01683506446839394
0.1622999999999999,-0.016863358694391237
0.1612999999999999,-0.01693409425938449
0.1602999999999999,-0.01697653559838044
0.1592999999999999,-0.017004829824377742
0.15829999999999989,-0.017018976937376393
0.15729999999999988,-0.017047271163373692
0.15629999999999988,-0.017118006728366945
0.15529999999999988,-0.017160448067362895
0.15429999999999988,-0.017188742293360197
0.15329999999999988,-0.017217036519357496
0.15229999999999988,-0.0172453307453548
0.15129999999999988,-0.0173019191973494
0.15029999999999988,-0.0173302134233467
0.14929999999999988,-0.017358507649344
0.14829999999999988,-0.017400948988339954
0.14729999999999988,-0.017400948988339954
0.14629999999999987,-0.017471684553333203
0.14529999999999987,-0.017514125892329157
0.14429999999999987,-0.017542420118326456
0.14329999999999987,-0.017584861457322406
0.14229999999999987,-0.017627302796318356
0.14129999999999987,-0.01768389124831296
0.14029999999999987,-0.01774047970030756
0.13929999999999987,-0.01774047970030756
0.13829999999999987,-0.017754626813306213
0.13729999999999987,-0.017782921039303512
0.13629999999999987,-0.017867803717295416
0.13529999999999986,-0.017910245056291362
0.13429999999999986,-0.017924392169290013
0.13329999999999986,-0.017938539282288665
0.13229999999999986,-0.017980980621284618
0.13129999999999986,-0.01803756907327922
0.13029999999999986,-0.018108304638272472
0.12929999999999986,-0.01812245175127112
0.12829999999999986,-0.018150745977268422
0.12729999999999986,-0.018193187316264375
0.12629999999999986,-0.018278069994256275
0.12529999999999986,-0.018348805559249524
0.12429999999999986,-0.018391246898245478
0.12329999999999985,-0.018391246898245478
0.12229999999999985,-0.018419541124242777
0.12129999999999985,-0.01847612957623738
0.12029999999999985,-0.01853271802823198
0.11929999999999985,-0.018546865141230634
0.11829999999999985,-0.01856101225422928
0.11729999999999985,-0.018617600706223883
0.11629999999999985,-0.018702483384215783
0.11529999999999985,-0.018744924723211737
0.11429999999999985,-0.018787366062207687
0.11329999999999985,-0.018787366062207687
0.11229999999999984,-0.018815660288204986
0.11129999999999984,-0.018900542966196893
0.11029999999999984,-0.01892883719219419
0.10929999999999984,-0.01897127853119014
0.10829999999999984,-0.019013719870186095
0.10729999999999984,-0.019027866983184743
0.10629999999999984,-0.019098602548177995
0.10529999999999984,-0.0191551910001726
0.10429999999999984,-0.019211779452167198
0.10329999999999984,-0.019240073678164497
0.10229999999999984,-0.019254220791163148
0.10129999999999983,-0.01933910346915505
0.10029999999999983,-0.0194098390341483
0.09929999999999983,-0.019438133260145606
0.09829999999999983,-0.019480574599141553
0.09729999999999983,-0.01950886882513886
0.09629999999999983,-0.019565457277133456
0.09529999999999983,-0.01963619284212671
0.09429999999999983,-0.01965033995512536
0.09329999999999983,-0.019664487068124008
0.09229999999999983,-0.019721075520118612
0.09129999999999983,-0.019791811085111865
0.09029999999999982,-0.019876693763103765
0.08929999999999982,-0.019890840876102416
0.08829999999999982,-0.019904987989101064
0.08729999999999982,-0.019961576441095665
0.08629999999999982,-0.02004645911908757
0.08529999999999982,-0.02011719468408082
0.08429999999999982,-0.020131341797079472
0.08329999999999982,-0.02015963602307677
0.08229999999999982,-0.020216224475071376
0.08129999999999982,-0.020301107153063276
0.08029999999999982,-0.020357695605057877
0.07929999999999982,-0.02038598983105518
0.07829999999999981,-0.020442578283049778
0.07729999999999981,-0.020470872509047083
0.07629999999999981,-0.020584049413036282
0.07529999999999992,-0.020626490752032236
0.07429999999999992,-0.020654784978029535
0.07329999999999992,-0.020683079204026837
0.07229999999999992,-0.02073966765602144
0.07129999999999992,-0.020824550334013342
0.07029999999999992,-0.02088113878600794
0.06929999999999992,-0.020909433012005242
0.06829999999999992,-0.020951874351001196
0.06729999999999992,-0.020966021463999843
0.06629999999999991,-0.021107492593986348
0.06529999999999991,-0.021164081045980946
0.06429999999999991,-0.02119237527197825
0.06329999999999991,-0.02124896372397285
0.06229999999999991,-0.0212631108369715
0.06129999999999991,-0.021376287740960703
0.06029999999999991,-0.021447023305953956
0.05929999999999991,-0.021461170418952607
0.05829999999999991,-0.02150361175794856
0.05729999999999991,-0.021546053096944507
0.056299999999999906,-0.021645082887935062
0.055299999999999905,-0.021729965565926962
0.054299999999999904,-0.021744112678925617
0.0532999999999999,-0.021800701130920214
0.0522999999999999,-0.021843142469916164
0.0512999999999999,-0.021928025147908068
0.0502999999999999,-0.022012907825899968
0.0492999999999999,-0.022027054938898623
0.0482999999999999,-0.02208364339089322
0.0472999999999999,-0.022140231842887825
0.0462999999999999,-0.022239261633878377
0.045299999999999896,-0.02232414431187028
0.044299999999999895,-0.02238073276386488
0.043299999999999894,-0.02242317410286083
0.04229999999999989,-0.022493909667854084
0.04129999999999989,-0.022564645232847336
0.04029999999999989,-0.02267782213683654
0.03929999999999989,-0.022691969249835187
0.03829999999999989,-0.02272026347583249
0.03729999999999989,-0.02276270481482844
0.03629999999999989,-0.02287588171881764
0.03529999999999989,-0.022932470170812246
0.034299999999999886,-0.022974911509808196
0.033299999999999885,-0.023017352848804146
0.032299999999999884,-0.023073941300798748
0.031299999999999883,-0.02318711820478795
0.030299999999999883,-0.023257853769781203
0.02929999999999988,-0.023300295108777156
0.02829999999999988,-0.023342736447773106
0.02729999999999988,-0.023399324899767704
0.02629999999999988,-0.023512501803756906
0.025299999999999878,-0.02356909025575151
0.024299999999999877,-0.023611531594747465
0.023299999999999876,-0.023668120046742062
0.022299999999999875,-0.023753002724733966
0.021299999999999875,-0.02385203251572452
0.020299999999999874,-0.02392276808071777
0.019299999999999873,-0.02393691519371642
0.018299999999999872,-0.02400765075870967
0.01729999999999987,-0.024092533436701577
0.01629999999999987,-0.024163269001694826
0.01529999999999987,-0.02426229879268538
0.014299999999999868,-0.02429059301868268
0.013299999999999867,-0.02434718147067728
0.012299999999999978,-0.024417917035670533
0.011299999999999866,-0.02453109393965974
0.010299999999999976,-0.024601829504652988
0.009299999999999864,-0.024644270843648942
0.008299999999999974,-0.024700859295643543
0.007299999999999862,-0.02475744774763814
0.006299999999999972,-0.024856477538628696
0.00529999999999986,-0.024955507329619247
0.0042999999999999705,-0.024983801555616546
0.0032999999999998586,-0.0250262428946125
0.0022999999999999687,-0.0251111255726044
0.0012999999999998568,-0.025238449589592253
0.00029999999999996696,-0.025309185154585506
-0.000700000000000145,-0.025365773606580107
-0.0017000000000000348,-0.02540821494557606
-0.0027000000000001467,-0.02547895051056931
-0.0037000000000000366,-0.025592127414558512
-0.0047000000000001485,-0.025662862979551764
-0.005700000000000038,-0.025747745657543668
-0.00670000000000015,-0.02577603988354097
-0.00770000000000004,-0.025846775448534223
-0.008700000000000152,-0.025974099465522073
-0.009700000000000042,-0.026044835030515325
-0.010700000000000154,-0.02612971770850723
-0.011700000000000044,-0.02620045327350048
-0.012700000000000156,-0.02624289461249643
-0.013700000000000045,-0.026356071516485634
-0.014700000000000157,-0.026440954194477534
-0.015700000000000047,-0.026469248420474833
-0.01670000000000016,-0.02655413109846674
-0.01770000000000005,-0.02662486666345999
-0.01870000000000016,-0.026723896454450544
-0.01970000000000005,-0.026837073358439746
-0.020700000000000163,-0.026865367584437045
-0.021700000000000053,-0.02692195603643165
-0.022700000000000164,-0.026978544488426247
-0.023700000000000054,-0.027105868505414105
-0.024700000000000166,-0.027190751183406005
-0.025700000000000056,-0.027247339635400606
-0.026700000000000168,-0.02730392808739521
-0.027700000000000058,-0.02738881076538711
-0.02870000000000017,-0.027473693443379014
-0.02970000000000006,-0.02755857612137091
-0.03070000000000017,-0.027615164573365516
-0.03170000000000006,-0.027657605912361466
-0.03270000000000017,-0.02774248859035337
-0.03370000000000006,-0.027841518381343924
-0.034700000000000175,-0.027940548172334476
-0.035700000000000065,-0.028011283737327728
-0.03670000000000018,-0.02806787218932233
-0.03770000000000007,-0.02813860775431558
-0.03870000000000018,-0.028237637545306133
-0.03970000000000007,-0.028322520223298033
-0.04070000000000018,-0.028379108675292634
-0.04170000000000007,-0.028435697127287232
-0.04270000000000018,-0.02852057980527914
-0.04370000000000007,-0.028633756709268345
-0.044700000000000184,-0.028704492274261594
-0.045700000000000074,-0.028761080726256192
-0.046700000000000186,-0.028789374952253494
-0.047700000000000076,-0.028874257630245398
-0.04870000000000019,-0.028987434534234607
-0.04970000000000008,-0.0290723172122265
-0.05070000000000019,-0.029114758551222454
-0.05170000000000008,-0.029171347003217055
-0.05270000000000019,-0.029242082568210308
-0.05370000000000008,-0.029369406585198165
-0.05470000000000019,-0.029440142150191414
-0.05570000000000008,-0.029482583489187364
-0.056700000000000195,-0.029525024828183317
-0.057700000000000085,-0.02959576039317657
-0.058700000000000196,-0.02970893729716577
-0.059700000000000086,-0.02982211420115497
-0.0607000000000002,-0.029850408427152274
-0.06170000000000009,-0.029906996879146875
-0.0627000000000002,-0.029991879557138775
-0.06370000000000009,-0.03007676223513068
