Aug. 7, 2024   23:25:15
Cyclic Voltammetry
File: c:/users/guazh/data/20240802_batch_500/2024-08-02-exp49\exp49-2024-08-07t23_07_24-h2koh\exp49_cv_sr_50mvs_efin_-1800mv.bin
Data Source:  Experiment
Instrument Model:  CHI760E
Header: CV ran at 50 mVs
Note: 

Init E (V) = -1
High E (V) = -1
Low E (V) = -1.8
Final E (V) = -1
Init P/N = N
Scan Rate (V/s) = 0.05
Segment = 3
Sample Interval (V) = 0.001
Quiet Time (sec) = 2
Sensitivity (A/V) = 0.01
Comp R (ohm) = 2.3

Results:

Channel 1:
Segment 1:

Segment 2:

Segment 3:

Potential/V, Current/A

-1.000, -1.107e-6
-1.001, -8.800e-7
-1.002, -7.814e-7
-1.003, -7.321e-7
-1.004, -5.249e-7
-1.005, -3.078e-7
-1.006, -3.078e-7
-1.007, -4.361e-7
-1.008, -3.275e-7
-1.009, -2.190e-7
-1.010, -5.130e-8
-1.011, 1.776e-8
-1.012, -1.993e-7
-1.013, -6.117e-8
-1.014, 1.657e-7
-1.015, 2.348e-7
-1.016, 1.657e-7
-1.017, 1.362e-7
-1.018, 9.669e-8
-1.019, 3.335e-7
-1.020, 3.828e-7
-1.021, 2.743e-7
-1.022, 3.631e-7
-1.023, 2.940e-7
-1.024, 4.913e-7
-1.025, 6.788e-7
-1.026, 5.801e-7
-1.027, 5.998e-7
-1.028, 5.604e-7
-1.029, 7.084e-7
-1.030, 8.268e-7
-1.031, 7.478e-7
-1.032, 6.689e-7
-1.033, 6.097e-7
-1.034, 7.380e-7
-1.035, 8.958e-7
-1.036, 7.478e-7
-1.037, 7.577e-7
-1.038, 8.070e-7
-1.039, 1.014e-6
-1.040, 1.093e-6
-1.041, 9.057e-7
-1.042, 8.564e-7
-1.043, 7.972e-7
-1.044, 1.024e-6
-1.045, 1.064e-6
-1.046, 1.014e-6
-1.047, 1.054e-6
-1.048, 9.550e-7
-1.049, 9.846e-7
-1.050, 1.330e-6
-1.051, 1.212e-6
-1.052, 1.034e-6
-1.053, 1.054e-6
-1.054, 1.182e-6
-1.055, 1.281e-6
-1.056, 1.212e-6
-1.057, 1.123e-6
-1.058, 1.093e-6
-1.059, 1.212e-6
-1.060, 1.340e-6
-1.061, 1.221e-6
-1.062, 1.192e-6
-1.063, 1.182e-6
-1.064, 1.320e-6
-1.065, 1.478e-6
-1.066, 1.300e-6
-1.067, 1.310e-6
-1.068, 1.261e-6
-1.069, 1.360e-6
-1.070, 1.498e-6
-1.071, 1.290e-6
-1.072, 1.369e-6
-1.073, 1.271e-6
-1.074, 1.379e-6
-1.075, 1.586e-6
-1.076, 1.478e-6
-1.077, 1.458e-6
-1.078, 1.369e-6
-1.079, 1.557e-6
-1.080, 1.656e-6
-1.081, 1.557e-6
-1.082, 1.557e-6
-1.083, 1.419e-6
-1.084, 1.478e-6
-1.085, 1.675e-6
-1.086, 1.567e-6
-1.087, 1.498e-6
-1.088, 1.458e-6
-1.089, 1.567e-6
-1.090, 1.705e-6
-1.091, 1.705e-6
-1.092, 1.616e-6
-1.093, 1.517e-6
-1.094, 1.616e-6
-1.095, 1.754e-6
-1.096, 1.606e-6
-1.097, 1.567e-6
-1.098, 1.517e-6
-1.099, 1.646e-6
-1.100, 1.754e-6
-1.101, 1.695e-6
-1.102, 1.606e-6
-1.103, 1.616e-6
-1.104, 1.744e-6
-1.105, 1.882e-6
-1.106, 1.764e-6
-1.107, 1.695e-6
-1.108, 1.695e-6
-1.109, 1.754e-6
-1.110, 1.853e-6
-1.111, 1.784e-6
-1.112, 1.675e-6
-1.113, 1.715e-6
-1.114, 1.803e-6
-1.115, 1.902e-6
-1.116, 1.813e-6
-1.117, 1.754e-6
-1.118, 1.636e-6
-1.119, 1.784e-6
-1.120, 1.932e-6
-1.121, 1.863e-6
-1.122, 1.813e-6
-1.123, 1.675e-6
-1.124, 1.784e-6
-1.125, 1.971e-6
-1.126, 1.961e-6
-1.127, 1.833e-6
-1.128, 1.725e-6
-1.129, 1.912e-6
-1.130, 1.961e-6
-1.131, 1.912e-6
-1.132, 1.803e-6
-1.133, 1.853e-6
-1.134, 1.873e-6
-1.135, 2.011e-6
-1.136, 1.991e-6
-1.137, 1.843e-6
-1.138, 1.803e-6
-1.139, 1.942e-6
-1.140, 2.109e-6
-1.141, 1.971e-6
-1.142, 1.863e-6
-1.143, 1.853e-6
-1.144, 1.882e-6
-1.145, 2.060e-6
-1.146, 2.060e-6
-1.147, 1.843e-6
-1.148, 1.833e-6
-1.149, 1.991e-6
-1.150, 1.971e-6
-1.151, 1.942e-6
-1.152, 1.882e-6
-1.153, 1.882e-6
-1.154, 2.070e-6
-1.155, 1.991e-6
-1.156, 2.070e-6
-1.157, 1.922e-6
-1.158, 1.922e-6
-1.159, 1.991e-6
-1.160, 2.109e-6
-1.161, 1.971e-6
-1.162, 1.932e-6
-1.163, 1.942e-6
-1.164, 1.902e-6
-1.165, 2.198e-6
-1.166, 2.129e-6
-1.167, 2.001e-6
-1.168, 1.932e-6
-1.169, 1.971e-6
-1.170, 2.178e-6
-1.171, 2.040e-6
-1.172, 1.961e-6
-1.173, 1.961e-6
-1.174, 2.030e-6
-1.175, 2.159e-6
-1.176, 2.011e-6
-1.177, 2.011e-6
-1.178, 1.991e-6
-1.179, 2.119e-6
-1.180, 2.267e-6
-1.181, 2.159e-6
-1.182, 2.001e-6
-1.183, 1.971e-6
-1.184, 2.129e-6
-1.185, 2.247e-6
-1.186, 2.169e-6
-1.187, 2.178e-6
-1.188, 2.090e-6
-1.189, 2.188e-6
-1.190, 2.277e-6
-1.191, 2.169e-6
-1.192, 2.129e-6
-1.193, 2.060e-6
-1.194, 2.169e-6
-1.195, 2.247e-6
-1.196, 2.099e-6
-1.197, 2.099e-6
-1.198, 2.070e-6
-1.199, 2.218e-6
-1.200, 2.247e-6
-1.201, 2.169e-6
-1.202, 2.080e-6
-1.203, 2.090e-6
-1.204, 2.178e-6
-1.205, 2.247e-6
-1.206, 2.218e-6
-1.207, 2.119e-6
-1.208, 2.208e-6
-1.209, 2.208e-6
-1.210, 2.376e-6
-1.211, 2.198e-6
-1.212, 2.188e-6
-1.213, 2.247e-6
-1.214, 2.178e-6
-1.215, 2.307e-6
-1.216, 2.297e-6
-1.217, 2.198e-6
-1.218, 2.198e-6
-1.219, 2.188e-6
-1.220, 2.366e-6
-1.221, 2.208e-6
-1.222, 2.178e-6
-1.223, 2.169e-6
-1.224, 2.277e-6
-1.225, 2.366e-6
-1.226, 2.287e-6
-1.227, 2.198e-6
-1.228, 2.169e-6
-1.229, 2.356e-6
-1.230, 2.435e-6
-1.231, 2.465e-6
-1.232, 2.514e-6
-1.233, 2.435e-6
-1.234, 2.366e-6
-1.235, 2.524e-6
-1.236, 2.405e-6
-1.237, 2.317e-6
-1.238, 2.346e-6
-1.239, 2.326e-6
-1.240, 2.524e-6
-1.241, 2.445e-6
-1.242, 2.425e-6
-1.243, 2.287e-6
-1.244, 2.405e-6
-1.245, 2.573e-6
-1.246, 2.376e-6
-1.247, 2.376e-6
-1.248, 2.425e-6
-1.249, 2.484e-6
-1.250, 2.583e-6
-1.251, 2.445e-6
-1.252, 2.455e-6
-1.253, 2.336e-6
-1.254, 2.395e-6
-1.255, 2.682e-6
-1.256, 2.553e-6
-1.257, 2.435e-6
-1.258, 2.395e-6
-1.259, 2.494e-6
-1.260, 2.770e-6
-1.261, 2.632e-6
-1.262, 2.465e-6
-1.263, 2.435e-6
-1.264, 2.543e-6
-1.265, 2.632e-6
-1.266, 2.662e-6
-1.267, 2.642e-6
-1.268, 2.563e-6
-1.269, 2.642e-6
-1.270, 2.751e-6
-1.271, 2.701e-6
-1.272, 2.573e-6
-1.273, 2.622e-6
-1.274, 2.711e-6
-1.275, 2.790e-6
-1.276, 2.632e-6
-1.277, 2.672e-6
-1.278, 2.691e-6
-1.279, 2.632e-6
-1.280, 2.908e-6
-1.281, 2.790e-6
-1.282, 2.800e-6
-1.283, 2.691e-6
-1.284, 2.751e-6
-1.285, 2.978e-6
-1.286, 2.731e-6
-1.287, 2.701e-6
-1.288, 2.731e-6
-1.289, 2.879e-6
-1.290, 2.869e-6
-1.291, 2.790e-6
-1.292, 2.790e-6
-1.293, 2.790e-6
-1.294, 2.839e-6
-1.295, 2.899e-6
-1.296, 2.839e-6
-1.297, 2.869e-6
-1.298, 2.701e-6
-1.299, 2.859e-6
-1.300, 2.978e-6
-1.301, 2.908e-6
-1.302, 2.958e-6
-1.303, 2.879e-6
-1.304, 2.899e-6
-1.305, 3.017e-6
-1.306, 2.997e-6
-1.307, 2.958e-6
-1.308, 2.918e-6
-1.309, 3.027e-6
-1.310, 3.047e-6
-1.311, 3.027e-6
-1.312, 2.938e-6
-1.313, 2.938e-6
-1.314, 2.948e-6
-1.315, 3.076e-6
-1.316, 3.056e-6
-1.317, 2.938e-6
-1.318, 2.997e-6
-1.319, 3.145e-6
-1.320, 3.274e-6
-1.321, 3.096e-6
-1.322, 3.145e-6
-1.323, 3.106e-6
-1.324, 3.155e-6
-1.325, 3.303e-6
-1.326, 3.116e-6
-1.327, 3.185e-6
-1.328, 3.086e-6
-1.329, 3.204e-6
-1.330, 3.283e-6
-1.331, 3.244e-6
-1.332, 3.254e-6
-1.333, 3.234e-6
-1.334, 3.323e-6
-1.335, 3.412e-6
-1.336, 3.362e-6
-1.337, 3.303e-6
-1.338, 3.224e-6
-1.339, 3.254e-6
-1.340, 3.392e-6
-1.341, 3.530e-6
-1.342, 3.422e-6
-1.343, 3.293e-6
-1.344, 3.372e-6
-1.345, 3.422e-6
-1.346, 3.530e-6
-1.347, 3.412e-6
-1.348, 3.500e-6
-1.349, 3.441e-6
-1.350, 3.639e-6
-1.351, 3.639e-6
-1.352, 3.599e-6
-1.353, 3.422e-6
-1.354, 3.579e-6
-1.355, 3.767e-6
-1.356, 3.629e-6
-1.357, 3.639e-6
-1.358, 3.698e-6
-1.359, 3.688e-6
-1.360, 3.865e-6
-1.361, 3.836e-6
-1.362, 3.708e-6
-1.363, 3.826e-6
-1.364, 3.796e-6
-1.365, 3.994e-6
-1.366, 3.964e-6
-1.367, 3.826e-6
-1.368, 3.915e-6
-1.369, 3.935e-6
-1.370, 4.112e-6
-1.371, 4.083e-6
-1.372, 3.964e-6
-1.373, 4.023e-6
-1.374, 4.112e-6
-1.375, 4.221e-6
-1.376, 4.181e-6
-1.377, 4.152e-6
-1.378, 4.201e-6
-1.379, 4.191e-6
-1.380, 4.418e-6
-1.381, 4.398e-6
-1.382, 4.250e-6
-1.383, 4.300e-6
-1.384, 4.369e-6
-1.385, 4.605e-6
-1.386, 4.526e-6
-1.387, 4.517e-6
-1.388, 4.556e-6
-1.389, 4.625e-6
-1.390, 4.842e-6
-1.391, 4.734e-6
-1.392, 4.684e-6
-1.393, 4.684e-6
-1.394, 4.842e-6
-1.395, 4.862e-6
-1.396, 4.970e-6
-1.397, 4.961e-6
-1.398, 4.921e-6
-1.399, 4.990e-6
-1.400, 5.207e-6
-1.401, 5.247e-6
-1.402, 5.118e-6
-1.403, 5.148e-6
-1.404, 5.326e-6
-1.405, 5.424e-6
-1.406, 5.454e-6
-1.407, 5.395e-6
-1.408, 5.533e-6
-1.409, 5.533e-6
-1.410, 5.839e-6
-1.411, 5.760e-6
-1.412, 5.760e-6
-1.413, 5.779e-6
-1.414, 5.849e-6
-1.415, 6.105e-6
-1.416, 6.075e-6
-1.417, 6.006e-6
-1.418, 6.214e-6
-1.419, 6.233e-6
-1.420, 6.440e-6
-1.421, 6.569e-6
-1.422, 6.431e-6
-1.423, 6.519e-6
-1.424, 6.707e-6
-1.425, 6.884e-6
-1.426, 6.884e-6
-1.427, 6.825e-6
-1.428, 7.003e-6
-1.429, 7.072e-6
-1.430, 7.230e-6
-1.431, 7.358e-6
-1.432, 7.220e-6
-1.433, 7.437e-6
-1.434, 7.753e-6
-1.435, 7.930e-6
-1.436, 8.068e-6
-1.437, 8.009e-6
-1.438, 8.059e-6
-1.439, 8.197e-6
-1.440, 8.483e-6
-1.441, 8.591e-6
-1.442, 8.522e-6
-1.443, 8.749e-6
-1.444, 8.759e-6
-1.445, 9.065e-6
-1.446, 9.242e-6
-1.447, 9.242e-6
-1.448, 9.440e-6
-1.449, 9.647e-6
-1.450, 9.834e-6
-1.451, 9.973e-6
-1.452, 9.992e-6
-1.453, 1.029e-5
-1.454, 1.039e-5
-1.455, 1.072e-5
-1.456, 1.078e-5
-1.457, 1.088e-5
-1.458, 1.103e-5
-1.459, 1.136e-5
-1.460, 1.161e-5
-1.461, 1.184e-5
-1.462, 1.192e-5
-1.463, 1.203e-5
-1.464, 1.237e-5
-1.465, 1.261e-5
-1.466, 1.289e-5
-1.467, 1.291e-5
-1.468, 1.312e-5
-1.469, 1.341e-5
-1.470, 1.381e-5
-1.471, 1.400e-5
-1.472, 1.424e-5
-1.473, 1.450e-5
-1.474, 1.463e-5
-1.475, 1.513e-5
-1.476, 1.537e-5
-1.477, 1.557e-5
-1.478, 1.572e-5
-1.479, 1.618e-5
-1.480, 1.645e-5
-1.481, 1.681e-5
-1.482, 1.701e-5
-1.483, 1.732e-5
-1.484, 1.766e-5
-1.485, 1.822e-5
-1.486, 1.855e-5
-1.487, 1.878e-5
-1.488, 1.914e-5
-1.489, 1.953e-5
-1.490, 1.997e-5
-1.491, 2.031e-5
-1.492, 2.058e-5
-1.493, 2.108e-5
-1.494, 2.146e-5
-1.495, 2.196e-5
-1.496, 2.241e-5
-1.497, 2.280e-5
-1.498, 2.330e-5
-1.499, 2.375e-5
-1.500, 2.424e-5
-1.501, 2.477e-5
-1.502, 2.505e-5
-1.503, 2.565e-5
-1.504, 2.613e-5
-1.505, 2.681e-5
-1.506, 2.728e-5
-1.507, 2.767e-5
-1.508, 2.826e-5
-1.509, 2.879e-5
-1.510, 2.953e-5
-1.511, 3.015e-5
-1.512, 3.060e-5
-1.513, 3.120e-5
-1.514, 3.187e-5
-1.515, 3.272e-5
-1.516, 3.330e-5
-1.517, 3.389e-5
-1.518, 3.445e-5
-1.519, 3.521e-5
-1.520, 3.607e-5
-1.521, 3.683e-5
-1.522, 3.738e-5
-1.523, 3.814e-5
-1.524, 3.904e-5
-1.525, 3.996e-5
-1.526, 4.069e-5
-1.527, 4.138e-5
-1.528, 4.220e-5
-1.529, 4.304e-5
-1.530, 4.422e-5
-1.531, 4.506e-5
-1.532, 4.584e-5
-1.533, 4.680e-5
-1.534, 4.782e-5
-1.535, 4.893e-5
-1.536, 4.994e-5
-1.537, 5.095e-5
-1.538, 5.196e-5
-1.539, 5.306e-5
-1.540, 5.433e-5
-1.541, 5.549e-5
-1.542, 5.654e-5
-1.543, 5.774e-5
-1.544, 5.888e-5
-1.545, 6.025e-5
-1.546, 6.169e-5
-1.547, 6.288e-5
-1.548, 6.420e-5
-1.549, 6.564e-5
-1.550, 6.713e-5
-1.551, 6.861e-5
-1.552, 7.000e-5
-1.553, 7.143e-5
-1.554, 7.300e-5
-1.555, 7.479e-5
-1.556, 7.648e-5
-1.557, 7.799e-5
-1.558, 7.974e-5
-1.559, 8.150e-5
-1.560, 8.344e-5
-1.561, 8.546e-5
-1.562, 8.724e-5
-1.563, 8.914e-5
-1.564, 9.121e-5
-1.565, 9.327e-5
-1.566, 9.552e-5
-1.567, 9.763e-5
-1.568, 9.970e-5
-1.569, 1.022e-4
-1.570, 1.046e-4
-1.571, 1.071e-4
-1.572, 1.095e-4
-1.573, 1.119e-4
-1.574, 1.145e-4
-1.575, 1.175e-4
-1.576, 1.203e-4
-1.577, 1.229e-4
-1.578, 1.258e-4
-1.579, 1.288e-4
-1.580, 1.321e-4
-1.581, 1.354e-4
-1.582, 1.385e-4
-1.583, 1.417e-4
-1.584, 1.452e-4
-1.585, 1.490e-4
-1.586, 1.527e-4
-1.587, 1.565e-4
-1.588, 1.602e-4
-1.589, 1.640e-4
-1.590, 1.682e-4
-1.591, 1.724e-4
-1.592, 1.767e-4
-1.593, 1.809e-4
-1.594, 1.854e-4
-1.595, 1.902e-4
-1.596, 1.950e-4
-1.597, 1.998e-4
-1.598, 2.046e-4
-1.599, 2.096e-4
-1.600, 2.151e-4
-1.601, 2.203e-4
-1.602, 2.257e-4
-1.603, 2.311e-4
-1.604, 2.369e-4
-1.605, 2.428e-4
-1.606, 2.489e-4
-1.607, 2.550e-4
-1.608, 2.611e-4
-1.609, 2.675e-4
-1.610, 2.743e-4
-1.611, 2.810e-4
-1.612, 2.880e-4
-1.613, 2.948e-4
-1.614, 3.018e-4
-1.615, 3.092e-4
-1.616, 3.168e-4
-1.617, 3.244e-4
-1.618, 3.318e-4
-1.619, 3.397e-4
-1.620, 3.482e-4
-1.621, 3.566e-4
-1.622, 3.648e-4
-1.623, 3.733e-4
-1.624, 3.818e-4
-1.625, 3.912e-4
-1.626, 4.002e-4
-1.627, 4.094e-4
-1.628, 4.187e-4
-1.629, 4.282e-4
-1.630, 4.382e-4
-1.631, 4.486e-4
-1.632, 4.589e-4
-1.633, 4.692e-4
-1.634, 4.794e-4
-1.635, 4.905e-4
-1.636, 5.022e-4
-1.637, 5.139e-4
-1.638, 5.255e-4
-1.639, 5.375e-4
-1.640, 5.500e-4
-1.641, 5.628e-4
-1.642, 5.754e-4
-1.643, 5.878e-4
-1.644, 6.010e-4
-1.645, 6.147e-4
-1.646, 6.284e-4
-1.647, 6.422e-4
-1.648, 6.565e-4
-1.649, 6.714e-4
-1.650, 6.865e-4
-1.651, 7.018e-4
-1.652, 7.171e-4
-1.653, 7.329e-4
-1.654, 7.489e-4
-1.655, 7.650e-4
-1.656, 7.822e-4
-1.657, 8.000e-4
-1.658, 8.178e-4
-1.659, 8.351e-4
-1.660, 8.533e-4
-1.661, 8.721e-4
-1.662, 8.911e-4
-1.663, 9.095e-4
-1.664, 9.284e-4
-1.665, 9.496e-4
-1.666, 9.707e-4
-1.667, 9.912e-4
-1.668, 1.012e-3
-1.669, 1.033e-3
-1.670, 1.055e-3
-1.671, 1.076e-3
-1.672, 1.099e-3
-1.673, 1.122e-3
-1.674, 1.146e-3
-1.675, 1.170e-3
-1.676, 1.193e-3
-1.677, 1.217e-3
-1.678, 1.243e-3
-1.679, 1.268e-3
-1.680, 1.293e-3
-1.681, 1.321e-3
-1.682, 1.349e-3
-1.683, 1.376e-3
-1.684, 1.402e-3
-1.685, 1.431e-3
-1.686, 1.462e-3
-1.687, 1.491e-3
-1.688, 1.520e-3
-1.689, 1.551e-3
-1.690, 1.583e-3
-1.691, 1.613e-3
-1.692, 1.644e-3
-1.693, 1.677e-3
-1.694, 1.711e-3
-1.695, 1.742e-3
-1.696, 1.774e-3
-1.697, 1.809e-3
-1.698, 1.846e-3
-1.699, 1.881e-3
-1.700, 1.915e-3
-1.701, 1.952e-3
-1.702, 1.991e-3
-1.703, 2.028e-3
-1.704, 2.065e-3
-1.705, 2.104e-3
-1.706, 2.145e-3
-1.707, 2.184e-3
-1.708, 2.223e-3
-1.709, 2.264e-3
-1.710, 2.309e-3
-1.711, 2.352e-3
-1.712, 2.393e-3
-1.713, 2.434e-3
-1.714, 2.480e-3
-1.715, 2.526e-3
-1.716, 2.568e-3
-1.717, 2.611e-3
-1.718, 2.659e-3
-1.719, 2.709e-3
-1.720, 2.755e-3
-1.721, 2.798e-3
-1.722, 2.848e-3
-1.723, 2.900e-3
-1.724, 2.947e-3
-1.725, 2.992e-3
-1.726, 3.045e-3
-1.727, 3.101e-3
-1.728, 3.153e-3
-1.729, 3.200e-3
-1.730, 3.253e-3
-1.731, 3.311e-3
-1.732, 3.365e-3
-1.733, 3.413e-3
-1.734, 3.466e-3
-1.735, 3.527e-3
-1.736, 3.588e-3
-1.737, 3.641e-3
-1.738, 3.691e-3
-1.739, 3.751e-3
-1.740, 3.812e-3
-1.741, 3.867e-3
-1.742, 3.916e-3
-1.743, 3.981e-3
-1.744, 4.047e-3
-1.745, 4.107e-3
-1.746, 4.169e-3
-1.747, 4.236e-3
-1.748, 4.303e-3
-1.749, 4.361e-3
-1.750, 4.418e-3
-1.751, 4.488e-3
-1.752, 4.559e-3
-1.753, 4.613e-3
-1.754, 4.670e-3
-1.755, 4.741e-3
-1.756, 4.821e-3
-1.757, 4.891e-3
-1.758, 4.950e-3
-1.759, 5.020e-3
-1.760, 5.095e-3
-1.761, 5.157e-3
-1.762, 5.214e-3
-1.763, 5.289e-3
-1.764, 5.369e-3
-1.765, 5.441e-3
-1.766, 5.503e-3
-1.767, 5.576e-3
-1.768, 5.659e-3
-1.769, 5.731e-3
-1.770, 5.791e-3
-1.771, 5.857e-3
-1.772, 5.943e-3
-1.773, 6.024e-3
-1.774, 6.086e-3
-1.775, 6.162e-3
-1.776, 6.254e-3
-1.777, 6.332e-3
-1.778, 6.392e-3
-1.779, 6.464e-3
-1.780, 6.550e-3
-1.781, 6.634e-3
-1.782, 6.688e-3
-1.783, 6.760e-3
-1.784, 6.866e-3
-1.785, 6.964e-3
-1.786, 7.031e-3
-1.787, 7.096e-3
-1.788, 7.185e-3
-1.789, 7.268e-3
-1.790, 7.326e-3
-1.791, 7.413e-3
-1.792, 7.515e-3
-1.793, 7.597e-3
-1.794, 7.651e-3
-1.795, 7.725e-3
-1.796, 7.823e-3
-1.797, 7.912e-3
-1.798, 7.974e-3
-1.799, 8.042e-3
-1.800, 8.080e-3
-1.799, 8.038e-3
-1.798, 7.965e-3
-1.797, 7.892e-3
-1.796, 7.839e-3
-1.795, 7.780e-3
-1.794, 7.703e-3
-1.793, 7.626e-3
-1.792, 7.582e-3
-1.791, 7.530e-3
-1.790, 7.446e-3
-1.789, 7.355e-3
-1.788, 7.293e-3
-1.787, 7.238e-3
-1.786, 7.166e-3
-1.785, 7.071e-3
-1.784, 7.011e-3
-1.783, 6.959e-3
-1.782, 6.892e-3
-1.781, 6.813e-3
-1.780, 6.751e-3
-1.779, 6.691e-3
-1.778, 6.622e-3
-1.777, 6.533e-3
-1.776, 6.473e-3
-1.775, 6.422e-3
-1.774, 6.347e-3
-1.773, 6.256e-3
-1.772, 6.184e-3
-1.771, 6.137e-3
-1.770, 6.082e-3
-1.769, 6.017e-3
-1.768, 5.952e-3
-1.767, 5.893e-3
-1.766, 5.836e-3
-1.765, 5.767e-3
-1.764, 5.692e-3
-1.763, 5.632e-3
-1.762, 5.579e-3
-1.761, 5.519e-3
-1.760, 5.464e-3
-1.759, 5.410e-3
-1.758, 5.336e-3
-1.757, 5.262e-3
-1.756, 5.208e-3
-1.755, 5.163e-3
-1.754, 5.114e-3
-1.753, 5.044e-3
-1.752, 4.969e-3
-1.751, 4.943e-3
-1.750, 4.933e-3
-1.749, 4.895e-3
-1.748, 4.838e-3
-1.747, 4.776e-3
-1.746, 4.711e-3
-1.745, 4.650e-3
-1.744, 4.607e-3
-1.743, 4.565e-3
-1.742, 4.512e-3
-1.741, 4.451e-3
-1.740, 4.403e-3
-1.739, 4.362e-3
-1.738, 4.309e-3
-1.737, 4.244e-3
-1.736, 4.191e-3
-1.735, 4.147e-3
-1.734, 4.098e-3
-1.733, 4.042e-3
-1.732, 3.992e-3
-1.731, 3.949e-3
-1.730, 3.902e-3
-1.729, 3.846e-3
-1.728, 3.792e-3
-1.727, 3.746e-3
-1.726, 3.701e-3
-1.725, 3.650e-3
-1.724, 3.601e-3
-1.723, 3.555e-3
-1.722, 3.510e-3
-1.721, 3.466e-3
-1.720, 3.427e-3
-1.719, 3.387e-3
-1.718, 3.338e-3
-1.717, 3.286e-3
-1.716, 3.242e-3
-1.715, 3.202e-3
-1.714, 3.158e-3
-1.713, 3.112e-3
-1.712, 3.070e-3
-1.711, 3.032e-3
-1.710, 2.985e-3
-1.709, 2.937e-3
-1.708, 2.898e-3
-1.707, 2.861e-3
-1.706, 2.821e-3
-1.705, 2.777e-3
-1.704, 2.739e-3
-1.703, 2.702e-3
-1.702, 2.662e-3
-1.701, 2.621e-3
-1.700, 2.584e-3
-1.699, 2.551e-3
-1.698, 2.514e-3
-1.697, 2.472e-3
-1.696, 2.434e-3
-1.695, 2.401e-3
-1.694, 2.366e-3
-1.693, 2.328e-3
-1.692, 2.295e-3
-1.691, 2.264e-3
-1.690, 2.230e-3
-1.689, 2.193e-3
-1.688, 2.157e-3
-1.687, 2.125e-3
-1.686, 2.096e-3
-1.685, 2.065e-3
-1.684, 2.031e-3
-1.683, 2.003e-3
-1.682, 1.973e-3
-1.681, 1.941e-3
-1.680, 1.909e-3
-1.679, 1.880e-3
-1.678, 1.850e-3
-1.677, 1.819e-3
-1.676, 1.790e-3
-1.675, 1.762e-3
-1.674, 1.735e-3
-1.673, 1.707e-3
-1.672, 1.679e-3
-1.671, 1.651e-3
-1.670, 1.625e-3
-1.669, 1.597e-3
-1.668, 1.570e-3
-1.667, 1.544e-3
-1.666, 1.519e-3
-1.665, 1.494e-3
-1.664, 1.469e-3
-1.663, 1.445e-3
-1.662, 1.421e-3
-1.661, 1.397e-3
-1.660, 1.372e-3
-1.659, 1.350e-3
-1.658, 1.329e-3
-1.657, 1.307e-3
-1.656, 1.283e-3
-1.655, 1.261e-3
-1.654, 1.240e-3
-1.653, 1.219e-3
-1.652, 1.198e-3
-1.651, 1.178e-3
-1.650, 1.158e-3
-1.649, 1.138e-3
-1.648, 1.118e-3
-1.647, 1.098e-3
-1.646, 1.079e-3
-1.645, 1.061e-3
-1.644, 1.042e-3
-1.643, 1.023e-3
-1.642, 1.005e-3
-1.641, 9.876e-4
-1.640, 9.701e-4
-1.639, 9.522e-4
-1.638, 9.349e-4
-1.637, 9.184e-4
-1.636, 9.016e-4
-1.635, 8.850e-4
-1.634, 8.690e-4
-1.633, 8.534e-4
-1.632, 8.375e-4
-1.631, 8.213e-4
-1.630, 8.060e-4
-1.629, 7.914e-4
-1.628, 7.767e-4
-1.627, 7.617e-4
-1.626, 7.472e-4
-1.625, 7.335e-4
-1.624, 7.201e-4
-1.623, 7.064e-4
-1.622, 6.930e-4
-1.621, 6.798e-4
-1.620, 6.669e-4
-1.619, 6.540e-4
-1.618, 6.414e-4
-1.617, 6.291e-4
-1.616, 6.172e-4
-1.615, 6.057e-4
-1.614, 5.940e-4
-1.613, 5.827e-4
-1.612, 5.713e-4
-1.611, 5.599e-4
-1.610, 5.490e-4
-1.609, 5.385e-4
-1.608, 5.281e-4
-1.607, 5.179e-4
-1.606, 5.075e-4
-1.605, 4.976e-4
-1.604, 4.876e-4
-1.603, 4.775e-4
-1.602, 4.680e-4
-1.601, 4.586e-4
-1.600, 4.497e-4
-1.599, 4.407e-4
-1.598, 4.318e-4
-1.597, 4.233e-4
-1.596, 4.149e-4
-1.595, 4.066e-4
-1.594, 3.985e-4
-1.593, 3.904e-4
-1.592, 3.825e-4
-1.591, 3.745e-4
-1.590, 3.669e-4
-1.589, 3.597e-4
-1.588, 3.522e-4
-1.587, 3.447e-4
-1.586, 3.375e-4
-1.585, 3.308e-4
-1.584, 3.240e-4
-1.583, 3.172e-4
-1.582, 3.105e-4
-1.581, 3.040e-4
-1.580, 2.979e-4
-1.579, 2.918e-4
-1.578, 2.855e-4
-1.577, 2.795e-4
-1.576, 2.737e-4
-1.575, 2.680e-4
-1.574, 2.624e-4
-1.573, 2.568e-4
-1.572, 2.514e-4
-1.571, 2.460e-4
-1.570, 2.409e-4
-1.569, 2.360e-4
-1.568, 2.309e-4
-1.567, 2.261e-4
-1.566, 2.213e-4
-1.565, 2.168e-4
-1.564, 2.123e-4
-1.563, 2.079e-4
-1.562, 2.032e-4
-1.561, 1.989e-4
-1.560, 1.948e-4
-1.559, 1.907e-4
-1.558, 1.864e-4
-1.557, 1.825e-4
-1.556, 1.786e-4
-1.555, 1.748e-4
-1.554, 1.711e-4
-1.553, 1.673e-4
-1.552, 1.636e-4
-1.551, 1.600e-4
-1.550, 1.568e-4
-1.549, 1.533e-4
-1.548, 1.499e-4
-1.547, 1.466e-4
-1.546, 1.435e-4
-1.545, 1.404e-4
-1.544, 1.375e-4
-1.543, 1.343e-4
-1.542, 1.313e-4
-1.541, 1.284e-4
-1.540, 1.258e-4
-1.539, 1.231e-4
-1.538, 1.204e-4
-1.537, 1.177e-4
-1.536, 1.150e-4
-1.535, 1.126e-4
-1.534, 1.102e-4
-1.533, 1.077e-4
-1.532, 1.054e-4
-1.531, 1.030e-4
-1.530, 1.008e-4
-1.529, 9.869e-5
-1.528, 9.648e-5
-1.527, 9.438e-5
-1.526, 9.208e-5
-1.525, 9.027e-5
-1.524, 8.836e-5
-1.523, 8.620e-5
-1.522, 8.439e-5
-1.521, 8.247e-5
-1.520, 8.074e-5
-1.519, 7.898e-5
-1.518, 7.714e-5
-1.517, 7.539e-5
-1.516, 7.360e-5
-1.515, 7.214e-5
-1.514, 7.061e-5
-1.513, 6.897e-5
-1.512, 6.741e-5
-1.511, 6.585e-5
-1.510, 6.444e-5
-1.509, 6.306e-5
-1.508, 6.145e-5
-1.507, 6.015e-5
-1.506, 5.876e-5
-1.505, 5.766e-5
-1.504, 5.639e-5
-1.503, 5.494e-5
-1.502, 5.368e-5
-1.501, 5.248e-5
-1.500, 5.141e-5
-1.499, 5.015e-5
-1.498, 4.897e-5
-1.497, 4.777e-5
-1.496, 4.661e-5
-1.495, 4.562e-5
-1.494, 4.464e-5
-1.493, 4.355e-5
-1.492, 4.245e-5
-1.491, 4.149e-5
-1.490, 4.066e-5
-1.489, 3.982e-5
-1.488, 3.883e-5
-1.487, 3.778e-5
-1.486, 3.688e-5
-1.485, 3.604e-5
-1.484, 3.512e-5
-1.483, 3.437e-5
-1.482, 3.349e-5
-1.481, 3.265e-5
-1.480, 3.202e-5
-1.479, 3.125e-5
-1.478, 3.042e-5
-1.477, 2.960e-5
-1.476, 2.888e-5
-1.475, 2.830e-5
-1.474, 2.773e-5
-1.473, 2.694e-5
-1.472, 2.611e-5
-1.471, 2.539e-5
-1.470, 2.500e-5
-1.469, 2.437e-5
-1.468, 2.372e-5
-1.467, 2.300e-5
-1.466, 2.242e-5
-1.465, 2.197e-5
-1.464, 2.143e-5
-1.463, 2.079e-5
-1.462, 2.014e-5
-1.461, 1.977e-5
-1.460, 1.939e-5
-1.459, 1.877e-5
-1.458, 1.809e-5
-1.457, 1.762e-5
-1.456, 1.721e-5
-1.455, 1.696e-5
-1.454, 1.641e-5
-1.453, 1.591e-5
-1.452, 1.540e-5
-1.451, 1.502e-5
-1.450, 1.472e-5
-1.449, 1.440e-5
-1.448, 1.381e-5
-1.447, 1.329e-5
-1.446, 1.287e-5
-1.445, 1.274e-5
-1.444, 1.231e-5
-1.443, 1.196e-5
-1.442, 1.150e-5
-1.441, 1.125e-5
-1.440, 1.109e-5
-1.439, 1.061e-5
-1.438, 1.035e-5
-1.437, 9.963e-6
-1.436, 9.746e-6
-1.435, 9.489e-6
-1.434, 9.242e-6
-1.433, 8.759e-6
-1.432, 8.414e-6
-1.431, 8.157e-6
-1.430, 8.049e-6
-1.429, 7.743e-6
-1.428, 7.496e-6
-1.427, 7.131e-6
-1.426, 6.983e-6
-1.425, 6.894e-6
-1.424, 6.697e-6
-1.423, 6.302e-6
-1.422, 5.957e-6
-1.421, 5.681e-6
-1.420, 5.671e-6
-1.419, 5.434e-6
-1.418, 5.118e-6
-1.417, 4.882e-6
-1.416, 4.655e-6
-1.415, 4.753e-6
-1.414, 4.507e-6
-1.413, 4.152e-6
-1.412, 3.935e-6
-1.411, 3.757e-6
-1.410, 3.856e-6
-1.409, 3.668e-6
-1.408, 3.481e-6
-1.407, 3.244e-6
-1.406, 3.017e-6
-1.405, 2.889e-6
-1.404, 2.859e-6
-1.403, 2.553e-6
-1.402, 2.474e-6
-1.401, 2.287e-6
-1.400, 2.277e-6
-1.399, 2.109e-6
-1.398, 1.853e-6
-1.397, 1.636e-6
-1.396, 1.665e-6
-1.395, 1.567e-6
-1.394, 1.517e-6
-1.393, 1.221e-6
-1.392, 1.034e-6
-1.391, 9.846e-7
-1.390, 1.004e-6
-1.389, 8.761e-7
-1.388, 6.196e-7
-1.387, 5.407e-7
-1.386, 4.025e-7
-1.385, 4.025e-7
-1.384, 4.124e-7
-1.383, 6.709e-8
-1.382, -8.090e-8
-1.381, -9.077e-8
-1.380, -9.077e-8
-1.379, -2.190e-7
-1.378, -4.262e-7
-1.377, -5.545e-7
-1.376, -6.433e-7
-1.375, -5.249e-7
-1.374, -6.729e-7
-1.373, -8.406e-7
-1.372, -1.048e-6
-1.371, -1.097e-6
-1.370, -9.590e-7
-1.369, -1.117e-6
-1.368, -1.215e-6
-1.367, -1.433e-6
-1.366, -1.452e-6
-1.365, -1.502e-6
-1.364, -1.423e-6
-1.363, -1.620e-6
-1.362, -1.729e-6
-1.361, -1.798e-6
-1.360, -1.650e-6
-1.359, -1.699e-6
-1.358, -1.995e-6
-1.357, -2.034e-6
-1.356, -2.133e-6
-1.355, -2.123e-6
-1.354, -2.163e-6
-1.353, -2.291e-6
-1.352, -2.380e-6
-1.351, -2.449e-6
-1.350, -2.301e-6
-1.349, -2.449e-6
-1.348, -2.518e-6
-1.347, -2.587e-6
-1.346, -2.745e-6
-1.345, -2.735e-6
-1.344, -2.784e-6
-1.343, -2.932e-6
-1.342, -3.051e-6
-1.341, -2.972e-6
-1.340, -2.893e-6
-1.339, -2.843e-6
-1.338, -3.031e-6
-1.337, -3.090e-6
-1.336, -3.218e-6
-1.335, -3.129e-6
-1.334, -3.120e-6
-1.333, -3.337e-6
-1.332, -3.347e-6
-1.331, -3.386e-6
-1.330, -3.327e-6
-1.329, -3.307e-6
-1.328, -3.524e-6
-1.327, -3.633e-6
-1.326, -3.593e-6
-1.325, -3.475e-6
-1.324, -3.554e-6
-1.323, -3.652e-6
-1.322, -3.692e-6
-1.321, -3.771e-6
-1.320, -3.623e-6
-1.319, -3.662e-6
-1.318, -3.938e-6
-1.317, -3.938e-6
-1.316, -4.037e-6
-1.315, -3.820e-6
-1.314, -3.899e-6
-1.313, -3.938e-6
-1.312, -4.067e-6
-1.311, -4.096e-6
-1.310, -3.958e-6
-1.309, -3.978e-6
-1.308, -4.067e-6
-1.307, -4.175e-6
-1.306, -4.225e-6
-1.305, -4.165e-6
-1.304, -4.195e-6
-1.303, -4.284e-6
-1.302, -4.294e-6
-1.301, -4.284e-6
-1.300, -4.126e-6
-1.299, -4.264e-6
-1.298, -4.461e-6
-1.297, -4.382e-6
-1.296, -4.382e-6
-1.295, -4.215e-6
-1.294, -4.313e-6
-1.293, -4.491e-6
-1.292, -4.590e-6
-1.291, -4.560e-6
-1.290, -4.392e-6
-1.289, -4.422e-6
-1.288, -4.491e-6
-1.287, -4.530e-6
-1.286, -4.678e-6
-1.285, -4.511e-6
-1.284, -4.471e-6
-1.283, -4.718e-6
-1.282, -4.718e-6
-1.281, -4.649e-6
-1.280, -4.678e-6
-1.279, -4.609e-6
-1.278, -4.767e-6
-1.277, -4.817e-6
-1.276, -4.836e-6
-1.275, -4.708e-6
-1.274, -4.688e-6
-1.273, -4.856e-6
-1.272, -4.915e-6
-1.271, -4.974e-6
-1.270, -4.817e-6
-1.269, -4.856e-6
-1.268, -5.034e-6
-1.267, -5.162e-6
-1.266, -5.113e-6
-1.265, -4.915e-6
-1.264, -4.846e-6
-1.263, -4.994e-6
-1.262, -5.162e-6
-1.261, -5.152e-6
-1.260, -5.024e-6
-1.259, -5.053e-6
-1.258, -5.221e-6
-1.257, -5.191e-6
-1.256, -5.132e-6
-1.255, -4.974e-6
-1.254, -5.093e-6
-1.253, -5.251e-6
-1.252, -5.300e-6
-1.251, -5.418e-6
-1.250, -5.182e-6
-1.249, -5.359e-6
-1.248, -5.399e-6
-1.247, -5.389e-6
-1.246, -5.261e-6
-1.245, -5.221e-6
-1.244, -5.349e-6
-1.243, -5.517e-6
-1.242, -5.616e-6
-1.241, -5.635e-6
-1.240, -5.468e-6
-1.239, -5.369e-6
-1.238, -5.537e-6
-1.237, -5.507e-6
-1.236, -5.487e-6
-1.235, -5.448e-6
-1.234, -5.379e-6
-1.233, -5.724e-6
-1.232, -5.714e-6
-1.231, -5.655e-6
-1.230, -5.517e-6
-1.229, -5.645e-6
-1.228, -5.734e-6
-1.227, -5.803e-6
-1.226, -5.734e-6
-1.225, -5.704e-6
-1.224, -5.724e-6
-1.223, -5.862e-6
-1.222, -5.882e-6
-1.221, -5.892e-6
-1.220, -5.754e-6
-1.219, -5.774e-6
-1.218, -5.833e-6
-1.217, -5.833e-6
-1.216, -5.902e-6
-1.215, -5.843e-6
-1.214, -5.833e-6
-1.213, -5.892e-6
-1.212, -5.971e-6
-1.211, -5.941e-6
-1.210, -5.783e-6
-1.209, -5.833e-6
-1.208, -5.981e-6
-1.207, -6.030e-6
-1.206, -5.951e-6
-1.205, -5.912e-6
-1.204, -5.951e-6
-1.203, -6.198e-6
-1.202, -6.227e-6
-1.201, -6.139e-6
-1.200, -6.000e-6
-1.199, -6.050e-6
-1.198, -6.198e-6
-1.197, -6.247e-6
-1.196, -6.218e-6
-1.195, -6.089e-6
-1.194, -6.010e-6
-1.193, -6.296e-6
-1.192, -6.148e-6
-1.191, -6.139e-6
-1.190, -6.119e-6
-1.189, -6.079e-6
-1.188, -6.247e-6
-1.187, -6.296e-6
-1.186, -6.346e-6
-1.185, -6.158e-6
-1.184, -6.158e-6
-1.183, -6.366e-6
-1.182, -6.346e-6
-1.181, -6.336e-6
-1.180, -6.237e-6
-1.179, -6.267e-6
-1.178, -6.504e-6
-1.177, -6.553e-6
-1.176, -6.435e-6
-1.175, -6.287e-6
-1.174, -6.306e-6
-1.173, -6.454e-6
-1.172, -6.553e-6
-1.171, -6.592e-6
-1.170, -6.425e-6
-1.169, -6.405e-6
-1.168, -6.553e-6
-1.167, -6.612e-6
-1.166, -6.563e-6
-1.165, -6.494e-6
-1.164, -6.425e-6
-1.163, -6.573e-6
-1.162, -6.819e-6
-1.161, -6.602e-6
-1.160, -6.514e-6
-1.159, -6.622e-6
-1.158, -6.800e-6
-1.157, -6.859e-6
-1.156, -6.750e-6
-1.155, -6.731e-6
-1.154, -6.602e-6
-1.153, -6.731e-6
-1.152, -6.839e-6
-1.151, -6.829e-6
-1.150, -6.750e-6
-1.149, -6.770e-6
-1.148, -6.819e-6
-1.147, -6.928e-6
-1.146, -6.839e-6
-1.145, -6.760e-6
-1.144, -6.780e-6
-1.143, -6.888e-6
-1.142, -7.027e-6
-1.141, -6.938e-6
-1.140, -6.908e-6
-1.139, -6.967e-6
-1.138, -7.036e-6
-1.137, -7.135e-6
-1.136, -7.096e-6
-1.135, -6.879e-6
-1.134, -6.977e-6
-1.133, -7.086e-6
-1.132, -7.224e-6
-1.131, -7.194e-6
-1.130, -7.145e-6
-1.129, -7.115e-6
-1.128, -7.253e-6
-1.127, -7.283e-6
-1.126, -7.303e-6
-1.125, -7.204e-6
-1.124, -7.175e-6
-1.123, -7.303e-6
-1.122, -7.263e-6
-1.121, -7.342e-6
-1.120, -7.283e-6
-1.119, -7.263e-6
-1.118, -7.421e-6
-1.117, -7.421e-6
-1.116, -7.392e-6
-1.115, -7.234e-6
-1.114, -7.283e-6
-1.113, -7.500e-6
-1.112, -7.411e-6
-1.111, -7.421e-6
-1.110, -7.352e-6
-1.109, -7.332e-6
-1.108, -7.441e-6
-1.107, -7.559e-6
-1.106, -7.451e-6
-1.105, -7.431e-6
-1.104, -7.313e-6
-1.103, -7.569e-6
-1.102, -7.589e-6
-1.101, -7.688e-6
-1.100, -7.530e-6
-1.099, -7.589e-6
-1.098, -7.658e-6
-1.097, -7.688e-6
-1.096, -7.618e-6
-1.095, -7.530e-6
-1.094, -7.540e-6
-1.093, -7.796e-6
-1.092, -7.836e-6
-1.091, -7.757e-6
-1.090, -7.589e-6
-1.089, -7.589e-6
-1.088, -7.845e-6
-1.087, -7.836e-6
-1.086, -7.796e-6
-1.085, -7.688e-6
-1.084, -7.747e-6
-1.083, -7.776e-6
-1.082, -7.826e-6
-1.081, -7.934e-6
-1.080, -7.658e-6
-1.079, -7.707e-6
-1.078, -7.885e-6
-1.077, -7.944e-6
-1.076, -7.944e-6
-1.075, -7.845e-6
-1.074, -7.875e-6
-1.073, -8.072e-6
-1.072, -8.043e-6
-1.071, -8.181e-6
-1.070, -7.885e-6
-1.069, -7.914e-6
-1.068, -8.092e-6
-1.067, -8.092e-6
-1.066, -8.082e-6
-1.065, -8.112e-6
-1.064, -8.092e-6
-1.063, -8.319e-6
-1.062, -8.368e-6
-1.061, -8.250e-6
-1.060, -8.033e-6
-1.059, -8.013e-6
-1.058, -8.220e-6
-1.057, -8.240e-6
-1.056, -8.299e-6
-1.055, -8.112e-6
-1.054, -8.270e-6
-1.053, -8.132e-6
-1.052, -8.299e-6
-1.051, -8.319e-6
-1.050, -8.210e-6
-1.049, -8.240e-6
-1.048, -8.339e-6
-1.047, -8.457e-6
-1.046, -8.378e-6
-1.045, -8.329e-6
-1.044, -8.270e-6
-1.043, -8.388e-6
-1.042, -8.437e-6
-1.041, -8.368e-6
-1.040, -8.240e-6
-1.039, -8.181e-6
-1.038, -8.378e-6
-1.037, -8.487e-6
-1.036, -8.427e-6
-1.035, -8.270e-6
-1.034, -8.210e-6
-1.033, -8.477e-6
-1.032, -8.437e-6
-1.031, -8.378e-6
-1.030, -8.250e-6
-1.029, -8.289e-6
-1.028, -8.516e-6
-1.027, -8.546e-6
-1.026, -8.546e-6
-1.025, -8.270e-6
-1.024, -8.408e-6
-1.023, -8.477e-6
-1.022, -8.654e-6
-1.021, -8.556e-6
-1.020, -8.339e-6
-1.019, -8.368e-6
-1.018, -8.566e-6
-1.017, -8.615e-6
-1.016, -8.546e-6
-1.015, -8.437e-6
-1.014, -8.487e-6
-1.013, -8.664e-6
-1.012, -8.664e-6
-1.011, -8.575e-6
-1.010, -8.427e-6
-1.009, -8.418e-6
-1.008, -8.645e-6
-1.007, -8.635e-6
-1.006, -8.635e-6
-1.005, -8.546e-6
-1.004, -8.516e-6
-1.003, -8.605e-6
-1.002, -8.625e-6
-1.001, -8.645e-6
