Potential V vs RHE, Current mA cm-2
0.013299999999999867,-0.08943804837746762
0.012299999999999978,-1.1798692240874404
0.011299999999999866,-1.9650339955125358
0.010299999999999976,-2.576189277054232
0.009299999999999864,-3.1420737970002466
0.008299999999999974,-3.579219588658543
0.007299999999999862,-3.884797229429391
0.006299999999999972,-4.102662769608606
0.00529999999999986,-4.276672259492005
0.0042999999999999705,-4.406825699079589
0.0032999999999998586,-4.538393849967037
0.0022999999999999687,-4.626105950558669
0.0012999999999998568,-4.668547289554621
0.00029999999999996696,-4.800115440442069
-0.000700000000000145,-4.9302688800296535
-0.0017000000000000348,-5.0618370309171015
-0.0027000000000001467,-5.191990470504685
-0.0037000000000000366,-5.323558621392133
-0.0047000000000001485,-5.497568111275533
-0.005700000000000038,-5.585280211867165
-0.00670000000000015,-5.629136262162981
-0.00770000000000004,-5.672992312458796
-0.008700000000000152,-5.672992312458796
-0.009700000000000042,-5.715433651454749
-0.010700000000000154,-5.715433651454749
-0.011700000000000044,-5.672992312458796
-0.012700000000000156,-5.715433651454749
-0.013700000000000045,-5.759289701750564
-0.014700000000000157,-5.847001802342197
-0.015700000000000047,-5.977155241929781
-0.01670000000000016,-6.064867342521412
-0.01770000000000005,-6.152579443113044
-0.01870000000000016,-6.238876832404812
-0.01970000000000005,-6.282732882700628
-0.020700000000000163,-6.282732882700628
-0.021700000000000053,-6.282732882700628
-0.022700000000000164,-6.238876832404812
-0.023700000000000054,-6.238876832404812
-0.024700000000000166,-6.196435493408861
-0.025700000000000056,-6.196435493408861
-0.026700000000000168,-6.238876832404812
-0.027700000000000058,-6.282732882700628
-0.02870000000000017,-6.37044498329226
-0.02970000000000006,-6.458157083883892
-0.03070000000000017,-6.54445447317566
-0.03170000000000006,-6.632166573767292
-0.03270000000000017,-6.6760226240631075
-0.03370000000000006,-6.719878674358924
-0.034700000000000175,-6.6760226240631075
-0.035700000000000065,-6.632166573767292
-0.03670000000000018,-6.632166573767292
-0.03770000000000007,-6.588310523471475
-0.03870000000000018,-6.54445447317566
-0.03970000000000007,-6.588310523471475
-0.04070000000000018,-6.588310523471475
-0.04170000000000007,-6.6760226240631075
-0.04270000000000018,-6.762320013354876
-0.04370000000000007,-6.850032113946507
-0.044700000000000184,-6.93774421453814
-0.045700000000000074,-6.981600264833956
-0.046700000000000186,-6.981600264833956
-0.047700000000000076,-7.024041603829907
-0.04870000000000019,-6.93774421453814
-0.04970000000000008,-6.93774421453814
-0.05070000000000019,-6.893888164242324
-0.05170000000000008,-6.850032113946507
-0.05270000000000019,-6.850032113946507
-0.05370000000000008,-6.850032113946507
-0.05470000000000019,-6.93774421453814
-0.05570000000000008,-7.024041603829907
-0.056700000000000195,-7.111753704421539
-0.057700000000000085,-7.155609754717355
-0.058700000000000196,-7.199465805013171
-0.059700000000000086,-7.243321855308987
-0.0607000000000002,-7.28576319430494
-0.06170000000000009,-7.243321855308987
-0.0627000000000002,-7.199465805013171
-0.06370000000000009,-7.155609754717355
-0.0647000000000002,-7.111753704421539
-0.06570000000000009,-7.111753704421539
-0.0667000000000002,-7.111753704421539
-0.0677000000000001,-7.155609754717355
-0.0687000000000002,-7.199465805013171
-0.0697000000000001,-7.28576319430494
-0.07070000000000021,-7.37347529489657
-0.0717000000000001,-7.461187395488204
-0.07270000000000021,-7.461187395488204
-0.0737000000000001,-7.50504344578402
-0.07470000000000021,-7.461187395488204
-0.0757000000000001,-7.4173313451923875
-0.07670000000000021,-7.4173313451923875
-0.0777000000000001,-7.37347529489657
-0.07870000000000021,-7.28576319430494
-0.0797000000000001,-7.329619244600755
-0.08070000000000022,-7.329619244600755
-0.0817000000000001,-7.4173313451923875
-0.08270000000000022,-7.50504344578402
-0.08370000000000011,-7.5474847847799715
-0.08470000000000022,-7.635196885371603
-0.08570000000000011,-7.679052935667419
-0.08670000000000022,-7.722908985963235
-0.08770000000000011,-7.722908985963235
-0.08870000000000022,-7.679052935667419
-0.08970000000000011,-7.635196885371603
-0.09070000000000022,-7.591340835075788
-0.09170000000000011,-7.50504344578402
-0.09270000000000023,-7.5474847847799715
-0.09370000000000012,-7.5474847847799715
-0.09470000000000023,-7.635196885371603
-0.09570000000000012,-7.679052935667419
-0.09670000000000023,-7.722908985963235
-0.09770000000000012,-7.853062425550818
-0.09870000000000023,-7.940774526142452
-0.09970000000000012,-7.940774526142452
-0.10070000000000023,-7.940774526142452
-0.10170000000000012,-7.896918475846635
-0.10270000000000024,-7.853062425550818
-0.10370000000000013,-7.809206375255003
-0.10470000000000024,-7.7653503249591855
-0.10570000000000013,-7.7653503249591855
-0.10670000000000024,-7.7653503249591855
-0.10770000000000013,-7.809206375255003
-0.10870000000000024,-7.896918475846635
-0.10970000000000013,-7.940774526142452
-0.11070000000000024,-8.027071915434218
-0.11170000000000013,-8.158640066321666
-0.11270000000000002,-8.158640066321666
-0.11370000000000013,-8.158640066321666
-0.11470000000000002,-8.11478401602585
-0.11570000000000014,-8.070927965730034
-0.11670000000000003,-8.070927965730034
-0.11770000000000014,-8.027071915434218
-0.11870000000000003,-7.984630576438266
-0.11970000000000014,-7.984630576438266
-0.12070000000000003,-7.984630576438266
-0.12170000000000014,-8.070927965730034
-0.12270000000000003,-8.202496116617484
-0.12370000000000014,-8.246352166913299
-0.12470000000000003,-8.332649556205066
-0.12570000000000014,-8.376505606500881
-0.12670000000000003,-8.4203616567967
-0.12770000000000015,-8.376505606500881
-0.12870000000000004,-8.332649556205066
-0.12970000000000015,-8.332649556205066
-0.13070000000000004,-8.288793505909249
-0.13170000000000015,-8.246352166913299
-0.13270000000000004,-8.246352166913299
-0.13370000000000015,-8.246352166913299
-0.13470000000000004,-8.288793505909249
-0.13570000000000015,-8.376505606500881
-0.13670000000000004,-8.464217707092514
-0.13770000000000016,-8.508073757388331
-0.13870000000000005,-8.594371146680096
-0.13970000000000016,-8.638227196975913
-0.14070000000000005,-8.68208324727173
-0.14170000000000016,-8.638227196975913
-0.14270000000000005,-8.594371146680096
-0.14370000000000016,-8.55051509638428
-0.14470000000000005,-8.55051509638428
-0.14570000000000016,-8.55051509638428
-0.14670000000000005,-8.508073757388331
-0.14770000000000016,-8.55051509638428
-0.14870000000000005,-8.638227196975913
-0.14970000000000017,-8.68208324727173
-0.15070000000000006,-8.812236686859313
-0.15170000000000017,-8.899948787450944
-0.15270000000000006,-8.899948787450944
-0.15370000000000017,-8.943804837746763
-0.15470000000000006,-8.943804837746763
-0.15570000000000017,-8.899948787450944
-0.15670000000000006,-8.85609273715513
-0.15770000000000017,-8.85609273715513
-0.15870000000000006,-8.812236686859313
-0.15970000000000018,-8.85609273715513
-0.16070000000000007,-8.812236686859313
-0.16170000000000018,-8.899948787450944
-0.16270000000000007,-9.031516938338395
-0.16370000000000018,-9.11781432763016
-0.16470000000000007,-9.161670377925978
-0.16570000000000018,-9.205526428221793
-0.16670000000000007,-9.24938247851761
-0.16770000000000018,-9.293238528813426
-0.16870000000000007,-9.24938247851761
-0.16970000000000018,-9.24938247851761
-0.17070000000000007,-9.161670377925978
-0.17170000000000019,-9.161670377925978
-0.17270000000000008,-9.161670377925978
-0.1737000000000002,-9.205526428221793
-0.17470000000000008,-9.293238528813426
-0.1757000000000002,-9.335679867809377
-0.17670000000000008,-9.467248018696827
-0.1777000000000002,-9.55496011928846
-0.17870000000000008,-9.641257508580225
-0.1797000000000002,-9.641257508580225
-0.18070000000000008,-9.685113558876042
-0.1817000000000002,-9.685113558876042
-0.18270000000000008,-9.641257508580225
-0.1837000000000002,-9.59740145828441
-0.1847000000000001,-9.59740145828441
-0.1857000000000002,-9.55496011928846
-0.1867000000000001,-9.641257508580225
-0.1877000000000002,-9.641257508580225
-0.1887000000000001,-9.772825659467674
-0.1897000000000002,-9.81668170976349
-0.1907000000000001,-9.946835149351072
-0.1917000000000001,-10.078403300238522
-0.19269999999999998,-10.078403300238522
-0.1937000000000001,-10.164700689530287
-0.19469999999999998,-10.120844639234473
-0.1957000000000001,-10.120844639234473
-0.19669999999999999,-10.120844639234473
-0.1977000000000001,-10.078403300238522
-0.1987,-10.034547249942705
-0.1997000000000001,-10.078403300238522
-0.2007,-10.120844639234473
-0.2017000000000001,-10.25241279012192
-0.2027,-10.340124890713554
-0.2037000000000001,-10.42642228000532
-0.2047,-10.557990430892769
-0.2057000000000001,-10.644287820184536
-0.2067,-10.688143870480351
-0.2077000000000001,-10.731999920776168
-0.2087,-10.688143870480351
-0.2097000000000001,-10.731999920776168
-0.2107,-10.688143870480351
-0.2117000000000001,-10.644287820184536
-0.2127,-10.688143870480351
-0.2137000000000001,-10.731999920776168
-0.2147,-10.863568071663616
-0.2157000000000001,-10.993721511251199
-0.2167,-11.081433611842833
-0.21770000000000012,-11.1677310011346
-0.2187,-11.299299152022046
-0.21970000000000012,-11.385596541313816
-0.2207,-11.42945259160963
-0.22170000000000012,-11.42945259160963
-0.2227,-11.385596541313816
-0.22370000000000012,-11.42945259160963
-0.2247,-11.42945259160963
-0.22570000000000012,-11.42945259160963
-0.2267,-11.473308641905447
-0.22770000000000012,-11.56102074249708
-0.22870000000000001,-11.691174182084664
-0.22970000000000013,-11.778886282676295
-0.23070000000000002,-11.909039722263879
-0.23170000000000013,-12.084463923447142
-0.23270000000000002,-12.12831997374296
-0.23370000000000013,-12.214617363034726
-0.23470000000000002,-12.258473413330542
-0.23570000000000013,-12.258473413330542
-0.23670000000000002,-12.258473413330542
-0.2376999999999999,-12.302329463626359
-0.23870000000000002,-12.302329463626359
-0.2396999999999999,-12.346185513922174
-0.24070000000000003,-12.390041564217992
-0.24169999999999991,-12.520195003805576
-0.24270000000000003,-12.694204493688973
-0.24369999999999992,-12.825772644576423
-0.24470000000000003,-12.955926084164007
-0.24569999999999992,-13.043638184755638
-0.24670000000000003,-13.13135028534727
-0.24769999999999992,-13.217647674639037
-0.24870000000000003,-13.217647674639037
-0.24969999999999992,-13.261503724934855
-0.25070000000000003,-13.261503724934855
-0.2516999999999999,-13.261503724934855
-0.25270000000000004,-13.349215825526485
-0.2536999999999999,-13.3930718758223
-0.25470000000000004,-13.523225315409885
-0.2556999999999999,-13.654793466297335
-0.25670000000000004,-13.828802956180734
-0.25769999999999993,-13.960371107068182
-0.25870000000000004,-14.13438059695158
-0.25969999999999993,-14.175407224647667
-0.26070000000000004,-14.30273124163552
-0.26169999999999993,-14.345172580631472
-0.26270000000000004,-14.345172580631472
-0.26369999999999993,-14.401761032626075
-0.26470000000000005,-14.444202371622024
-0.26569999999999994,-14.486643710617974
-0.26670000000000005,-14.61396772760583
-0.26769999999999994,-14.69885040559773
-0.26870000000000005,-14.826174422585586
-0.26969999999999994,-14.967645552572087
-0.27070000000000005,-15.137410908555893
-0.27169999999999994,-15.307176264539699
-0.27270000000000005,-15.3920589425316
-0.27369999999999994,-15.533530072518102
-0.27470000000000006,-15.618412750510005
-0.27569999999999995,-15.660854089505953
-0.27670000000000006,-15.70329542850191
-0.27769999999999995,-15.78817810649381
-0.27870000000000006,-15.78817810649381
-0.27969999999999995,-15.91550212348166
-0.28070000000000006,-16.014531914472215
-0.28169999999999995,-16.184297270456018
-0.28270000000000006,-16.354062626439823
-0.28369999999999995,-16.495533756426326
-0.28470000000000006,-16.665299112410132
-0.28569999999999995,-16.835064468393938
-0.28670000000000007,-16.962388485381787
-0.28769999999999996,-17.061418276372343
-0.28870000000000007,-17.146300954364243
-0.28969999999999996,-17.231183632356142
-0.29070000000000007,-17.231183632356142
-0.29169999999999996,-17.2736249713521
-0.29270000000000007,-17.40094898833995
-0.29369999999999996,-17.542420118326454
-0.2947000000000001,-17.71218547431026
-0.29569999999999996,-17.839509491298113
-0.2967000000000001,-18.06586329927652
-0.29769999999999996,-18.23562865526032
-0.2987000000000001,-18.44783535024008
-0.29969999999999997,-18.589306480226583
-0.3007000000000001,-18.716630497214435
-0.30169999999999997,-18.80151317520634
-0.3027000000000001,-18.88639585319824
-0.30369999999999997,-18.97127853119014
-0.3047000000000001,-19.056161209182044
-0.30569999999999997,-19.112749661176647
-0.3067000000000001,-19.28251501716045
-0.3077,-19.452280373144255
-0.3087000000000001,-19.636192842126707
-0.3097,-19.805958198110513
-0.3107000000000001,-20.01816489309027
-0.3117,-20.286960040064624
-0.3127000000000001,-20.456725396048434
-0.3137,-20.584049413036283
-0.3147000000000001,-20.72552054302279
-0.3157,-20.810403221014692
-0.3167000000000001,-20.93772723800254
-0.3177,-21.022609915994444
-0.3187000000000001,-21.107492593986347
-0.3197,-21.248963723972853
-0.3207000000000001,-21.418729079956652
-0.3217,-21.67337711393236
-0.3227000000000001,-21.899730921910766
-0.3237,-22.111937616890522
-0.3247000000000001,-22.33829142486893
-0.3257,-22.592939458844636
-0.3267000000000001,-22.776851927827092
-0.3277,-22.946617283810895
-0.3287000000000001,-23.073941300798747
-0.3297,-23.2012653177866
-0.3307000000000001,-23.342736447773106
-0.3317,-23.47006046476096
-0.3327000000000001,-23.597384481748815
-0.3337,-23.767149837732617
-0.3347000000000001,-23.993503645711023
-0.3357,-24.24815167968673
-0.3367000000000001,-24.516946826661083
-0.3377,-24.771594860636792
-0.3387000000000001,-25.04039000761115
-0.3397,-25.252596702590903
-0.3407000000000001,-25.521391849565262
-0.3417,-25.648715866553115
-0.3427000000000001,-25.77603988354097
-0.3437,-25.91751101352747
-0.3447000000000001,-26.087276369511276
-0.3457,-26.257041725495082
-0.3467000000000001,-26.483395533473487
-0.3477,-26.65316088945729
-0.3487000000000001,-26.907808923433
-0.3497,-27.219045409403304
-0.3507000000000001,-27.530281895373616
-0.3517,-27.78492992934932
-0.3527000000000001,-28.05372507632368
-0.3537,-28.265931771303435
-0.3547000000000001,-28.478138466283188
-0.3557,-28.662050935265643
-0.35670000000000013,-28.831816291249446
-0.3577,-29.001581647233255
-0.35870000000000013,-29.18549411621571
-0.3597,-29.39770081119546
-0.36070000000000013,-29.62405461917387
-0.3617,-29.921143992145527
-0.3626999999999999,-30.232380478115836
-0.3637,-30.529469851087494
-0.3646999999999999,-30.8407063370578
-0.3657,-31.137795710029454
-0.3666999999999999,-31.449032195999767
-0.3677,-31.717827342974125
-0.3686999999999999,-31.930034037953877
-0.36970000000000003,-32.09979939393769
-0.3706999999999999,-32.32615320191609
-0.37170000000000003,-32.53835989689585
-0.3726999999999999,-32.764713704874254
-0.37370000000000003,-33.01936173884996
-0.3746999999999999,-33.330598224820264
-0.37570000000000003,-33.627687597791926
-0.3766999999999999,-33.93892408376223
-0.37770000000000004,-34.278454795729836
-0.3786999999999999,-34.67457395969205
-0.37970000000000004,-34.94336910666641
-0.3806999999999999,-35.240458479638065
-0.38170000000000004,-35.46681228761647
-0.38269999999999993,-35.721460321592176
-0.38370000000000004,-35.94781412957058
-0.38469999999999993,-36.20246216354629
-0.38570000000000004,-36.4288159715247
-0.38669999999999993,-36.725905344496354
-0.38770000000000004,-37.037141830466666
-0.38869999999999993,-37.376672542434264
-0.38970000000000005,-37.73035036740053
-0.39069999999999994,-38.08402819236679
-0.39170000000000005,-38.46600024333035
-0.39269999999999994,-38.777236729300654
-0.39370000000000005,-39.130914554266916
-0.39469999999999994,-39.38556258824262
-0.39570000000000005,-39.696799074212926
-0.39669999999999994,-39.99388844718459
-0.39770000000000005,-40.220242255162994
-0.39869999999999994,-40.4748902891387
-0.39970000000000006,-40.828568114104954
-0.40069999999999995,-41.139804600075266
-0.40170000000000006,-41.52177665103883
-0.40269999999999995,-41.87545447600508
-0.40370000000000006,-42.31401497896325
-0.40469999999999995,-42.71013414292546
-0.40570000000000006,-43.09210619388902
-0.40669999999999995,-43.40334267985933
-0.40770000000000006,-43.79946184382153
-0.40869999999999995,-44.054109877797245
-0.40970000000000006,-44.4077877027635
-0.41069999999999995,-44.66243573673921
-0.41170000000000007,-44.97367222270952
-0.41269999999999996,-45.32735004767578
-0.41370000000000007,-45.666880759643384
-0.41469999999999996,-46.062999923605595
-0.41570000000000007,-46.501560426563756
-0.41669999999999996,-46.88353247752732
-0.41770000000000007,-47.32209298048547
-0.41869999999999996,-47.80309482243959
-0.4197000000000001,-48.156772647405845
-0.42069999999999996,-48.59533315036401
-0.4217000000000001,-48.89242252333566
-0.42269999999999996,-49.24610034830193
-0.4237000000000001,-49.642219512264134
-0.42469999999999997,-49.98175022423175
-0.4257000000000001,-50.2505453712061
-0.42669999999999997,-50.64666453516831
-0.4277000000000001,-51.028636586131874
-0.42869999999999997,-51.509638428085985
-0.4297000000000001,-51.948198931044146
-0.43069999999999997,-52.386759434002315
-0.4317000000000001,-52.86776127595642
-0.4327,-53.30632177891458
-0.4337000000000001,-53.74488228187274
-0.4347,-54.1268543328363
-0.4357000000000001,-54.52297349679851
-0.4367,-54.876651321764776
-0.4377000000000001,-55.31521182472294
-0.4387,-55.612301197694585
-0.4397000000000001,-56.008420361656796
-0.4407,-56.44698086461496
-0.4417000000000001,-56.927982706569075
-0.4427,-57.45142588751914
-0.4437000000000001,-57.93242772947325
-0.4447,-58.39928245842871
-0.4457000000000001,-58.92272563937878
-0.4467,-59.403727481332886
-0.4477000000000001,-59.884729323287
-0.4487,-60.32328982624517
-0.4497000000000001,-60.67696765121143
-0.4507,-61.11552815416958
-0.4517000000000001,-61.49750020513315
-0.4527,-61.936060708091304
-0.4537000000000001,-62.37462121104946
-0.4547,-62.81318171400764
-0.4557000000000001,-63.37906623395363
-0.4567,-63.902509414903705
-0.4577000000000001,-64.42595259585376
-0.4587,-64.99183711579978
-0.4597000000000001,-65.4728389577539
-0.4607,-65.99628213870396
-0.4617000000000001,-66.47728398065809
-0.4627,-66.91584448361623
-0.4637000000000001,-67.34025787357575
-0.4647,-67.82125971552985
-0.4657000000000001,-68.30226155748396
-0.4667,-68.78326339943808
-0.4677000000000001,-69.26426524139221
-0.4687,-69.8301497613382
-0.4697000000000001,-70.43847562028017
-0.4707,-71.0043601402262
-0.4717000000000001,-71.6268331121668
-0.4727,-72.15027629311687
-0.4737000000000001,-72.71616081306288
-0.4747,-73.23960399401295
-0.4757000000000001,-73.72060583596706
-0.4767,-74.20160767792116
-0.4777000000000001,-74.72505085887124
-0.4787,-75.14946424883075
-0.4797000000000001,-75.71534876877676
-0.4807,-76.23879194972683
-0.48170000000000013,-76.81882358267148
-0.4827,-77.42714944161345
-0.48370000000000013,-78.03547530055542
-0.4847,-78.64380115949739
-0.48570000000000013,-79.2945683574353
-0.4867,-78.91259630647174
-0.48570000000000013,-77.243236972631
-0.4847,-75.94170257675518
-0.48370000000000013,-74.80993353686314
-0.4827,-73.8479298529549
-0.48170000000000013,-72.84348483005074
-0.4807,-72.05124650212633
-0.4797000000000001,-71.2307139482046
-0.4787,-70.43847562028017
-0.4777000000000001,-69.70282574435035
-0.4767,-69.0096172074165
-0.4757000000000001,-68.34470289647993
-0.4747,-67.73637703753796
-0.4737000000000001,-67.00072716160814
-0.4727,-66.29337151167562
-0.4717000000000001,-65.5577216357458
-0.4707,-64.82207175981598
-0.4697000000000001,-64.11471610988345
-0.4687,-63.37906623395363
-0.4677000000000001,-62.64341635802381
-0.4667,-61.97850204708726
-0.4657000000000001,-61.327734849149344
-0.4647,-60.71940899020737
-0.4637000000000001,-60.11108313126541
-0.4627,-59.54519861131939
-0.4617000000000001,-59.02175543036933
