Potential V vs RHE, Current mA cm-2
0.013299999999999867,-0.1330535977523067
0.012299999999999978,-1.0054353208140816
0.011299999999999866,-1.5293029151541047
0.010299999999999976,-1.9650339955125358
0.009299999999999864,-2.3144676865791998
0.008299999999999974,-2.706342716641815
0.007299999999999862,-3.0119203574126634
0.006299999999999972,-3.273641947887695
0.00529999999999986,-3.4915074880669104
0.0042999999999999705,-3.623075638954359
0.0032999999999998586,-3.7093730282461257
0.0022999999999999687,-3.7532290785419424
0.0012999999999998568,-3.7532290785419424
0.00029999999999996696,-3.840941179133574
-0.000700000000000145,-3.884797229429391
-0.0017000000000000348,-4.0588067193127895
-0.0027000000000001467,-4.1889601589003735
-0.0037000000000000366,-4.364384360083638
-0.0047000000000001485,-4.450681749375406
-0.005700000000000038,-4.494537799671222
-0.00670000000000015,-4.494537799671222
-0.00770000000000004,-4.450681749375406
-0.008700000000000152,-4.450681749375406
-0.009700000000000042,-4.450681749375406
-0.010700000000000154,-4.494537799671222
-0.011700000000000044,-4.626105950558669
-0.012700000000000156,-4.712403339850438
-0.013700000000000045,-4.843971490737885
-0.014700000000000157,-4.887827541033701
-0.015700000000000047,-4.9302688800296535
-0.01670000000000016,-4.887827541033701
-0.01770000000000005,-4.843971490737885
-0.01870000000000016,-4.800115440442069
-0.01970000000000005,-4.843971490737885
-0.020700000000000163,-4.843971490737885
-0.021700000000000053,-4.974124930325469
-0.022700000000000164,-5.0618370309171015
-0.023700000000000054,-5.149549131508733
-0.024700000000000166,-5.235846520800501
-0.025700000000000056,-5.235846520800501
-0.026700000000000168,-5.191990470504685
-0.027700000000000058,-5.149549131508733
-0.02870000000000017,-5.105693081212917
-0.02970000000000006,-5.105693081212917
-0.03070000000000017,-5.105693081212917
-0.03170000000000006,-5.191990470504685
-0.03270000000000017,-5.279702571096316
-0.03370000000000006,-5.367414671687949
-0.034700000000000175,-5.411270721983764
-0.035700000000000065,-5.453712060979717
-0.03670000000000018,-5.411270721983764
-0.03770000000000007,-5.367414671687949
-0.03870000000000018,-5.323558621392133
-0.03970000000000007,-5.279702571096316
-0.04070000000000018,-5.279702571096316
-0.04170000000000007,-5.411270721983764
-0.04270000000000018,-5.453712060979717
-0.04370000000000007,-5.585280211867165
-0.044700000000000184,-5.629136262162981
-0.045700000000000074,-5.629136262162981
-0.046700000000000186,-5.585280211867165
-0.047700000000000076,-5.5414241615713475
-0.04870000000000019,-5.453712060979717
-0.04970000000000008,-5.453712060979717
-0.05070000000000019,-5.453712060979717
-0.05170000000000008,-5.585280211867165
-0.05270000000000019,-5.629136262162981
-0.05370000000000008,-5.715433651454749
-0.05470000000000019,-5.80314575204638
-0.05570000000000008,-5.80314575204638
-0.056700000000000195,-5.759289701750564
-0.057700000000000085,-5.715433651454749
-0.058700000000000196,-5.629136262162981
-0.059700000000000086,-5.629136262162981
-0.0607000000000002,-5.629136262162981
-0.06170000000000009,-5.715433651454749
-0.0627000000000002,-5.80314575204638
-0.06370000000000009,-5.890857852638012
-0.0647000000000002,-5.9347139029338285
-0.06570000000000009,-5.977155241929781
-0.0667000000000002,-5.890857852638012
-0.0677000000000001,-5.847001802342197
-0.0687000000000002,-5.80314575204638
-0.0697000000000001,-5.759289701750564
-0.07070000000000021,-5.759289701750564
-0.0717000000000001,-5.847001802342197
-0.07270000000000021,-5.9347139029338285
-0.0737000000000001,-6.021011292225596
-0.07470000000000021,-6.064867342521412
-0.0757000000000001,-6.108723392817228
-0.07670000000000021,-6.021011292225596
-0.0777000000000001,-5.977155241929781
-0.07870000000000021,-5.9347139029338285
-0.0797000000000001,-5.890857852638012
-0.08070000000000022,-5.890857852638012
-0.0817000000000001,-5.977155241929781
-0.08270000000000022,-6.064867342521412
-0.08370000000000011,-6.152579443113044
-0.08470000000000022,-6.196435493408861
-0.08570000000000011,-6.238876832404812
-0.08670000000000022,-6.196435493408861
-0.08770000000000011,-6.108723392817228
-0.08870000000000022,-6.064867342521412
-0.08970000000000011,-6.021011292225596
-0.09070000000000022,-6.021011292225596
-0.09170000000000011,-6.108723392817228
-0.09270000000000023,-6.196435493408861
-0.09370000000000012,-6.282732882700628
-0.09470000000000023,-6.326588932996443
-0.09570000000000012,-6.37044498329226
-0.09670000000000023,-6.282732882700628
-0.09770000000000012,-6.238876832404812
-0.09870000000000023,-6.196435493408861
-0.09970000000000012,-6.152579443113044
-0.10070000000000023,-6.196435493408861
-0.10170000000000012,-6.238876832404812
-0.10270000000000024,-6.326588932996443
-0.10370000000000013,-6.458157083883892
-0.10470000000000024,-6.500598422879844
-0.10570000000000013,-6.500598422879844
-0.10670000000000024,-6.458157083883892
-0.10770000000000013,-6.414301033588076
-0.10870000000000024,-6.326588932996443
-0.10970000000000013,-6.326588932996443
-0.11070000000000024,-6.326588932996443
-0.11170000000000013,-6.414301033588076
-0.11270000000000002,-6.500598422879844
-0.11370000000000013,-6.588310523471475
-0.11470000000000002,-6.632166573767292
-0.11570000000000014,-6.6760226240631075
-0.11670000000000003,-6.588310523471475
-0.11770000000000014,-6.54445447317566
-0.11870000000000003,-6.500598422879844
-0.11970000000000014,-6.458157083883892
-0.12070000000000003,-6.458157083883892
-0.12170000000000014,-6.54445447317566
-0.12270000000000003,-6.632166573767292
-0.12370000000000014,-6.762320013354876
-0.12470000000000003,-6.806176063650692
-0.12570000000000014,-6.806176063650692
-0.12670000000000003,-6.762320013354876
-0.12770000000000015,-6.719878674358924
-0.12870000000000004,-6.632166573767292
-0.12970000000000015,-6.632166573767292
-0.13070000000000004,-6.632166573767292
-0.13170000000000015,-6.719878674358924
-0.13270000000000004,-6.806176063650692
-0.13370000000000015,-6.893888164242324
-0.13470000000000004,-6.93774421453814
-0.13570000000000015,-6.981600264833956
-0.13670000000000004,-6.93774421453814
-0.13770000000000016,-6.850032113946507
-0.13870000000000005,-6.806176063650692
-0.13970000000000016,-6.806176063650692
-0.14070000000000005,-6.806176063650692
-0.14170000000000016,-6.893888164242324
-0.14270000000000005,-6.981600264833956
-0.14370000000000016,-7.067897654125724
-0.14470000000000005,-7.155609754717355
-0.14570000000000016,-7.155609754717355
-0.14670000000000005,-7.111753704421539
-0.14770000000000016,-7.067897654125724
-0.14870000000000005,-7.024041603829907
-0.14970000000000017,-6.981600264833956
-0.15070000000000006,-7.024041603829907
-0.15170000000000017,-7.067897654125724
-0.15270000000000006,-7.199465805013171
-0.15370000000000017,-7.28576319430494
-0.15470000000000006,-7.329619244600755
-0.15570000000000017,-7.37347529489657
-0.15670000000000006,-7.329619244600755
-0.15770000000000017,-7.28576319430494
-0.15870000000000006,-7.199465805013171
-0.15970000000000018,-7.199465805013171
-0.16070000000000007,-7.199465805013171
-0.16170000000000018,-7.28576319430494
-0.16270000000000007,-7.4173313451923875
-0.16370000000000018,-7.50504344578402
-0.16470000000000007,-7.591340835075788
-0.16570000000000018,-7.635196885371603
-0.16670000000000007,-7.5474847847799715
-0.16770000000000018,-7.5474847847799715
-0.16870000000000007,-7.461187395488204
-0.16970000000000018,-7.461187395488204
-0.17070000000000007,-7.461187395488204
-0.17170000000000019,-7.591340835075788
-0.17270000000000008,-7.679052935667419
-0.1737000000000002,-7.7653503249591855
-0.17470000000000008,-7.853062425550818
-0.1757000000000002,-7.896918475846635
-0.17670000000000008,-7.809206375255003
-0.1777000000000002,-7.809206375255003
-0.17870000000000008,-7.722908985963235
-0.1797000000000002,-7.722908985963235
-0.18070000000000008,-7.722908985963235
-0.1817000000000002,-7.853062425550818
-0.18270000000000008,-7.940774526142452
-0.1837000000000002,-8.070927965730034
-0.1847000000000001,-8.158640066321666
-0.1857000000000002,-8.202496116617484
-0.1867000000000001,-8.11478401602585
-0.1877000000000002,-8.11478401602585
-0.1887000000000001,-8.070927965730034
-0.1897000000000002,-8.070927965730034
-0.1907000000000001,-8.11478401602585
-0.1917000000000001,-8.202496116617484
-0.19269999999999998,-8.288793505909249
-0.1937000000000001,-8.4203616567967
-0.19469999999999998,-8.508073757388331
-0.1957000000000001,-8.55051509638428
-0.19669999999999999,-8.508073757388331
-0.1977000000000001,-8.464217707092514
-0.1987,-8.464217707092514
-0.1997000000000001,-8.4203616567967
-0.2007,-8.464217707092514
-0.2017000000000001,-8.594371146680096
-0.2027,-8.68208324727173
-0.2037000000000001,-8.812236686859313
-0.2047,-8.899948787450944
-0.2057000000000001,-8.943804837746763
-0.2067,-8.899948787450944
-0.2077000000000001,-8.899948787450944
-0.2087,-8.85609273715513
-0.2097000000000001,-8.85609273715513
-0.2107,-8.899948787450944
-0.2117000000000001,-9.031516938338395
-0.2127,-9.161670377925978
-0.2137000000000001,-9.293238528813426
-0.2147,-9.335679867809377
-0.2157000000000001,-9.467248018696827
-0.2167,-9.423391968401008
-0.21770000000000012,-9.379535918105192
-0.2187,-9.335679867809377
-0.21970000000000012,-9.379535918105192
-0.2207,-9.379535918105192
-0.22170000000000012,-9.511104068992642
-0.2227,-9.685113558876042
-0.22370000000000012,-9.81668170976349
-0.2247,-9.902979099055257
-0.22570000000000012,-9.946835149351072
-0.2267,-9.946835149351072
-0.22770000000000012,-9.946835149351072
-0.22870000000000001,-9.902979099055257
-0.22970000000000013,-9.946835149351072
-0.23070000000000002,-9.99069119964689
-0.23170000000000013,-10.120844639234473
-0.23270000000000002,-10.25241279012192
-0.23370000000000013,-10.382566229709504
-0.23470000000000002,-10.470278330301136
-0.23570000000000013,-10.557990430892769
-0.23670000000000002,-10.557990430892769
-0.2376999999999999,-10.557990430892769
-0.23870000000000002,-10.557990430892769
-0.2396999999999999,-10.557990430892769
-0.24070000000000003,-10.644287820184536
-0.24169999999999991,-10.775855971071984
-0.24270000000000003,-10.906009410659568
-0.24369999999999992,-11.081433611842833
-0.24470000000000003,-11.1677310011346
-0.24569999999999992,-11.255443101726232
-0.24670000000000003,-11.299299152022046
-0.24769999999999992,-11.255443101726232
-0.24870000000000003,-11.255443101726232
-0.24969999999999992,-11.299299152022046
-0.25070000000000003,-11.385596541313816
-0.2516999999999999,-11.517164692201263
-0.25270000000000004,-11.691174182084664
-0.2536999999999999,-11.82274233297211
-0.25470000000000004,-11.952895772559694
-0.2556999999999999,-12.040607873151327
-0.25670000000000004,-12.084463923447142
-0.25769999999999993,-12.084463923447142
-0.25870000000000004,-12.084463923447142
-0.25969999999999993,-12.12831997374296
-0.26070000000000004,-12.214617363034726
-0.26169999999999993,-12.346185513922174
-0.26270000000000004,-12.520195003805576
-0.26369999999999993,-12.694204493688973
-0.26470000000000005,-12.825772644576423
-0.26569999999999994,-12.913484745168056
-0.26670000000000005,-12.955926084164007
-0.26769999999999994,-12.955926084164007
-0.26870000000000005,-12.99978213445982
-0.26969999999999994,-13.043638184755638
-0.27070000000000005,-13.13135028534727
-0.27169999999999994,-13.261503724934855
-0.27270000000000005,-13.436927926118118
-0.27369999999999994,-13.654793466297335
-0.27470000000000006,-13.784946905884919
-0.27569999999999995,-13.872659006476551
-0.27670000000000006,-13.916515056772363
-0.27769999999999995,-13.960371107068182
-0.27870000000000006,-13.960371107068182
-0.27969999999999995,-14.046668496359947
-0.28070000000000006,-14.13438059695158
-0.28169999999999995,-14.30273124163552
-0.28270000000000006,-14.486643710617974
-0.28369999999999995,-14.65640906660178
-0.28470000000000006,-14.783733083589633
-0.28569999999999995,-14.925204213576137
-0.28670000000000007,-15.01008689156804
-0.28769999999999996,-15.05252823056399
-0.28870000000000007,-15.05252823056399
-0.28969999999999996,-15.137410908555893
-0.29070000000000007,-15.264734925543747
-0.29169999999999996,-15.448647394526201
-0.29270000000000007,-15.660854089505953
-0.29369999999999996,-15.830619445489761
-0.2947000000000001,-16.014531914472215
-0.29569999999999996,-16.141855931460068
-0.2967000000000001,-16.184297270456018
-0.29769999999999996,-16.269179948447924
-0.2987000000000001,-16.311621287443874
-0.29969999999999997,-16.396503965435777
-0.3007000000000001,-16.53797509542228
-0.30169999999999997,-16.70774045140608
-0.3027000000000001,-16.919947146385837
-0.30369999999999997,-17.103859615368293
-0.3047000000000001,-17.2736249713521
-0.30569999999999997,-17.4433903273359
-0.3067000000000001,-17.542420118326454
-0.3077,-17.584861457322408
-0.3087000000000001,-17.669744135314307
-0.3097,-17.75462681330621
-0.3107000000000001,-17.881950830294063
-0.3117,-18.10830463827247
-0.3127000000000001,-18.320511333252224
-0.3137,-18.589306480226583
-0.3147000000000001,-18.759071836210385
-0.3157,-18.92883719219419
-0.3167000000000001,-19.01371987018609
-0.3177,-19.112749661176647
-0.3187000000000001,-19.197632339168546
-0.3197,-19.3249563561564
-0.3207000000000001,-19.49472171214021
-0.3217,-19.721075520118614
-0.3227000000000001,-19.93328221509837
-0.3237,-20.202077362072725
-0.3247000000000001,-20.371842718056527
-0.3257,-20.541608074040333
-0.3267000000000001,-20.683079204026836
-0.3277,-20.76796188201874
-0.3287000000000001,-20.89528589900659
-0.3297,-21.022609915994444
-0.3307000000000001,-21.149933932982297
-0.3317,-21.461170418952605
-0.3327000000000001,-21.67337711393236
-0.3337,-21.94217226090672
-0.3347000000000001,-22.196820294882425
-0.3357,-22.42317410286083
-0.3367000000000001,-22.550498119848687
-0.3377,-22.67782213683654
-0.3387000000000001,-22.776851927827092
-0.3397,-22.904175944814945
-0.3407000000000001,-23.1163826397947
-0.3417,-23.385177786769056
-0.3427000000000001,-23.639825820744765
-0.3437,-23.908620967719123
-0.3447000000000001,-24.16326900169483
-0.3457,-24.389622809673234
-0.3467000000000001,-24.516946826661083
-0.3477,-24.686712182644893
-0.3487000000000001,-24.814036199632742
-0.3497,-24.95550732961925
-0.3507000000000001,-25.167714024599
-0.3517,-25.43650917157336
-0.3527000000000001,-25.77603988354097
-0.3537,-26.044835030515326
-0.3547000000000001,-26.29948306449103
-0.3557,-26.568278211465387
-0.35670000000000013,-26.738043567449193
-0.3577,-26.86536758443705
-0.35870000000000013,-27.049280053419505
-0.3597,-27.219045409403304
-0.36070000000000013,-27.43125210438306
-0.3617,-27.742488590353368
-0.3626999999999999,-28.05372507632368
-0.3637,-28.350814449295335
-0.3646999999999999,-28.662050935265643
-0.3657,-28.8742576302454
-0.3666999999999999,-29.100611438223805
-0.3677,-29.27037679420761
-0.3686999999999999,-29.440142150191413
-0.36970000000000003,-29.66649595816982
-0.3706999999999999,-29.878702653149578
-0.37170000000000003,-30.232380478115836
-0.3726999999999999,-30.529469851087494
-0.37370000000000003,-30.88314767605375
-0.3746999999999999,-31.19438416202406
-0.37570000000000003,-31.449032195999767
-0.3766999999999999,-31.661238890979522
-0.37770000000000004,-31.887592698957924
-0.3786999999999999,-32.05735805494172
-0.37970000000000004,-32.283711862920136
-0.3806999999999999,-32.53835989689585
-0.38170000000000004,-32.892037721862096
-0.38269999999999993,-33.231568433829715
-0.38370000000000004,-33.58524625879597
-0.38469999999999993,-33.89648274476628
-0.38570000000000004,-34.193572117737936
-0.38669999999999993,-34.41992592571634
-0.38770000000000004,-34.67457395969205
-0.38869999999999993,-34.85848642867451
-0.38970000000000005,-35.11313446265021
-0.39069999999999994,-35.38192960962457
-0.39170000000000005,-35.763901660588125
-0.39269999999999994,-36.11757948555439
-0.39370000000000005,-36.5136986495166
-0.39469999999999994,-36.81078802248826
-0.39570000000000005,-37.164465847454515
-0.39669999999999994,-37.41911388143023
-0.39770000000000005,-37.687909028404576
-0.39869999999999994,-37.90011572338433
-0.39970000000000006,-38.16891087035869
-0.40069999999999995,-38.42355890433439
-0.40170000000000006,-38.81967806829661
-0.40269999999999995,-39.21579723225882
-0.40370000000000006,-39.61191639622103
-0.40469999999999995,-39.95144710818864
-0.40570000000000006,-40.30512493315489
-0.40669999999999995,-40.559772967130606
-0.40770000000000006,-40.828568114104954
-0.40869999999999995,-41.083216148080666
-0.40970000000000006,-41.352011295055014
-0.41069999999999995,-41.66324778102533
-0.41170000000000007,-42.087661170984845
-0.41269999999999996,-42.483780334947056
-0.41370000000000007,-42.92234083790521
-0.41469999999999996,-43.27601866287147
-0.41570000000000007,-43.657990713835034
-0.41669999999999996,-43.92678586080939
-0.41770000000000007,-44.223875233781044
-0.41869999999999996,-44.535111719751356
-0.4197000000000001,-44.84634820572166
-0.42069999999999996,-45.18587891768927
-0.4217000000000001,-45.581998081651484
-0.42269999999999996,-46.02055858460964
-0.4237000000000001,-46.45911908756781
-0.42469999999999997,-46.88353247752732
-0.4257000000000001,-47.27965164148953
-0.42669999999999997,-47.590888127459834
-0.4277000000000001,-47.8879775004315
-0.42869999999999997,-48.156772647405845
-0.4297000000000001,-48.51045047237211
-0.43069999999999997,-48.84998118433972
-0.4317000000000001,-49.28854168729788
-0.4327,-49.76954352925199
-0.4337000000000001,-50.20810403221015
-0.4347,-50.64666453516831
-0.4357000000000001,-51.071077925127824
-0.4367,-51.38231441109813
-0.4377000000000001,-51.73599223606439
-0.4387,-52.033081609036046
-0.4397000000000001,-52.42920077299826
-0.4407,-52.78287859796452
-0.4417000000000001,-53.26388043991864
-0.4427,-53.74488228187274
-0.4437000000000001,-54.2117370108282
-0.4447,-54.65029751378637
-0.4457000000000001,-55.13129935574048
-0.4467,-55.484977180706736
-0.4477000000000001,-55.838655005673
-0.4487,-56.1781857176406
-0.4497000000000001,-56.57430488160282
-0.4507,-56.97042404556503
-0.4517000000000001,-57.45142588751914
-0.4527,-57.974869068469204
-0.4537000000000001,-58.498312249419264
-0.4547,-58.92272563937878
-0.4557000000000001,-59.403727481332886
-0.4567,-59.7998466452951
-0.4577000000000001,-60.19596580925731
-0.4587,-60.54964363422357
-0.4597000000000001,-60.93161568518713
-0.4607,-61.37017618814529
-0.4617000000000001,-61.851178030099405
-0.4627,-62.37462121104946
-0.4637000000000001,-62.94050573099548
-0.4647,-63.421507572949594
-0.4657000000000001,-63.944950753899654
-0.4667,-64.34106991786187
-0.4677000000000001,-64.77963042082003
-0.4687,-65.11916113278764
-0.4697000000000001,-65.5577216357458
-0.4707,-65.99628213870396
-0.4717000000000001,-66.51972531965401
-0.4727,-67.08560983960004
-0.4737000000000001,-67.65149435954605
-0.4747,-68.17493754049613
-0.4757000000000001,-68.74082206044213
-0.4767,-69.1793825634003
-0.4777000000000001,-69.61794306635846
-0.4787,-70.01406223032066
-0.4797000000000001,-70.43847562028017
-0.4807,-70.91947746223428
-0.48170000000000013,-71.48536198218031
-0.4827,-72.05124650212633
-0.48370000000000013,-72.67371947406694
-0.4847,-73.23960399401295
-0.48570000000000013,-73.76304717496302
-0.4867,-73.3669280110008
-0.48570000000000013,-71.92392248513846
-0.4847,-70.79215344524643
-0.48370000000000013,-69.8301497613382
-0.4827,-69.0096172074165
-0.48170000000000013,-68.34470289647993
-0.4807,-67.65149435954605
-0.4797000000000001,-67.04316850060408
-0.4787,-66.39240130266617
-0.4777000000000001,-65.7274869917296
-0.4767,-64.99183711579978
-0.4757000000000001,-64.29862857886593
-0.4747,-63.54883158993744
-0.4737000000000001,-62.89806439199953
-0.4727,-62.28973853305756
-0.4717000000000001,-61.72385401311155
-0.4707,-61.15796949316553
-0.4697000000000001,-60.63452631221547
-0.4687,-60.06864179226946
-0.4677000000000001,-59.502757272323436
-0.4667,-58.880284300382826
-0.4657000000000001,-58.18707576344896
-0.4647,-57.53630856551105
-0.4637000000000001,-56.927982706569075
-0.4627,-56.30550973462846
-0.4617000000000001,-55.7820665536784
