July 11, 2024   23:50:38
Cyclic Voltammetry
File: c:/users/guazh/data/20240709_batch67/2024-07-10-exp16\exp16-2024-07-11t23_42_05-arkoh\exp16_cv_50mvs_efin_-1500mv.bin
Data Source:  Experiment
Instrument Model:  CHI760E
Header: CV ran at 50 mVs
Note: 

Init E (V) = -1
High E (V) = -1
Low E (V) = -1.5
Final E (V) = -1
Init P/N = N
Scan Rate (V/s) = 0.05
Segment = 7
Sample Interval (V) = 0.001
Quiet Time (sec) = 60
Sensitivity (A/V) = 0.001
Comp R (ohm) = 1.5

Results:

Channel 1:
Segment 1:

Segment 2:

Segment 3:

Segment 4:

Segment 5:

Segment 6:

Segment 7:

Potential/V, Current/A

-1.000, 2.015e-5
-1.001, 3.520e-5
-1.002, 3.740e-5
-1.003, 3.971e-5
-1.004, 4.401e-5
-1.005, 4.701e-5
-1.006, 4.680e-5
-1.007, 4.571e-5
-1.008, 4.612e-5
-1.009, 4.927e-5
-1.010, 5.185e-5
-1.011, 5.097e-5
-1.012, 4.943e-5
-1.013, 4.976e-5
-1.014, 5.263e-5
-1.015, 5.501e-5
-1.016, 5.366e-5
-1.017, 5.181e-5
-1.018, 5.233e-5
-1.019, 5.490e-5
-1.020, 5.706e-5
-1.021, 5.572e-5
-1.022, 5.373e-5
-1.023, 5.440e-5
-1.024, 5.704e-5
-1.025, 5.866e-5
-1.026, 5.757e-5
-1.027, 5.528e-5
-1.028, 5.584e-5
-1.029, 5.826e-5
-1.030, 6.028e-5
-1.031, 5.899e-5
-1.032, 5.672e-5
-1.033, 5.726e-5
-1.034, 5.985e-5
-1.035, 6.157e-5
-1.036, 6.045e-5
-1.037, 5.800e-5
-1.038, 5.848e-5
-1.039, 6.133e-5
-1.040, 6.272e-5
-1.041, 6.155e-5
-1.042, 5.951e-5
-1.043, 5.969e-5
-1.044, 6.260e-5
-1.045, 6.411e-5
-1.046, 6.276e-5
-1.047, 6.080e-5
-1.048, 6.097e-5
-1.049, 6.389e-5
-1.050, 6.541e-5
-1.051, 6.394e-5
-1.052, 6.206e-5
-1.053, 6.244e-5
-1.054, 6.514e-5
-1.055, 6.688e-5
-1.056, 6.531e-5
-1.057, 6.315e-5
-1.058, 6.388e-5
-1.059, 6.648e-5
-1.060, 6.810e-5
-1.061, 6.680e-5
-1.062, 6.453e-5
-1.063, 6.542e-5
-1.064, 6.765e-5
-1.065, 6.949e-5
-1.066, 6.834e-5
-1.067, 6.595e-5
-1.068, 6.678e-5
-1.069, 6.935e-5
-1.070, 7.099e-5
-1.071, 6.986e-5
-1.072, 6.745e-5
-1.073, 6.826e-5
-1.074, 7.099e-5
-1.075, 7.287e-5
-1.076, 7.142e-5
-1.077, 6.932e-5
-1.078, 6.972e-5
-1.079, 7.278e-5
-1.080, 7.419e-5
-1.081, 7.301e-5
-1.082, 7.107e-5
-1.083, 7.134e-5
-1.084, 7.461e-5
-1.085, 7.594e-5
-1.086, 7.466e-5
-1.087, 7.272e-5
-1.088, 7.337e-5
-1.089, 7.625e-5
-1.090, 7.797e-5
-1.091, 7.651e-5
-1.092, 7.481e-5
-1.093, 7.534e-5
-1.094, 7.829e-5
-1.095, 8.000e-5
-1.096, 7.857e-5
-1.097, 7.670e-5
-1.098, 7.744e-5
-1.099, 8.041e-5
-1.100, 8.222e-5
-1.101, 8.073e-5
-1.102, 7.888e-5
-1.103, 7.984e-5
-1.104, 8.255e-5
-1.105, 8.420e-5
-1.106, 8.328e-5
-1.107, 8.117e-5
-1.108, 8.224e-5
-1.109, 8.511e-5
-1.110, 8.677e-5
-1.111, 8.556e-5
-1.112, 8.370e-5
-1.113, 8.477e-5
-1.114, 8.792e-5
-1.115, 8.929e-5
-1.116, 8.835e-5
-1.117, 8.637e-5
-1.118, 8.738e-5
-1.119, 9.087e-5
-1.120, 9.208e-5
-1.121, 9.101e-5
-1.122, 8.957e-5
-1.123, 9.038e-5
-1.124, 9.362e-5
-1.125, 9.536e-5
-1.126, 9.415e-5
-1.127, 9.287e-5
-1.128, 9.344e-5
-1.129, 9.692e-5
-1.130, 9.861e-5
-1.131, 9.747e-5
-1.132, 9.621e-5
-1.133, 9.714e-5
-1.134, 1.003e-4
-1.135, 1.024e-4
-1.136, 1.010e-4
-1.137, 9.958e-5
-1.138, 1.009e-4
-1.139, 1.041e-4
-1.140, 1.062e-4
-1.141, 1.049e-4
-1.142, 1.035e-4
-1.143, 1.052e-4
-1.144, 1.083e-4
-1.145, 1.104e-4
-1.146, 1.093e-4
-1.147, 1.078e-4
-1.148, 1.096e-4
-1.149, 1.129e-4
-1.150, 1.148e-4
-1.151, 1.141e-4
-1.152, 1.127e-4
-1.153, 1.142e-4
-1.154, 1.179e-4
-1.155, 1.196e-4
-1.156, 1.192e-4
-1.157, 1.178e-4
-1.158, 1.194e-4
-1.159, 1.233e-4
-1.160, 1.252e-4
-1.161, 1.245e-4
-1.162, 1.235e-4
-1.163, 1.251e-4
-1.164, 1.292e-4
-1.165, 1.311e-4
-1.166, 1.305e-4
-1.167, 1.298e-4
-1.168, 1.316e-4
-1.169, 1.353e-4
-1.170, 1.380e-4
-1.171, 1.371e-4
-1.172, 1.367e-4
-1.173, 1.384e-4
-1.174, 1.423e-4
-1.175, 1.449e-4
-1.176, 1.444e-4
-1.177, 1.440e-4
-1.178, 1.464e-4
-1.179, 1.501e-4
-1.180, 1.530e-4
-1.181, 1.522e-4
-1.182, 1.519e-4
-1.183, 1.545e-4
-1.184, 1.586e-4
-1.185, 1.612e-4
-1.186, 1.612e-4
-1.187, 1.607e-4
-1.188, 1.635e-4
-1.189, 1.677e-4
-1.190, 1.707e-4
-1.191, 1.707e-4
-1.192, 1.705e-4
-1.193, 1.733e-4
-1.194, 1.781e-4
-1.195, 1.809e-4
-1.196, 1.813e-4
-1.197, 1.810e-4
-1.198, 1.842e-4
-1.199, 1.893e-4
-1.200, 1.923e-4
-1.201, 1.927e-4
-1.202, 1.930e-4
-1.203, 1.962e-4
-1.204, 2.017e-4
-1.205, 2.048e-4
-1.206, 2.053e-4
-1.207, 2.061e-4
-1.208, 2.093e-4
-1.209, 2.149e-4
-1.210, 2.185e-4
-1.211, 2.192e-4
-1.212, 2.202e-4
-1.213, 2.238e-4
-1.214, 2.296e-4
-1.215, 2.337e-4
-1.216, 2.345e-4
-1.217, 2.357e-4
-1.218, 2.399e-4
-1.219, 2.454e-4
-1.220, 2.501e-4
-1.221, 2.513e-4
-1.222, 2.527e-4
-1.223, 2.574e-4
-1.224, 2.634e-4
-1.225, 2.680e-4
-1.226, 2.697e-4
-1.227, 2.715e-4
-1.228, 2.766e-4
-1.229, 2.836e-4
-1.230, 2.880e-4
-1.231, 2.901e-4
-1.232, 2.920e-4
-1.233, 2.974e-4
-1.234, 3.043e-4
-1.235, 3.095e-4
-1.236, 3.121e-4
-1.237, 3.146e-4
-1.238, 3.202e-4
-1.239, 3.277e-4
-1.240, 3.332e-4
-1.241, 3.361e-4
-1.242, 3.392e-4
-1.243, 3.452e-4
-1.244, 3.533e-4
-1.245, 3.591e-4
-1.246, 3.625e-4
-1.247, 3.662e-4
-1.248, 3.726e-4
-1.249, 3.811e-4
-1.250, 3.878e-4
-1.251, 3.914e-4
-1.252, 3.958e-4
-1.253, 4.028e-4
-1.254, 4.117e-4
-1.255, 4.190e-4
-1.256, 4.232e-4
-1.257, 4.279e-4
-1.258, 4.359e-4
-1.259, 4.451e-4
-1.260, 4.529e-4
-1.261, 4.579e-4
-1.262, 4.632e-4
-1.263, 4.719e-4
-1.264, 4.816e-4
-1.265, 4.901e-4
-1.266, 4.960e-4
-1.267, 5.017e-4
-1.268, 5.111e-4
-1.269, 5.217e-4
-1.270, 5.307e-4
-1.271, 5.374e-4
-1.272, 5.437e-4
-1.273, 5.537e-4
-1.274, 5.652e-4
-1.275, 5.747e-4
-1.276, 5.821e-4
-1.277, 5.894e-4
-1.278, 6.000e-4
-1.279, 6.122e-4
-1.280, 6.230e-4
-1.281, 6.308e-4
-1.282, 6.389e-4
-1.283, 6.501e-4
-1.284, 6.635e-4
-1.285, 6.743e-4
-1.286, 6.831e-4
-1.287, 6.922e-4
-1.288, 7.041e-4
-1.289, 7.180e-4
-1.290, 7.300e-4
-1.291, 7.393e-4
-1.292, 7.493e-4
-1.293, 7.620e-4
-1.294, 7.766e-4
-1.295, 7.895e-4
-1.296, 7.996e-4
-1.297, 8.103e-4
-1.298, 8.242e-4
-1.299, 8.393e-4
-1.300, 8.531e-4
-1.301, 8.641e-4
-1.302, 8.756e-4
-1.303, 8.902e-4
-1.304, 9.081e-4
-1.305, 9.198e-4
-1.306, 9.316e-4
-1.307, 9.434e-4
-1.308, 9.590e-4
-1.309, 9.758e-4
-1.310, 9.911e-4
-1.311, 1.004e-3
-1.312, 1.017e-3
-1.313, 1.034e-3
-1.314, 1.051e-3
-1.315, 1.067e-3
-1.316, 1.081e-3
-1.317, 1.095e-3
-1.318, 1.112e-3
-1.319, 1.131e-3
-1.320, 1.150e-3
-1.321, 1.163e-3
-1.322, 1.178e-3
-1.323, 1.196e-3
-1.324, 1.216e-3
-1.325, 1.233e-3
-1.326, 1.248e-3
-1.327, 1.264e-3
-1.328, 1.283e-3
-1.329, 1.304e-3
-1.330, 1.323e-3
-1.331, 1.339e-3
-1.332, 1.356e-3
-1.333, 1.376e-3
-1.334, 1.397e-3
-1.335, 1.417e-3
-1.336, 1.434e-3
-1.337, 1.452e-3
-1.338, 1.473e-3
-1.339, 1.495e-3
-1.340, 1.516e-3
-1.341, 1.534e-3
-1.342, 1.553e-3
-1.343, 1.575e-3
-1.344, 1.598e-3
-1.345, 1.620e-3
-1.346, 1.639e-3
-1.347, 1.658e-3
-1.348, 1.681e-3
-1.349, 1.707e-3
-1.350, 1.728e-3
-1.351, 1.748e-3
-1.352, 1.768e-3
-1.353, 1.792e-3
-1.354, 1.817e-3
-1.355, 1.840e-3
-1.356, 1.862e-3
-1.357, 1.883e-3
-1.358, 1.908e-3
-1.359, 1.934e-3
-1.360, 1.959e-3
-1.361, 1.981e-3
-1.362, 2.004e-3
-1.363, 2.029e-3
-1.364, 2.056e-3
-1.365, 2.081e-3
-1.366, 2.105e-3
-1.367, 2.128e-3
-1.368, 2.155e-3
-1.369, 2.183e-3
-1.370, 2.211e-3
-1.371, 2.234e-3
-1.372, 2.260e-3
-1.373, 2.286e-3
-1.374, 2.317e-3
-1.375, 2.341e-3
-1.376, 2.366e-3
-1.377, 2.392e-3
-1.378, 2.423e-3
-1.379, 2.451e-3
-1.380, 2.481e-3
-1.381, 2.505e-3
-1.382, 2.532e-3
-1.383, 2.561e-3
-1.384, 2.593e-3
-1.385, 2.621e-3
-1.386, 2.649e-3
-1.387, 2.676e-3
-1.388, 2.707e-3
-1.389, 2.741e-3
-1.390, 2.770e-3
-1.391, 2.798e-3
-1.392, 2.825e-3
-1.393, 2.858e-3
-1.394, 2.891e-3
-1.395, 2.922e-3
-1.396, 2.952e-3
-1.397, 2.982e-3
-1.398, 3.016e-3
-1.399, 3.049e-3
-1.400, 3.080e-3
-1.401, 3.110e-3
-1.402, 3.141e-3
-1.403, 3.176e-3
-1.404, 3.210e-3
-1.405, 3.243e-3
-1.406, 3.273e-3
-1.407, 3.304e-3
-1.408, 3.339e-3
-1.409, 3.376e-3
-1.410, 3.410e-3
-1.411, 3.439e-3
-1.412, 3.472e-3
-1.413, 3.506e-3
-1.414, 3.540e-3
-1.415, 3.574e-3
-1.416, 3.604e-3
-1.417, 3.639e-3
-1.418, 3.674e-3
-1.419, 3.711e-3
-1.420, 3.749e-3
-1.421, 3.780e-3
-1.422, 3.813e-3
-1.423, 3.848e-3
-1.424, 3.884e-3
-1.425, 3.921e-3
-1.426, 3.958e-3
-1.427, 3.990e-3
-1.428, 4.025e-3
-1.429, 4.057e-3
-1.430, 4.096e-3
-1.431, 4.130e-3
-1.432, 4.165e-3
-1.433, 4.203e-3
-1.434, 4.242e-3
-1.435, 4.280e-3
-1.436, 4.316e-3
-1.437, 4.353e-3
-1.438, 4.387e-3
-1.439, 4.423e-3
-1.440, 4.460e-3
-1.441, 4.495e-3
-1.442, 4.536e-3
-1.443, 4.565e-3
-1.444, 4.604e-3
-1.445, 4.634e-3
-1.446, 4.666e-3
-1.447, 4.706e-3
-1.448, 4.735e-3
-1.449, 4.773e-3
-1.450, 4.805e-3
-1.451, 4.838e-3
-1.452, 4.871e-3
-1.453, 4.913e-3
-1.454, 4.948e-3
-1.455, 4.979e-3
-1.456, 5.009e-3
-1.457, 5.039e-3
-1.458, 5.081e-3
-1.459, 5.125e-3
-1.460, 5.152e-3
-1.461, 5.188e-3
-1.462, 5.224e-3
-1.463, 5.259e-3
-1.464, 5.294e-3
-1.465, 5.337e-3
-1.466, 5.358e-3
-1.467, 5.400e-3
-1.468, 5.435e-3
-1.469, 5.474e-3
-1.470, 5.520e-3
-1.471, 5.557e-3
-1.472, 5.617e-3
-1.473, 5.637e-3
-1.474, 5.653e-3
-1.475, 5.698e-3
-1.476, 5.728e-3
-1.477, 5.765e-3
-1.478, 5.808e-3
-1.479, 5.842e-3
-1.480, 5.877e-3
-1.481, 5.905e-3
-1.482, 5.972e-3
-1.483, 5.976e-3
-1.484, 6.015e-3
-1.485, 6.055e-3
-1.486, 6.088e-3
-1.487, 6.135e-3
-1.488, 6.176e-3
-1.489, 6.220e-3
-1.490, 6.269e-3
-1.491, 6.283e-3
-1.492, 6.311e-3
-1.493, 6.366e-3
-1.494, 6.430e-3
-1.495, 6.440e-3
-1.496, 6.493e-3
-1.497, 6.557e-3
-1.498, 6.608e-3
-1.499, 6.632e-3
-1.500, 6.595e-3
-1.499, 6.529e-3
-1.498, 6.456e-3
-1.497, 6.407e-3
-1.496, 6.346e-3
-1.495, 6.285e-3
-1.494, 6.238e-3
-1.493, 6.190e-3
-1.492, 6.119e-3
-1.491, 6.074e-3
-1.490, 6.015e-3
-1.489, 5.943e-3
-1.488, 5.889e-3
-1.487, 5.829e-3
-1.486, 5.775e-3
-1.485, 5.728e-3
-1.484, 5.682e-3
-1.483, 5.626e-3
-1.482, 5.566e-3
-1.481, 5.511e-3
-1.480, 5.456e-3
-1.479, 5.413e-3
-1.478, 5.358e-3
-1.477, 5.305e-3
-1.476, 5.256e-3
-1.475, 5.202e-3
-1.474, 5.158e-3
-1.473, 5.106e-3
-1.472, 5.062e-3
-1.471, 4.995e-3
-1.470, 4.964e-3
-1.469, 4.917e-3
-1.468, 4.862e-3
-1.467, 4.826e-3
-1.466, 4.784e-3
-1.465, 4.732e-3
-1.464, 4.686e-3
-1.463, 4.623e-3
-1.462, 4.579e-3
-1.461, 4.544e-3
-1.460, 4.500e-3
-1.459, 4.456e-3
-1.458, 4.411e-3
-1.457, 4.387e-3
-1.456, 4.342e-3
-1.455, 4.296e-3
-1.454, 4.250e-3
-1.453, 4.216e-3
-1.452, 4.174e-3
-1.451, 4.139e-3
-1.450, 4.100e-3
-1.449, 4.053e-3
-1.448, 4.006e-3
-1.447, 3.961e-3
-1.446, 3.924e-3
-1.445, 3.885e-3
-1.444, 3.840e-3
-1.443, 3.797e-3
-1.442, 3.812e-3
-1.441, 3.754e-3
-1.440, 3.721e-3
-1.439, 3.673e-3
-1.438, 3.638e-3
-1.437, 3.600e-3
-1.436, 3.564e-3
-1.435, 3.535e-3
-1.434, 3.499e-3
-1.433, 3.468e-3
-1.432, 3.420e-3
-1.431, 3.387e-3
-1.430, 3.357e-3
-1.429, 3.315e-3
-1.428, 3.267e-3
-1.427, 3.240e-3
-1.426, 3.198e-3
-1.425, 3.170e-3
-1.424, 3.140e-3
-1.423, 3.109e-3
-1.422, 3.082e-3
-1.421, 3.077e-3
-1.420, 3.020e-3
-1.419, 2.974e-3
-1.418, 2.939e-3
-1.417, 2.907e-3
-1.416, 2.894e-3
-1.415, 2.862e-3
-1.414, 2.828e-3
-1.413, 2.799e-3
-1.412, 2.770e-3
-1.411, 2.741e-3
-1.410, 2.709e-3
-1.409, 2.680e-3
-1.408, 2.647e-3
-1.407, 2.623e-3
-1.406, 2.597e-3
-1.405, 2.566e-3
-1.404, 2.539e-3
-1.403, 2.505e-3
-1.402, 2.483e-3
-1.401, 2.457e-3
-1.400, 2.426e-3
-1.399, 2.412e-3
-1.398, 2.384e-3
-1.397, 2.358e-3
-1.396, 2.332e-3
-1.395, 2.305e-3
-1.394, 2.275e-3
-1.393, 2.243e-3
-1.392, 2.223e-3
-1.391, 2.197e-3
-1.390, 2.181e-3
-1.389, 2.155e-3
-1.388, 2.129e-3
-1.387, 2.098e-3
-1.386, 2.077e-3
-1.385, 2.087e-3
-1.384, 2.042e-3
-1.383, 2.029e-3
-1.382, 2.003e-3
-1.381, 1.977e-3
-1.380, 1.948e-3
-1.379, 1.925e-3
-1.378, 1.903e-3
-1.377, 1.881e-3
-1.376, 1.862e-3
-1.375, 1.842e-3
-1.374, 1.818e-3
-1.373, 1.798e-3
-1.372, 1.777e-3
-1.371, 1.779e-3
-1.370, 1.736e-3
-1.369, 1.709e-3
-1.368, 1.687e-3
-1.367, 1.670e-3
-1.366, 1.655e-3
-1.365, 1.628e-3
-1.364, 1.608e-3
-1.363, 1.583e-3
-1.362, 1.568e-3
-1.361, 1.552e-3
-1.360, 1.530e-3
-1.359, 1.509e-3
-1.358, 1.493e-3
-1.357, 1.471e-3
-1.356, 1.454e-3
-1.355, 1.433e-3
-1.354, 1.421e-3
-1.353, 1.390e-3
-1.352, 1.377e-3
-1.351, 1.363e-3
-1.350, 1.351e-3
-1.349, 1.329e-3
-1.348, 1.308e-3
-1.347, 1.292e-3
-1.346, 1.276e-3
-1.345, 1.267e-3
-1.344, 1.259e-3
-1.343, 1.237e-3
-1.342, 1.209e-3
-1.341, 1.194e-3
-1.340, 1.177e-3
-1.339, 1.159e-3
-1.338, 1.141e-3
-1.337, 1.142e-3
-1.336, 1.130e-3
-1.335, 1.114e-3
-1.334, 1.088e-3
-1.333, 1.067e-3
-1.332, 1.058e-3
-1.331, 1.046e-3
-1.330, 1.028e-3
-1.329, 1.013e-3
-1.328, 9.969e-4
-1.327, 9.819e-4
-1.326, 9.696e-4
-1.325, 9.647e-4
-1.324, 9.477e-4
-1.323, 9.264e-4
-1.322, 9.120e-4
-1.321, 9.040e-4
-1.320, 8.902e-4
-1.319, 8.712e-4
-1.318, 8.552e-4
-1.317, 8.448e-4
-1.316, 8.333e-4
-1.315, 8.213e-4
-1.314, 8.077e-4
-1.313, 7.971e-4
-1.312, 7.846e-4
-1.311, 7.890e-4
-1.310, 7.737e-4
-1.309, 7.598e-4
-1.308, 7.441e-4
-1.307, 7.321e-4
-1.306, 7.210e-4
-1.305, 7.074e-4
-1.304, 6.950e-4
-1.303, 6.824e-4
-1.302, 6.718e-4
-1.301, 6.628e-4
-1.300, 6.524e-4
-1.299, 6.398e-4
-1.298, 6.329e-4
-1.297, 6.221e-4
-1.296, 6.086e-4
-1.295, 5.996e-4
-1.294, 5.876e-4
-1.293, 5.758e-4
-1.292, 5.908e-4
-1.291, 5.658e-4
-1.290, 5.511e-4
-1.289, 5.391e-4
-1.288, 5.262e-4
-1.287, 5.175e-4
-1.286, 5.114e-4
-1.285, 5.022e-4
-1.284, 4.911e-4
-1.283, 4.828e-4
-1.282, 4.772e-4
-1.281, 4.709e-4
-1.280, 4.615e-4
-1.279, 4.495e-4
-1.278, 4.418e-4
-1.277, 4.313e-4
-1.276, 4.241e-4
-1.275, 4.163e-4
-1.274, 4.064e-4
-1.273, 3.962e-4
-1.272, 3.892e-4
-1.271, 3.838e-4
-1.270, 3.761e-4
-1.269, 3.669e-4
-1.268, 3.580e-4
-1.267, 3.514e-4
-1.266, 3.464e-4
-1.265, 3.382e-4
-1.264, 3.291e-4
-1.263, 3.221e-4
-1.262, 3.154e-4
-1.261, 3.118e-4
-1.260, 3.060e-4
-1.259, 2.973e-4
-1.258, 2.864e-4
-1.257, 2.803e-4
-1.256, 2.768e-4
-1.255, 2.700e-4
-1.254, 2.615e-4
-1.253, 2.536e-4
-1.252, 2.481e-4
-1.251, 2.448e-4
-1.250, 2.402e-4
-1.249, 2.322e-4
-1.248, 2.244e-4
-1.247, 2.195e-4
-1.246, 2.158e-4
-1.245, 2.111e-4
-1.244, 2.038e-4
-1.243, 1.967e-4
-1.242, 1.935e-4
-1.241, 1.898e-4
-1.240, 1.852e-4
-1.239, 1.779e-4
-1.238, 1.707e-4
-1.237, 1.672e-4
-1.236, 1.644e-4
-1.235, 1.592e-4
-1.234, 1.530e-4
-1.233, 1.502e-4
-1.232, 1.455e-4
-1.231, 1.417e-4
-1.230, 1.369e-4
-1.229, 1.299e-4
-1.228, 1.241e-4
-1.227, 1.204e-4
-1.226, 1.181e-4
-1.225, 1.143e-4
-1.224, 1.090e-4
-1.223, 1.032e-4
-1.222, 9.956e-5
-1.221, 9.790e-5
-1.220, 9.699e-5
-1.219, 8.986e-5
-1.218, 8.377e-5
-1.217, 8.140e-5
-1.216, 8.013e-5
-1.215, 7.689e-5
-1.214, 7.119e-5
-1.213, 6.613e-5
-1.212, 6.354e-5
-1.211, 6.232e-5
-1.210, 5.975e-5
-1.209, 5.449e-5
-1.208, 4.983e-5
-1.207, 4.760e-5
-1.206, 4.751e-5
-1.205, 4.564e-5
-1.204, 4.061e-5
-1.203, 3.480e-5
-1.202, 3.270e-5
-1.201, 3.217e-5
-1.200, 3.080e-5
-1.199, 2.561e-5
-1.198, 2.122e-5
-1.197, 2.043e-5
-1.196, 1.994e-5
-1.195, 1.844e-5
-1.194, 1.324e-5
-1.193, 8.762e-6
-1.192, 7.215e-6
-1.191, 7.010e-6
-1.190, 5.097e-6
-1.189, 1.131e-6
-1.188, -2.880e-6
-1.187, -4.307e-6
-1.186, -3.956e-6
-1.185, -5.565e-6
-1.184, -8.988e-6
-1.183, -1.281e-5
-1.182, -1.441e-5
-1.181, -1.412e-5
-1.180, -1.563e-5
-1.179, -1.937e-5
-1.178, -2.285e-5
-1.177, -2.412e-5
-1.176, -2.371e-5
-1.175, -2.472e-5
-1.174, -2.848e-5
-1.173, -3.181e-5
-1.172, -3.285e-5
-1.171, -3.227e-5
-1.170, -3.320e-5
-1.169, -3.679e-5
-1.168, -3.974e-5
-1.167, -4.067e-5
-1.166, -4.006e-5
-1.165, -4.063e-5
-1.164, -4.406e-5
-1.163, -4.725e-5
-1.162, -4.775e-5
-1.161, -4.718e-5
-1.160, -4.739e-5
-1.159, -5.060e-5
-1.158, -5.377e-5
-1.157, -5.401e-5
-1.156, -5.326e-5
-1.155, -5.389e-5
-1.154, -5.660e-5
-1.153, -5.969e-5
-1.152, -5.992e-5
-1.151, -5.905e-5
-1.150, -5.948e-5
-1.149, -6.229e-5
-1.148, -6.523e-5
-1.147, -6.550e-5
-1.146, -6.434e-5
-1.145, -6.463e-5
-1.144, -6.722e-5
-1.143, -7.002e-5
-1.142, -7.069e-5
-1.141, -6.894e-5
-1.140, -6.927e-5
-1.139, -7.285e-5
-1.138, -7.555e-5
-1.137, -7.620e-5
-1.136, -7.431e-5
-1.135, -7.418e-5
-1.134, -7.707e-5
-1.133, -8.016e-5
-1.132, -7.981e-5
-1.131, -7.829e-5
-1.130, -7.823e-5
-1.129, -8.092e-5
-1.128, -8.342e-5
-1.127, -8.343e-5
-1.126, -8.214e-5
-1.125, -8.179e-5
-1.124, -8.434e-5
-1.123, -8.682e-5
-1.122, -8.697e-5
-1.121, -8.565e-5
-1.120, -8.519e-5
-1.119, -8.769e-5
-1.118, -9.026e-5
-1.117, -9.032e-5
-1.116, -8.882e-5
-1.115, -8.869e-5
-1.114, -9.089e-5
-1.113, -9.345e-5
-1.112, -9.339e-5
-1.111, -9.203e-5
-1.110, -9.198e-5
-1.109, -9.401e-5
-1.108, -9.651e-5
-1.107, -9.651e-5
-1.106, -9.493e-5
-1.105, -9.480e-5
-1.104, -9.665e-5
-1.103, -9.912e-5
-1.102, -9.948e-5
-1.101, -9.779e-5
-1.100, -9.763e-5
-1.099, -1.014e-4
-1.098, -1.023e-4
-1.097, -1.025e-4
-1.096, -1.005e-4
-1.095, -1.003e-4
-1.094, -1.030e-4
-1.093, -1.051e-4
-1.092, -1.054e-4
-1.091, -1.037e-4
-1.090, -1.031e-4
-1.089, -1.055e-4
-1.088, -1.078e-4
-1.087, -1.078e-4
-1.086, -1.063e-4
-1.085, -1.060e-4
-1.084, -1.083e-4
-1.083, -1.106e-4
-1.082, -1.108e-4
-1.081, -1.095e-4
-1.080, -1.094e-4
-1.079, -1.112e-4
-1.078, -1.138e-4
-1.077, -1.139e-4
-1.076, -1.133e-4
-1.075, -1.126e-4
-1.074, -1.145e-4
-1.073, -1.171e-4
-1.072, -1.171e-4
-1.071, -1.155e-4
-1.070, -1.154e-4
-1.069, -1.176e-4
-1.068, -1.201e-4
-1.067, -1.206e-4
-1.066, -1.190e-4
-1.065, -1.189e-4
-1.064, -1.213e-4
-1.063, -1.241e-4
-1.062, -1.244e-4
-1.061, -1.229e-4
-1.060, -1.246e-4
-1.059, -1.269e-4
-1.058, -1.283e-4
-1.057, -1.290e-4
-1.056, -1.273e-4
-1.055, -1.271e-4
-1.054, -1.297e-4
-1.053, -1.323e-4
-1.052, -1.334e-4
-1.051, -1.317e-4
-1.050, -1.318e-4
-1.049, -1.345e-4
-1.048, -1.370e-4
-1.047, -1.379e-4
-1.046, -1.368e-4
-1.045, -1.367e-4
-1.044, -1.393e-4
-1.043, -1.425e-4
-1.042, -1.432e-4
-1.041, -1.423e-4
-1.040, -1.423e-4
-1.039, -1.449e-4
-1.038, -1.484e-4
-1.037, -1.491e-4
-1.036, -1.484e-4
-1.035, -1.492e-4
-1.034, -1.512e-4
-1.033, -1.548e-4
-1.032, -1.555e-4
-1.031, -1.546e-4
-1.030, -1.550e-4
-1.029, -1.575e-4
-1.028, -1.610e-4
-1.027, -1.622e-4
-1.026, -1.615e-4
-1.025, -1.620e-4
-1.024, -1.648e-4
-1.023, -1.683e-4
-1.022, -1.697e-4
-1.021, -1.689e-4
-1.020, -1.695e-4
-1.019, -1.725e-4
-1.018, -1.760e-4
-1.017, -1.778e-4
-1.016, -1.772e-4
-1.015, -1.780e-4
-1.014, -1.813e-4
-1.013, -1.847e-4
-1.012, -1.866e-4
-1.011, -1.863e-4
-1.010, -1.869e-4
-1.009, -1.903e-4
-1.008, -1.938e-4
-1.007, -1.962e-4
-1.006, -1.970e-4
-1.005, -1.969e-4
-1.004, -2.000e-4
-1.003, -2.041e-4
-1.002, -2.059e-4
-1.001, -2.083e-4
-1.000, -1.663e-4
-1.001, -1.307e-4
-1.002, -1.172e-4
-1.003, -1.058e-4
-1.004, -9.408e-5
-1.005, -8.452e-5
-1.006, -7.844e-5
-1.007, -7.347e-5
-1.008, -6.713e-5
-1.009, -5.920e-5
-1.010, -5.238e-5
-1.011, -4.889e-5
-1.012, -4.599e-5
-1.013, -4.168e-5
-1.014, -3.562e-5
-1.015, -3.022e-5
-1.016, -2.806e-5
-1.017, -2.659e-5
-1.018, -2.306e-5
-1.019, -1.822e-5
-1.020, -1.395e-5
-1.021, -1.247e-5
-1.022, -1.183e-5
-1.023, -9.099e-6
-1.024, -6.381e-6
-1.025, -3.658e-6
-1.026, -9.809e-7
-1.027, -8.931e-7
-1.028, 1.483e-6
-1.029, 5.304e-6
-1.030, 8.533e-6
-1.031, 9.092e-6
-1.032, 8.559e-6
-1.033, 1.041e-5
-1.034, 1.389e-5
-1.035, 1.667e-5
-1.036, 1.683e-5
-1.037, 1.626e-5
-1.038, 1.742e-5
-1.039, 2.085e-5
-1.040, 2.332e-5
-1.041, 2.328e-5
-1.042, 2.251e-5
-1.043, 2.327e-5
-1.044, 2.670e-5
-1.045, 2.886e-5
-1.046, 2.870e-5
-1.047, 2.776e-5
-1.048, 2.846e-5
-1.049, 3.138e-5
-1.050, 3.387e-5
-1.051, 3.328e-5
-1.052, 3.225e-5
-1.053, 3.279e-5
-1.054, 3.552e-5
-1.055, 3.796e-5
-1.056, 3.742e-5
-1.057, 3.610e-5
-1.058, 3.680e-5
-1.059, 3.922e-5
-1.060, 4.149e-5
-1.061, 4.075e-5
-1.062, 3.955e-5
-1.063, 4.030e-5
-1.064, 4.235e-5
-1.065, 4.478e-5
-1.066, 4.405e-5
-1.067, 4.272e-5
-1.068, 4.312e-5
-1.069, 4.561e-5
-1.070, 4.772e-5
-1.071, 4.709e-5
-1.072, 4.545e-5
-1.073, 4.600e-5
-1.074, 4.834e-5
-1.075, 5.079e-5
-1.076, 4.999e-5
-1.077, 4.827e-5
-1.078, 4.850e-5
-1.079, 5.125e-5
-1.080, 5.295e-5
-1.081, 5.236e-5
-1.082, 5.091e-5
-1.083, 5.097e-5
-1.084, 5.354e-5
-1.085, 5.539e-5
-1.086, 5.475e-5
-1.087, 5.328e-5
-1.088, 5.336e-5
-1.089, 5.581e-5
-1.090, 5.795e-5
-1.091, 5.678e-5
-1.092, 5.558e-5
-1.093, 5.581e-5
-1.094, 5.791e-5
-1.095, 6.038e-5
-1.096, 5.943e-5
-1.097, 5.783e-5
-1.098, 5.814e-5
-1.099, 6.028e-5
-1.100, 6.250e-5
-1.101, 6.178e-5
-1.102, 6.023e-5
-1.103, 6.055e-5
-1.104, 6.267e-5
-1.105, 6.480e-5
-1.106, 6.433e-5
-1.107, 6.238e-5
-1.108, 6.276e-5
-1.109, 6.498e-5
-1.110, 6.707e-5
-1.111, 6.657e-5
-1.112, 6.478e-5
-1.113, 6.514e-5
-1.114, 6.730e-5
-1.115, 6.937e-5
-1.116, 6.906e-5
-1.117, 6.712e-5
-1.118, 6.735e-5
-1.119, 6.972e-5
-1.120, 7.170e-5
-1.121, 7.139e-5
-1.122, 6.983e-5
-1.123, 6.970e-5
-1.124, 7.215e-5
-1.125, 7.430e-5
-1.126, 7.390e-5
-1.127, 7.263e-5
-1.128, 7.235e-5
-1.129, 7.466e-5
-1.130, 7.713e-5
-1.131, 7.647e-5
-1.132, 7.528e-5
-1.133, 7.508e-5
-1.134, 7.750e-5
-1.135, 7.992e-5
-1.136, 7.947e-5
-1.137, 7.803e-5
-1.138, 7.812e-5
-1.139, 8.037e-5
-1.140, 8.300e-5
-1.141, 8.265e-5
-1.142, 8.119e-5
-1.143, 8.132e-5
-1.144, 8.364e-5
-1.145, 8.602e-5
-1.146, 8.604e-5
-1.147, 8.436e-5
-1.148, 8.476e-5
-1.149, 8.694e-5
-1.150, 8.962e-5
-1.151, 8.969e-5
-1.152, 8.874e-5
-1.153, 8.864e-5
-1.154, 9.097e-5
-1.155, 9.326e-5
-1.156, 9.362e-5
-1.157, 9.196e-5
-1.158, 9.229e-5
-1.159, 9.503e-5
-1.160, 9.742e-5
-1.161, 9.787e-5
-1.162, 9.742e-5
-1.163, 9.679e-5
-1.164, 9.939e-5
-1.165, 1.018e-4
-1.166, 1.023e-4
-1.167, 1.012e-4
-1.168, 1.012e-4
-1.169, 1.043e-4
-1.170, 1.081e-4
-1.171, 1.074e-4
-1.172, 1.065e-4
-1.173, 1.066e-4
-1.174, 1.093e-4
-1.175, 1.124e-4
-1.176, 1.128e-4
-1.177, 1.121e-4
-1.178, 1.126e-4
-1.179, 1.151e-4
-1.180, 1.183e-4
-1.181, 1.189e-4
-1.182, 1.181e-4
-1.183, 1.188e-4
-1.184, 1.215e-4
-1.185, 1.247e-4
-1.186, 1.257e-4
-1.187, 1.262e-4
-1.188, 1.263e-4
-1.189, 1.285e-4
-1.190, 1.318e-4
-1.191, 1.329e-4
-1.192, 1.320e-4
-1.193, 1.330e-4
-1.194, 1.362e-4
-1.195, 1.395e-4
-1.196, 1.408e-4
-1.197, 1.403e-4
-1.198, 1.413e-4
-1.199, 1.460e-4
-1.200, 1.485e-4
-1.201, 1.498e-4
-1.202, 1.497e-4
-1.203, 1.529e-4
-1.204, 1.543e-4
-1.205, 1.579e-4
-1.206, 1.596e-4
-1.207, 1.595e-4
-1.208, 1.605e-4
-1.209, 1.643e-4
-1.210, 1.685e-4
-1.211, 1.702e-4
-1.212, 1.705e-4
-1.213, 1.717e-4
-1.214, 1.756e-4
-1.215, 1.801e-4
-1.216, 1.820e-4
-1.217, 1.824e-4
-1.218, 1.841e-4
-1.219, 1.880e-4
-1.220, 1.927e-4
-1.221, 1.951e-4
-1.222, 1.955e-4
-1.223, 1.977e-4
-1.224, 2.018e-4
-1.225, 2.067e-4
-1.226, 2.094e-4
-1.227, 2.102e-4
-1.228, 2.128e-4
-1.229, 2.176e-4
-1.230, 2.223e-4
-1.231, 2.254e-4
-1.232, 2.263e-4
-1.233, 2.288e-4
-1.234, 2.337e-4
-1.235, 2.390e-4
-1.236, 2.426e-4
-1.237, 2.438e-4
-1.238, 2.490e-4
-1.239, 2.536e-4
-1.240, 2.585e-4
-1.241, 2.621e-4
-1.242, 2.637e-4
-1.243, 2.667e-4
-1.244, 2.722e-4
-1.245, 2.783e-4
-1.246, 2.823e-4
-1.247, 2.848e-4
-1.248, 2.880e-4
-1.249, 2.939e-4
-1.250, 3.006e-4
-1.251, 3.049e-4
-1.252, 3.091e-4
-1.253, 3.149e-4
-1.254, 3.181e-4
-1.255, 3.247e-4
-1.256, 3.291e-4
-1.257, 3.318e-4
-1.258, 3.363e-4
-1.259, 3.430e-4
-1.260, 3.503e-4
-1.261, 3.555e-4
-1.262, 3.591e-4
-1.263, 3.637e-4
-1.264, 3.706e-4
-1.265, 3.787e-4
-1.266, 3.845e-4
-1.267, 3.884e-4
-1.268, 3.936e-4
-1.269, 4.009e-4
-1.270, 4.089e-4
-1.271, 4.158e-4
-1.272, 4.201e-4
-1.273, 4.269e-4
-1.274, 4.344e-4
-1.275, 4.420e-4
-1.276, 4.491e-4
-1.277, 4.538e-4
-1.278, 4.597e-4
-1.279, 4.680e-4
-1.280, 4.773e-4
-1.281, 4.847e-4
-1.282, 4.901e-4
-1.283, 4.968e-4
-1.284, 5.075e-4
-1.285, 5.147e-4
-1.286, 5.221e-4
-1.287, 5.286e-4
-1.288, 5.360e-4
-1.289, 5.456e-4
-1.290, 5.562e-4
-1.291, 5.645e-4
-1.292, 5.712e-4
-1.293, 5.799e-4
-1.294, 5.908e-4
-1.295, 6.011e-4
-1.296, 6.097e-4
-1.297, 6.167e-4
-1.298, 6.289e-4
-1.299, 6.383e-4
-1.300, 6.476e-4
-1.301, 6.568e-4
-1.302, 6.640e-4
-1.303, 6.723e-4
-1.304, 6.827e-4
-1.305, 6.949e-4
-1.306, 7.055e-4
-1.307, 7.133e-4
-1.308, 7.222e-4
-1.309, 7.339e-4
-1.310, 7.464e-4
-1.311, 7.576e-4
-1.312, 7.666e-4
-1.313, 7.758e-4
-1.314, 7.884e-4
-1.315, 8.018e-4
-1.316, 8.138e-4
-1.317, 8.237e-4
-1.318, 8.336e-4
-1.319, 8.466e-4
-1.320, 8.602e-4
-1.321, 8.729e-4
-1.322, 8.828e-4
-1.323, 8.933e-4
-1.324, 9.073e-4
-1.325, 9.215e-4
-1.326, 9.345e-4
-1.327, 9.506e-4
-1.328, 9.591e-4
-1.329, 9.765e-4
-1.330, 9.887e-4
-1.331, 1.002e-3
-1.332, 1.014e-3
-1.333, 1.025e-3
-1.334, 1.040e-3
-1.335, 1.056e-3
-1.336, 1.070e-3
-1.337, 1.081e-3
-1.338, 1.093e-3
-1.339, 1.108e-3
-1.340, 1.125e-3
-1.341, 1.141e-3
-1.342, 1.154e-3
-1.343, 1.168e-3
-1.344, 1.182e-3
-1.345, 1.199e-3
-1.346, 1.214e-3
-1.347, 1.228e-3
-1.348, 1.242e-3
-1.349, 1.262e-3
-1.350, 1.278e-3
-1.351, 1.294e-3
-1.352, 1.309e-3
-1.353, 1.324e-3
-1.354, 1.340e-3
-1.355, 1.359e-3
-1.356, 1.376e-3
-1.357, 1.396e-3
-1.358, 1.408e-3
-1.359, 1.426e-3
-1.360, 1.444e-3
-1.361, 1.462e-3
-1.362, 1.478e-3
-1.363, 1.494e-3
-1.364, 1.514e-3
-1.365, 1.534e-3
-1.366, 1.555e-3
-1.367, 1.571e-3
-1.368, 1.586e-3
-1.369, 1.605e-3
-1.370, 1.626e-3
-1.371, 1.646e-3
-1.372, 1.662e-3
-1.373, 1.680e-3
-1.374, 1.702e-3
-1.375, 1.722e-3
-1.376, 1.741e-3
-1.377, 1.759e-3
-1.378, 1.781e-3
-1.379, 1.803e-3
-1.380, 1.825e-3
-1.381, 1.845e-3
-1.382, 1.863e-3
-1.383, 1.880e-3
-1.384, 1.900e-3
-1.385, 1.923e-3
-1.386, 1.944e-3
-1.387, 1.963e-3
-1.388, 1.981e-3
-1.389, 2.006e-3
-1.390, 2.030e-3
-1.391, 2.053e-3
-1.392, 2.076e-3
-1.393, 2.095e-3
-1.394, 2.120e-3
-1.395, 2.143e-3
-1.396, 2.170e-3
-1.397, 2.192e-3
-1.398, 2.213e-3
-1.399, 2.235e-3
-1.400, 2.260e-3
-1.401, 2.285e-3
-1.402, 2.305e-3
-1.403, 2.324e-3
-1.404, 2.348e-3
-1.405, 2.370e-3
-1.406, 2.394e-3
-1.407, 2.419e-3
-1.408, 2.440e-3
-1.409, 2.467e-3
-1.410, 2.494e-3
-1.411, 2.525e-3
-1.412, 2.546e-3
-1.413, 2.570e-3
-1.414, 2.592e-3
-1.415, 2.620e-3
-1.416, 2.648e-3
-1.417, 2.670e-3
-1.418, 2.694e-3
-1.419, 2.721e-3
-1.420, 2.751e-3
-1.421, 2.776e-3
-1.422, 2.802e-3
-1.423, 2.824e-3
-1.424, 2.854e-3
-1.425, 2.884e-3
-1.426, 2.920e-3
-1.427, 2.948e-3
-1.428, 2.969e-3
-1.429, 3.001e-3
-1.430, 3.032e-3
-1.431, 3.060e-3
-1.432, 3.089e-3
-1.433, 3.112e-3
-1.434, 3.139e-3
-1.435, 3.165e-3
-1.436, 3.199e-3
-1.437, 3.225e-3
-1.438, 3.258e-3
-1.439, 3.284e-3
-1.440, 3.319e-3
-1.441, 3.347e-3
-1.442, 3.369e-3
-1.443, 3.396e-3
-1.444, 3.427e-3
-1.445, 3.461e-3
-1.446, 3.497e-3
-1.447, 3.523e-3
-1.448, 3.553e-3
-1.449, 3.582e-3
-1.450, 3.615e-3
-1.451, 3.644e-3
-1.452, 3.677e-3
-1.453, 3.708e-3
-1.454, 3.743e-3
-1.455, 3.780e-3
-1.456, 3.812e-3
-1.457, 3.846e-3
-1.458, 3.893e-3
-1.459, 3.918e-3
-1.460, 3.955e-3
-1.461, 3.997e-3
-1.462, 4.022e-3
-1.463, 4.048e-3
-1.464, 4.093e-3
-1.465, 4.124e-3
-1.466, 4.156e-3
-1.467, 4.202e-3
-1.468, 4.220e-3
-1.469, 4.239e-3
-1.470, 4.280e-3
-1.471, 4.315e-3
-1.472, 4.345e-3
-1.473, 4.410e-3
-1.474, 4.447e-3
-1.475, 4.469e-3
-1.476, 4.509e-3
-1.477, 4.554e-3
-1.478, 4.597e-3
-1.479, 4.658e-3
-1.480, 4.722e-3
-1.481, 4.762e-3
-1.482, 4.797e-3
-1.483, 4.829e-3
-1.484, 4.872e-3
-1.485, 4.918e-3
-1.486, 4.954e-3
-1.487, 4.996e-3
-1.488, 5.022e-3
-1.489, 5.045e-3
-1.490, 5.083e-3
-1.491, 5.122e-3
-1.492, 5.164e-3
-1.493, 5.192e-3
-1.494, 5.239e-3
-1.495, 5.296e-3
-1.496, 5.326e-3
-1.497, 5.346e-3
-1.498, 5.373e-3
-1.499, 5.416e-3
-1.500, 5.399e-3
-1.499, 5.353e-3
-1.498, 5.308e-3
-1.497, 5.244e-3
-1.496, 5.194e-3
-1.495, 5.152e-3
-1.494, 5.100e-3
-1.493, 5.061e-3
-1.492, 5.011e-3
-1.491, 4.963e-3
-1.490, 4.912e-3
-1.489, 4.888e-3
-1.488, 4.835e-3
-1.487, 4.791e-3
-1.486, 4.748e-3
-1.485, 4.711e-3
-1.484, 4.664e-3
-1.483, 4.618e-3
-1.482, 4.560e-3
-1.481, 4.509e-3
-1.480, 4.475e-3
-1.479, 4.426e-3
-1.478, 4.410e-3
-1.477, 4.350e-3
-1.476, 4.308e-3
-1.475, 4.269e-3
-1.474, 4.233e-3
-1.473, 4.192e-3
-1.472, 4.155e-3
-1.471, 4.120e-3
-1.470, 4.074e-3
-1.469, 4.033e-3
-1.468, 3.990e-3
-1.467, 3.945e-3
-1.466, 3.908e-3
-1.465, 3.874e-3
-1.464, 3.848e-3
-1.463, 3.812e-3
-1.462, 3.763e-3
-1.461, 3.730e-3
-1.460, 3.700e-3
-1.459, 3.663e-3
-1.458, 3.623e-3
-1.457, 3.585e-3
-1.456, 3.546e-3
-1.455, 3.514e-3
-1.454, 3.438e-3
-1.453, 3.394e-3
-1.452, 3.371e-3
-1.451, 3.330e-3
-1.450, 3.299e-3
-1.449, 3.271e-3
-1.448, 3.235e-3
-1.447, 3.212e-3
-1.446, 3.163e-3
-1.445, 3.129e-3
-1.444, 3.098e-3
-1.443, 3.069e-3
-1.442, 3.048e-3
-1.441, 3.004e-3
-1.440, 2.979e-3
-1.439, 2.949e-3
-1.438, 2.934e-3
-1.437, 2.886e-3
-1.436, 2.856e-3
-1.435, 2.832e-3
-1.434, 2.816e-3
-1.433, 2.780e-3
-1.432, 2.739e-3
-1.431, 2.722e-3
-1.430, 2.714e-3
-1.429, 2.680e-3
-1.428, 2.682e-3
-1.427, 2.628e-3
-1.426, 2.601e-3
-1.425, 2.571e-3
-1.424, 2.545e-3
-1.423, 2.524e-3
-1.422, 2.496e-3
-1.421, 2.471e-3
-1.420, 2.443e-3
-1.419, 2.430e-3
-1.418, 2.406e-3
-1.417, 2.371e-3
-1.416, 2.337e-3
-1.415, 2.314e-3
-1.414, 2.293e-3
-1.413, 2.265e-3
-1.412, 2.238e-3
-1.411, 2.214e-3
-1.410, 2.193e-3
-1.409, 2.173e-3
-1.408, 2.147e-3
-1.407, 2.125e-3
-1.406, 2.104e-3
-1.405, 2.082e-3
-1.404, 2.057e-3
-1.403, 2.034e-3
-1.402, 2.009e-3
-1.401, 1.998e-3
-1.400, 1.979e-3
-1.399, 1.955e-3
-1.398, 1.931e-3
-1.397, 1.901e-3
-1.396, 1.879e-3
-1.395, 1.860e-3
-1.394, 1.839e-3
-1.393, 1.824e-3
-1.392, 1.801e-3
-1.391, 1.782e-3
-1.390, 1.761e-3
-1.389, 1.738e-3
-1.388, 1.719e-3
-1.387, 1.696e-3
-1.386, 1.679e-3
-1.385, 1.662e-3
-1.384, 1.646e-3
-1.383, 1.630e-3
-1.382, 1.603e-3
-1.381, 1.587e-3
-1.380, 1.563e-3
-1.379, 1.550e-3
-1.378, 1.531e-3
-1.377, 1.509e-3
-1.376, 1.493e-3
-1.375, 1.475e-3
-1.374, 1.465e-3
-1.373, 1.455e-3
-1.372, 1.434e-3
-1.371, 1.409e-3
-1.370, 1.396e-3
-1.369, 1.379e-3
-1.368, 1.361e-3
-1.367, 1.348e-3
-1.366, 1.324e-3
-1.365, 1.311e-3
-1.364, 1.299e-3
-1.363, 1.285e-3
-1.362, 1.264e-3
-1.361, 1.245e-3
-1.360, 1.234e-3
-1.359, 1.234e-3
-1.358, 1.211e-3
-1.357, 1.196e-3
-1.356, 1.184e-3
-1.355, 1.164e-3
-1.354, 1.152e-3
-1.353, 1.135e-3
-1.352, 1.119e-3
-1.351, 1.114e-3
-1.350, 1.096e-3
-1.349, 1.081e-3
-1.348, 1.066e-3
-1.347, 1.048e-3
-1.346, 1.032e-3
-1.345, 1.020e-3
-1.344, 1.010e-3
-1.343, 9.940e-4
-1.342, 9.815e-4
-1.341, 9.684e-4
-1.340, 9.610e-4
-1.339, 9.539e-4
-1.338, 9.367e-4
-1.337, 9.208e-4
-1.336, 9.075e-4
-1.335, 8.944e-4
-1.334, 8.810e-4
-1.333, 8.691e-4
-1.332, 8.560e-4
-1.331, 8.437e-4
-1.330, 8.406e-4
-1.329, 8.227e-4
-1.328, 8.109e-4
-1.327, 7.999e-4
-1.326, 7.853e-4
-1.325, 7.862e-4
-1.324, 7.734e-4
-1.323, 7.594e-4
-1.322, 7.446e-4
-1.321, 7.341e-4
-1.320, 7.261e-4
-1.319, 7.154e-4
-1.318, 7.051e-4
-1.317, 6.941e-4
-1.316, 6.825e-4
-1.315, 6.730e-4
-1.314, 6.640e-4
-1.313, 6.543e-4
-1.312, 6.428e-4
-1.311, 6.316e-4
-1.310, 6.237e-4
-1.309, 6.167e-4
-1.308, 6.057e-4
-1.307, 5.949e-4
-1.306, 5.855e-4
-1.305, 5.819e-4
-1.304, 5.733e-4
-1.303, 5.594e-4
-1.302, 5.478e-4
-1.301, 5.388e-4
-1.300, 5.310e-4
-1.299, 5.230e-4
-1.298, 5.153e-4
-1.297, 5.045e-4
-1.296, 4.956e-4
-1.295, 4.869e-4
-1.294, 4.805e-4
-1.293, 4.730e-4
-1.292, 4.628e-4
-1.291, 4.532e-4
-1.290, 4.466e-4
-1.289, 4.405e-4
-1.288, 4.330e-4
-1.287, 4.231e-4
-1.286, 4.144e-4
-1.285, 4.097e-4
-1.284, 4.054e-4
-1.283, 3.975e-4
-1.282, 3.880e-4
-1.281, 3.794e-4
-1.280, 3.726e-4
-1.279, 3.684e-4
-1.278, 3.616e-4
-1.277, 3.524e-4
-1.276, 3.442e-4
-1.275, 3.384e-4
-1.274, 3.336e-4
-1.273, 3.271e-4
-1.272, 3.190e-4
-1.271, 3.134e-4
-1.270, 3.062e-4
-1.269, 3.016e-4
-1.268, 2.953e-4
-1.267, 2.872e-4
-1.266, 2.800e-4
-1.265, 2.749e-4
-1.264, 2.713e-4
-1.263, 2.655e-4
-1.262, 2.580e-4
-1.261, 2.516e-4
-1.260, 2.467e-4
-1.259, 2.429e-4
-1.258, 2.379e-4
-1.257, 2.315e-4
-1.256, 2.250e-4
-1.255, 2.200e-4
-1.254, 2.168e-4
-1.253, 2.116e-4
-1.252, 2.048e-4
-1.251, 1.989e-4
-1.250, 1.951e-4
-1.249, 1.922e-4
-1.248, 1.871e-4
-1.247, 1.806e-4
-1.246, 1.743e-4
-1.245, 1.719e-4
-1.244, 1.693e-4
-1.243, 1.641e-4
-1.242, 1.580e-4
-1.241, 1.518e-4
-1.240, 1.487e-4
-1.239, 1.463e-4
-1.238, 1.427e-4
-1.237, 1.365e-4
-1.236, 1.311e-4
-1.235, 1.279e-4
-1.234, 1.263e-4
-1.233, 1.219e-4
-1.232, 1.167e-4
-1.231, 1.115e-4
-1.230, 1.086e-4
-1.229, 1.062e-4
-1.228, 1.032e-4
-1.227, 9.785e-5
-1.226, 9.341e-5
-1.225, 9.052e-5
-1.224, 8.929e-5
-1.223, 8.603e-5
-1.222, 8.122e-5
-1.221, 7.659e-5
-1.220, 7.420e-5
-1.219, 7.273e-5
-1.218, 6.984e-5
-1.217, 6.507e-5
-1.216, 6.066e-5
-1.215, 5.874e-5
-1.214, 6.203e-5
-1.213, 5.766e-5
-1.212, 5.192e-5
-1.211, 4.660e-5
-1.210, 4.564e-5
-1.209, 4.473e-5
-1.208, 4.158e-5
-1.207, 3.724e-5
-1.206, 3.286e-5
-1.205, 3.150e-5
-1.204, 3.084e-5
-1.203, 2.857e-5
-1.202, 2.459e-5
-1.201, 2.050e-5
-1.200, 1.925e-5
-1.199, 1.878e-5
-1.198, 1.673e-5
-1.197, 1.308e-5
-1.196, 9.286e-6
-1.195, 7.717e-6
-1.194, 8.193e-6
-1.193, 6.041e-6
-1.192, 2.388e-6
-1.191, -1.135e-6
-1.190, -2.439e-6
-1.189, -2.291e-6
-1.188, -3.884e-6
-1.187, -7.319e-6
-1.186, -1.074e-5
-1.185, -1.169e-5
-1.184, -1.148e-5
-1.183, -1.283e-5
-1.182, -1.636e-5
-1.181, -1.932e-5
-1.180, -2.034e-5
-1.179, -2.011e-5
-1.178, -2.140e-5
-1.177, -2.459e-5
-1.176, -2.727e-5
-1.175, -2.820e-5
-1.174, -2.783e-5
-1.173, -2.874e-5
-1.172, -3.177e-5
-1.171, -3.485e-5
-1.170, -3.538e-5
-1.169, -3.510e-5
-1.168, -3.560e-5
-1.167, -3.842e-5
-1.166, -4.165e-5
-1.165, -4.209e-5
-1.164, -4.157e-5
-1.163, -4.226e-5
-1.162, -4.515e-5
-1.161, -4.790e-5
-1.160, -4.838e-5
-1.159, -4.750e-5
-1.158, -4.818e-5
-1.157, -5.057e-5
-1.156, -5.340e-5
-1.155, -5.365e-5
-1.154, -5.273e-5
-1.153, -5.328e-5
-1.152, -5.576e-5
-1.151, -5.817e-5
-1.150, -5.873e-5
-1.149, -5.766e-5
-1.148, -5.793e-5
-1.147, -6.031e-5
-1.146, -6.276e-5
-1.145, -6.332e-5
-1.144, -6.201e-5
-1.143, -6.232e-5
-1.142, -6.494e-5
-1.141, -6.710e-5
-1.140, -6.758e-5
-1.139, -6.642e-5
-1.138, -6.714e-5
-1.137, -7.194e-5
-1.136, -7.254e-5
-1.135, -7.209e-5
-1.134, -7.091e-5
-1.133, -7.076e-5
-1.132, -7.289e-5
-1.131, -7.521e-5
-1.130, -7.546e-5
-1.129, -7.441e-5
-1.128, -7.409e-5
-1.127, -7.648e-5
-1.126, -7.867e-5
-1.125, -7.883e-5
-1.124, -7.758e-5
-1.123, -7.752e-5
-1.122, -7.940e-5
-1.121, -8.194e-5
-1.120, -8.199e-5
-1.119, -8.067e-5
-1.118, -8.063e-5
-1.117, -8.257e-5
-1.116, -8.474e-5
-1.115, -8.513e-5
-1.114, -8.375e-5
-1.113, -8.368e-5
-1.112, -8.551e-5
-1.111, -8.818e-5
-1.110, -8.837e-5
-1.109, -8.689e-5
-1.108, -8.659e-5
-1.107, -8.893e-5
-1.106, -9.113e-5
-1.105, -9.134e-5
-1.104, -8.965e-5
-1.103, -8.936e-5
-1.102, -9.151e-5
-1.101, -9.359e-5
-1.100, -9.383e-5
-1.099, -9.259e-5
-1.098, -9.207e-5
-1.097, -9.566e-5
-1.096, -9.698e-5
-1.095, -9.653e-5
-1.094, -9.519e-5
-1.093, -9.471e-5
-1.092, -9.650e-5
-1.091, -9.880e-5
-1.090, -9.908e-5
-1.089, -9.800e-5
-1.088, -9.740e-5
-1.087, -9.919e-5
-1.086, -1.018e-4
-1.085, -1.022e-4
-1.084, -1.009e-4
-1.083, -1.005e-4
-1.082, -1.021e-4
-1.081, -1.047e-4
-1.080, -1.052e-4
-1.079, -1.036e-4
-1.078, -1.036e-4
-1.077, -1.052e-4
-1.076, -1.080e-4
-1.075, -1.085e-4
-1.074, -1.071e-4
-1.073, -1.069e-4
-1.072, -1.084e-4
-1.071, -1.110e-4
-1.070, -1.117e-4
-1.069, -1.123e-4
-1.068, -1.130e-4
-1.067, -1.133e-4
-1.066, -1.150e-4
-1.065, -1.158e-4
-1.064, -1.144e-4
-1.063, -1.141e-4
-1.062, -1.164e-4
-1.061, -1.186e-4
-1.060, -1.191e-4
-1.059, -1.184e-4
-1.058, -1.181e-4
-1.057, -1.202e-4
-1.056, -1.227e-4
-1.055, -1.235e-4
-1.054, -1.229e-4
-1.053, -1.236e-4
-1.052, -1.251e-4
-1.051, -1.277e-4
-1.050, -1.284e-4
-1.049, -1.277e-4
-1.048, -1.273e-4
-1.047, -1.294e-4
-1.046, -1.325e-4
-1.045, -1.333e-4
-1.044, -1.326e-4
-1.043, -1.326e-4
-1.042, -1.348e-4
-1.041, -1.378e-4
-1.040, -1.388e-4
-1.039, -1.383e-4
-1.038, -1.400e-4
-1.037, -1.443e-4
-1.036, -1.451e-4
-1.035, -1.454e-4
-1.034, -1.447e-4
-1.033, -1.449e-4
-1.032, -1.468e-4
-1.031, -1.501e-4
-1.030, -1.520e-4
-1.029, -1.512e-4
-1.028, -1.514e-4
-1.027, -1.539e-4
-1.026, -1.570e-4
-1.025, -1.588e-4
-1.024, -1.586e-4
-1.023, -1.587e-4
-1.022, -1.615e-4
-1.021, -1.647e-4
-1.020, -1.665e-4
-1.019, -1.664e-4
-1.018, -1.667e-4
-1.017, -1.697e-4
-1.016, -1.730e-4
-1.015, -1.750e-4
-1.014, -1.753e-4
-1.013, -1.754e-4
-1.012, -1.785e-4
-1.011, -1.824e-4
-1.010, -1.844e-4
-1.009, -1.849e-4
-1.008, -1.852e-4
-1.007, -1.881e-4
-1.006, -1.923e-4
-1.005, -1.943e-4
-1.004, -1.957e-4
-1.003, -1.964e-4
-1.002, -1.985e-4
-1.001, -2.027e-4
-1.000, -1.654e-4
-1.001, -1.318e-4
-1.002, -1.157e-4
-1.003, -1.057e-4
-1.004, -9.822e-5
-1.005, -9.049e-5
-1.006, -8.142e-5
-1.007, -7.298e-5
-1.008, -6.806e-5
-1.009, -6.451e-5
-1.010, -5.946e-5
-1.011, -5.281e-5
-1.012, -4.707e-5
-1.013, -4.366e-5
-1.014, -4.159e-5
-1.015, -3.750e-5
-1.016, -3.253e-5
-1.017, -2.745e-5
-1.018, -2.505e-5
-1.019, -2.402e-5
-1.020, -2.141e-5
-1.021, -1.704e-5
-1.022, -1.289e-5
-1.023, -1.110e-5
-1.024, -1.047e-5
-1.025, -8.754e-6
-1.026, -4.924e-6
-1.027, -1.478e-6
-1.028, -1.571e-7
-1.029, -5.655e-7
-1.030, 1.126e-6
-1.031, 4.476e-6
-1.032, 7.665e-6
-1.033, 8.471e-6
-1.034, 7.749e-6
-1.035, 8.946e-6
-1.036, 1.190e-5
-1.037, 1.509e-5
-1.038, 1.570e-5
-1.039, 1.508e-5
-1.040, 1.568e-5
-1.041, 1.850e-5
-1.042, 2.131e-5
-1.043, 2.165e-5
-1.044, 2.090e-5
-1.045, 2.138e-5
-1.046, 2.387e-5
-1.047, 2.630e-5
-1.048, 2.669e-5
-1.049, 2.566e-5
-1.050, 2.618e-5
-1.051, 2.851e-5
-1.052, 3.106e-5
-1.053, 3.103e-5
-1.054, 2.992e-5
-1.055, 3.026e-5
-1.056, 3.246e-5
-1.057, 3.485e-5
-1.058, 3.501e-5
-1.059, 2.850e-5
-1.060, 3.261e-5
-1.061, 3.517e-5
-1.062, 3.735e-5
-1.063, 3.775e-5
-1.064, 3.640e-5
-1.065, 3.654e-5
-1.066, 3.873e-5
-1.067, 4.083e-5
-1.068, 4.095e-5
-1.069, 3.957e-5
-1.070, 3.951e-5
-1.071, 4.174e-5
-1.072, 4.368e-5
-1.073, 4.388e-5
-1.074, 4.243e-5
-1.075, 4.249e-5
-1.076, 4.439e-5
-1.077, 4.644e-5
-1.078, 4.645e-5
-1.079, 4.517e-5
-1.080, 4.486e-5
-1.081, 4.685e-5
-1.082, 4.900e-5
-1.083, 4.893e-5
-1.084, 4.769e-5
-1.085, 4.721e-5
-1.086, 4.918e-5
-1.087, 5.142e-5
-1.088, 5.138e-5
-1.089, 4.982e-5
-1.090, 4.962e-5
-1.091, 5.151e-5
-1.092, 5.362e-5
-1.093, 5.361e-5
-1.094, 5.216e-5
-1.095, 5.201e-5
-1.096, 5.363e-5
-1.097, 5.578e-5
-1.098, 5.601e-5
-1.099, 5.420e-5
-1.100, 5.419e-5
-1.101, 5.584e-5
-1.102, 5.795e-5
-1.103, 5.828e-5
-1.104, 5.646e-5
-1.105, 5.610e-5
-1.106, 5.819e-5
-1.107, 6.000e-5
-1.108, 6.038e-5
-1.109, 5.866e-5
-1.110, 5.850e-5
-1.111, 6.024e-5
-1.112, 6.226e-5
-1.113, 6.249e-5
-1.114, 6.094e-5
-1.115, 6.055e-5
-1.116, 6.253e-5
-1.117, 6.449e-5
-1.118, 6.470e-5
-1.119, 6.326e-5
-1.120, 6.289e-5
-1.121, 6.474e-5
-1.122, 6.714e-5
-1.123, 6.704e-5
-1.124, 6.565e-5
-1.125, 6.512e-5
-1.126, 6.688e-5
-1.127, 6.931e-5
-1.128, 6.930e-5
-1.129, 6.780e-5
-1.130, 6.762e-5
-1.131, 6.910e-5
-1.132, 7.153e-5
-1.133, 7.179e-5
-1.134, 7.032e-5
-1.135, 7.017e-5
-1.136, 7.160e-5
-1.137, 7.417e-5
-1.138, 7.455e-5
-1.139, 7.328e-5
-1.140, 7.324e-5
-1.141, 7.453e-5
-1.142, 7.668e-5
-1.143, 7.742e-5
-1.144, 7.580e-5
-1.145, 7.562e-5
-1.146, 7.737e-5
-1.147, 7.973e-5
-1.148, 8.029e-5
-1.149, 7.887e-5
-1.150, 7.860e-5
-1.151, 8.080e-5
-1.152, 8.299e-5
-1.153, 8.354e-5
-1.154, 8.225e-5
-1.155, 8.210e-5
-1.156, 8.424e-5
-1.157, 8.645e-5
-1.158, 8.704e-5
-1.159, 8.608e-5
-1.160, 8.562e-5
-1.161, 8.763e-5
-1.162, 9.032e-5
-1.163, 9.081e-5
-1.164, 8.996e-5
-1.165, 8.975e-5
-1.166, 9.153e-5
-1.167, 9.442e-5
-1.168, 9.517e-5
-1.169, 9.421e-5
-1.170, 9.400e-5
-1.171, 9.605e-5
-1.172, 9.888e-5
-1.173, 9.988e-5
-1.174, 9.891e-5
-1.175, 9.892e-5
-1.176, 1.009e-4
-1.177, 1.040e-4
-1.178, 1.052e-4
-1.179, 1.041e-4
-1.180, 1.042e-4
-1.181, 1.084e-4
-1.182, 1.159e-4
-1.183, 1.128e-4
-1.184, 1.108e-4
-1.185, 1.107e-4
-1.186, 1.130e-4
-1.187, 1.157e-4
-1.188, 1.173e-4
-1.189, 1.165e-4
-1.190, 1.166e-4
-1.191, 1.192e-4
-1.192, 1.220e-4
-1.193, 1.237e-4
-1.194, 1.234e-4
-1.195, 1.235e-4
-1.196, 1.263e-4
-1.197, 1.293e-4
-1.198, 1.308e-4
-1.199, 1.309e-4
-1.200, 1.310e-4
-1.201, 1.340e-4
-1.202, 1.374e-4
-1.203, 1.392e-4
-1.204, 1.393e-4
-1.205, 1.398e-4
-1.206, 1.425e-4
-1.207, 1.461e-4
-1.208, 1.480e-4
-1.209, 1.483e-4
-1.210, 1.489e-4
-1.211, 1.519e-4
-1.212, 1.562e-4
-1.213, 1.580e-4
-1.214, 1.584e-4
-1.215, 1.593e-4
-1.216, 1.623e-4
-1.217, 1.665e-4
-1.218, 1.687e-4
-1.219, 1.693e-4
-1.220, 1.705e-4
-1.221, 1.738e-4
-1.222, 1.780e-4
-1.223, 1.808e-4
-1.224, 1.815e-4
-1.225, 1.828e-4
-1.226, 1.864e-4
-1.227, 1.910e-4
-1.228, 1.945e-4
-1.229, 1.958e-4
-1.230, 1.969e-4
-1.231, 2.007e-4
-1.232, 2.052e-4
-1.233, 2.086e-4
-1.234, 2.101e-4
-1.235, 2.118e-4
-1.236, 2.160e-4
-1.237, 2.208e-4
-1.238, 2.243e-4
-1.239, 2.264e-4
-1.240, 2.280e-4
-1.241, 2.326e-4
-1.242, 2.380e-4
-1.243, 2.462e-4
-1.244, 2.584e-4
-1.245, 2.483e-4
-1.246, 2.505e-4
-1.247, 2.559e-4
-1.248, 2.599e-4
-1.249, 2.622e-4
-1.250, 2.651e-4
-1.251, 2.699e-4
-1.252, 2.775e-4
-1.253, 2.804e-4
-1.254, 2.830e-4
-1.255, 2.859e-4
-1.256, 2.909e-4
-1.257, 2.971e-4
-1.258, 3.022e-4
-1.259, 3.050e-4
-1.260, 3.085e-4
-1.261, 3.140e-4
-1.262, 3.206e-4
-1.263, 3.261e-4
-1.264, 3.294e-4
-1.265, 3.339e-4
-1.266, 3.388e-4
-1.267, 3.458e-4
-1.268, 3.517e-4
-1.269, 3.554e-4
-1.270, 3.595e-4
-1.271, 3.659e-4
-1.272, 3.730e-4
-1.273, 3.794e-4
-1.274, 3.837e-4
-1.275, 3.880e-4
-1.276, 3.947e-4
-1.277, 4.024e-4
-1.278, 4.093e-4
-1.279, 4.139e-4
-1.280, 4.190e-4
-1.281, 4.259e-4
-1.282, 4.341e-4
-1.283, 4.412e-4
-1.284, 4.465e-4
-1.285, 4.515e-4
-1.286, 4.599e-4
-1.287, 4.708e-4
-1.288, 4.761e-4
-1.289, 4.815e-4
-1.290, 4.872e-4
-1.291, 4.946e-4
-1.292, 5.044e-4
-1.293, 5.123e-4
-1.294, 5.183e-4
-1.295, 5.247e-4
-1.296, 5.326e-4
-1.297, 5.423e-4
-1.298, 5.514e-4
-1.299, 5.580e-4
-1.300, 5.674e-4
-1.301, 5.741e-4
-1.302, 5.832e-4
-1.303, 5.928e-4
-1.304, 5.996e-4
-1.305, 6.064e-4
-1.306, 6.157e-4
-1.307, 6.262e-4
-1.308, 6.362e-4
-1.309, 6.435e-4
-1.310, 6.511e-4
-1.311, 6.612e-4
-1.312, 6.729e-4
-1.313, 6.830e-4
-1.314, 6.910e-4
-1.315, 6.987e-4
-1.316, 7.092e-4
-1.317, 7.205e-4
-1.318, 7.315e-4
-1.319, 7.405e-4
-1.320, 7.510e-4
-1.321, 7.610e-4
-1.322, 7.721e-4
-1.323, 7.830e-4
-1.324, 7.925e-4
-1.325, 8.014e-4
-1.326, 8.126e-4
-1.327, 8.256e-4
-1.328, 8.373e-4
-1.329, 8.474e-4
-1.330, 8.569e-4
-1.331, 8.688e-4
-1.332, 8.828e-4
-1.333, 8.951e-4
-1.334, 9.052e-4
-1.335, 9.154e-4
-1.336, 9.274e-4
-1.337, 9.414e-4
-1.338, 9.565e-4
-1.339, 9.711e-4
-1.340, 9.745e-4
-1.341, 9.865e-4
-1.342, 9.987e-4
-1.343, 1.012e-3
-1.344, 1.023e-3
-1.345, 1.035e-3
-1.346, 1.047e-3
-1.347, 1.063e-3
-1.348, 1.078e-3
-1.349, 1.090e-3
-1.350, 1.102e-3
-1.351, 1.115e-3
-1.352, 1.131e-3
-1.353, 1.146e-3
-1.354, 1.158e-3
-1.355, 1.171e-3
-1.356, 1.186e-3
-1.357, 1.204e-3
-1.358, 1.218e-3
-1.359, 1.231e-3
-1.360, 1.244e-3
-1.361, 1.260e-3
-1.362, 1.276e-3
-1.363, 1.291e-3
-1.364, 1.308e-3
-1.365, 1.321e-3
-1.366, 1.336e-3
-1.367, 1.354e-3
-1.368, 1.369e-3
-1.369, 1.385e-3
-1.370, 1.401e-3
-1.371, 1.416e-3
-1.372, 1.433e-3
-1.373, 1.449e-3
-1.374, 1.466e-3
-1.375, 1.481e-3
-1.376, 1.497e-3
-1.377, 1.517e-3
-1.378, 1.534e-3
-1.379, 1.550e-3
-1.380, 1.565e-3
-1.381, 1.590e-3
-1.382, 1.612e-3
-1.383, 1.628e-3
-1.384, 1.644e-3
-1.385, 1.658e-3
-1.386, 1.681e-3
-1.387, 1.700e-3
-1.388, 1.717e-3
-1.389, 1.734e-3
-1.390, 1.751e-3
-1.391, 1.770e-3
-1.392, 1.789e-3
-1.393, 1.811e-3
-1.394, 1.834e-3
-1.395, 1.841e-3
-1.396, 1.859e-3
-1.397, 1.878e-3
-1.398, 1.899e-3
-1.399, 1.919e-3
-1.400, 1.936e-3
-1.401, 1.957e-3
-1.402, 1.979e-3
-1.403, 2.000e-3
-1.404, 2.018e-3
-1.405, 2.037e-3
-1.406, 2.060e-3
-1.407, 2.082e-3
-1.408, 2.121e-3
-1.409, 2.128e-3
-1.410, 2.147e-3
-1.411, 2.171e-3
-1.412, 2.193e-3
-1.413, 2.216e-3
-1.414, 2.236e-3
-1.415, 2.258e-3
-1.416, 2.280e-3
-1.417, 2.303e-3
-1.418, 2.326e-3
-1.419, 2.350e-3
-1.420, 2.369e-3
-1.421, 2.391e-3
-1.422, 2.416e-3
-1.423, 2.440e-3
-1.424, 2.462e-3
-1.425, 2.485e-3
-1.426, 2.509e-3
-1.427, 2.538e-3
-1.428, 2.554e-3
-1.429, 2.576e-3
-1.430, 2.600e-3
-1.431, 2.624e-3
-1.432, 2.649e-3
-1.433, 2.674e-3
-1.434, 2.698e-3
-1.435, 2.721e-3
-1.436, 2.746e-3
-1.437, 2.772e-3
-1.438, 2.799e-3
-1.439, 2.823e-3
-1.440, 2.846e-3
-1.441, 2.876e-3
-1.442, 2.916e-3
-1.443, 2.943e-3
-1.444, 2.960e-3
-1.445, 2.983e-3
-1.446, 3.011e-3
-1.447, 3.042e-3
-1.448, 3.071e-3
-1.449, 3.097e-3
-1.450, 3.124e-3
-1.451, 3.151e-3
-1.452, 3.180e-3
-1.453, 3.210e-3
-1.454, 3.236e-3
-1.455, 3.263e-3
-1.456, 3.338e-3
-1.457, 3.347e-3
-1.458, 3.375e-3
-1.459, 3.401e-3
-1.460, 3.428e-3
-1.461, 3.457e-3
-1.462, 3.486e-3
-1.463, 3.517e-3
-1.464, 3.561e-3
-1.465, 3.580e-3
-1.466, 3.608e-3
-1.467, 3.640e-3
-1.468, 3.673e-3
-1.469, 3.704e-3
-1.470, 3.733e-3
-1.471, 3.762e-3
-1.472, 3.794e-3
-1.473, 3.824e-3
-1.474, 3.855e-3
-1.475, 3.887e-3
-1.476, 3.916e-3
-1.477, 3.953e-3
-1.478, 3.988e-3
-1.479, 4.015e-3
-1.480, 4.040e-3
-1.481, 4.078e-3
-1.482, 4.117e-3
-1.483, 4.153e-3
-1.484, 4.192e-3
-1.485, 4.216e-3
-1.486, 4.253e-3
-1.487, 4.281e-3
-1.488, 4.315e-3
-1.489, 4.349e-3
-1.490, 4.381e-3
-1.491, 4.429e-3
-1.492, 4.459e-3
-1.493, 4.491e-3
-1.494, 4.531e-3
-1.495, 4.562e-3
-1.496, 4.588e-3
-1.497, 4.627e-3
-1.498, 4.668e-3
-1.499, 4.693e-3
-1.500, 4.674e-3
-1.499, 4.631e-3
-1.498, 4.599e-3
-1.497, 4.566e-3
-1.496, 4.519e-3
-1.495, 4.474e-3
-1.494, 4.425e-3
-1.493, 4.384e-3
-1.492, 4.356e-3
-1.491, 4.313e-3
-1.490, 4.276e-3
-1.489, 4.234e-3
-1.488, 4.198e-3
-1.487, 4.160e-3
-1.486, 4.115e-3
-1.485, 4.091e-3
-1.484, 4.100e-3
-1.483, 4.023e-3
-1.482, 3.982e-3
-1.481, 3.943e-3
-1.480, 3.911e-3
-1.479, 3.897e-3
-1.478, 3.847e-3
-1.477, 3.814e-3
-1.476, 3.778e-3
-1.475, 3.741e-3
-1.474, 3.705e-3
-1.473, 3.674e-3
-1.472, 3.645e-3
-1.471, 3.609e-3
-1.470, 3.582e-3
-1.469, 3.550e-3
-1.468, 3.521e-3
-1.467, 3.486e-3
-1.466, 3.454e-3
-1.465, 3.420e-3
-1.464, 3.385e-3
-1.463, 3.355e-3
-1.462, 3.328e-3
-1.461, 3.289e-3
-1.460, 3.254e-3
-1.459, 3.232e-3
-1.458, 3.205e-3
-1.457, 3.172e-3
-1.456, 3.132e-3
-1.455, 3.101e-3
-1.454, 3.069e-3
-1.453, 3.035e-3
-1.452, 3.005e-3
-1.451, 2.922e-3
-1.450, 2.860e-3
-1.449, 2.834e-3
-1.448, 2.805e-3
-1.447, 2.788e-3
-1.446, 2.767e-3
-1.445, 2.727e-3
-1.444, 2.688e-3
-1.443, 2.661e-3
-1.442, 2.637e-3
-1.441, 2.610e-3
-1.440, 2.580e-3
-1.439, 2.554e-3
-1.438, 2.542e-3
-1.437, 2.529e-3
-1.436, 2.491e-3
-1.435, 2.473e-3
-1.434, 2.430e-3
-1.433, 2.396e-3
-1.432, 2.384e-3
-1.431, 2.350e-3
-1.430, 2.333e-3
-1.429, 2.313e-3
-1.428, 2.293e-3
-1.427, 2.268e-3
-1.426, 2.242e-3
-1.425, 2.218e-3
-1.424, 2.194e-3
-1.423, 2.171e-3
-1.422, 2.149e-3
-1.421, 2.128e-3
-1.420, 2.105e-3
-1.419, 2.085e-3
-1.418, 2.078e-3
-1.417, 2.050e-3
-1.416, 2.024e-3
-1.415, 2.002e-3
-1.414, 1.978e-3
-1.413, 1.957e-3
-1.412, 1.936e-3
-1.411, 1.916e-3
-1.410, 1.893e-3
-1.409, 1.873e-3
-1.408, 1.856e-3
-1.407, 1.834e-3
-1.406, 1.813e-3
-1.405, 1.791e-3
-1.404, 1.771e-3
-1.403, 1.750e-3
-1.402, 1.732e-3
-1.401, 1.712e-3
-1.400, 1.692e-3
-1.399, 1.672e-3
-1.398, 1.656e-3
-1.397, 1.640e-3
-1.396, 1.621e-3
-1.395, 1.603e-3
-1.394, 1.585e-3
-1.393, 1.567e-3
-1.392, 1.553e-3
-1.391, 1.541e-3
-1.390, 1.522e-3
-1.389, 1.505e-3
-1.388, 1.488e-3
-1.387, 1.474e-3
-1.386, 1.455e-3
-1.385, 1.434e-3
-1.384, 1.422e-3
-1.383, 1.403e-3
-1.382, 1.388e-3
-1.381, 1.372e-3
-1.380, 1.355e-3
-1.379, 1.337e-3
-1.378, 1.322e-3
-1.377, 1.310e-3
-1.376, 1.295e-3
-1.375, 1.277e-3
-1.374, 1.261e-3
-1.373, 1.249e-3
-1.372, 1.236e-3
-1.371, 1.220e-3
-1.370, 1.203e-3
-1.369, 1.186e-3
-1.368, 1.173e-3
-1.367, 1.161e-3
-1.366, 1.146e-3
-1.365, 1.133e-3
-1.364, 1.122e-3
-1.363, 1.107e-3
-1.362, 1.096e-3
-1.361, 1.081e-3
-1.360, 1.067e-3
-1.359, 1.051e-3
-1.358, 1.037e-3
-1.357, 1.025e-3
-1.356, 1.012e-3
-1.355, 1.000e-3
-1.354, 9.856e-4
-1.353, 9.735e-4
-1.352, 9.632e-4
-1.351, 9.507e-4
-1.350, 9.362e-4
-1.349, 9.237e-4
-1.348, 9.132e-4
-1.347, 9.027e-4
-1.346, 8.919e-4
-1.345, 8.777e-4
-1.344, 8.652e-4
-1.343, 8.548e-4
-1.342, 8.437e-4
-1.341, 8.329e-4
-1.340, 8.201e-4
-1.339, 8.128e-4
-1.338, 8.093e-4
-1.337, 7.911e-4
-1.336, 7.801e-4
-1.335, 7.668e-4
-1.334, 7.565e-4
-1.333, 7.488e-4
-1.332, 7.424e-4
-1.331, 7.282e-4
-1.330, 7.159e-4
-1.329, 7.052e-4
-1.328, 6.958e-4
-1.327, 6.880e-4
-1.326, 6.779e-4
-1.325, 6.669e-4
-1.324, 6.562e-4
-1.323, 6.488e-4
-1.322, 6.419e-4
-1.321, 6.322e-4
-1.320, 6.211e-4
-1.319, 6.113e-4
-1.318, 6.041e-4
-1.317, 5.953e-4
-1.316, 5.891e-4
-1.315, 5.771e-4
-1.314, 5.668e-4
-1.313, 5.589e-4
-1.312, 5.521e-4
-1.311, 5.428e-4
-1.310, 5.324e-4
-1.309, 5.236e-4
-1.308, 5.161e-4
-1.307, 5.109e-4
-1.306, 5.034e-4
-1.305, 4.940e-4
-1.304, 4.840e-4
-1.303, 4.775e-4
-1.302, 4.709e-4
-1.301, 4.635e-4
-1.300, 4.592e-4
-1.299, 4.501e-4
-1.298, 4.459e-4
-1.297, 4.412e-4
-1.296, 4.331e-4
-1.295, 4.216e-4
-1.294, 4.129e-4
-1.293, 4.078e-4
-1.292, 4.016e-4
-1.291, 3.931e-4
-1.290, 3.847e-4
-1.289, 3.765e-4
-1.288, 3.711e-4
-1.287, 3.664e-4
-1.286, 3.590e-4
-1.285, 3.509e-4
-1.284, 3.433e-4
-1.283, 3.381e-4
-1.282, 3.334e-4
-1.281, 3.272e-4
-1.280, 3.191e-4
-1.279, 3.121e-4
-1.278, 3.232e-4
-1.277, 3.101e-4
-1.276, 3.001e-4
-1.275, 2.920e-4
-1.274, 2.847e-4
-1.273, 2.801e-4
-1.272, 2.765e-4
-1.271, 2.750e-4
-1.270, 2.640e-4
-1.269, 2.585e-4
-1.268, 2.534e-4
-1.267, 2.489e-4
-1.266, 2.429e-4
-1.265, 2.365e-4
-1.264, 2.310e-4
-1.263, 2.278e-4
-1.262, 2.228e-4
-1.261, 2.181e-4
-1.260, 2.119e-4
-1.259, 2.056e-4
-1.258, 2.018e-4
-1.257, 1.990e-4
-1.256, 1.948e-4
-1.255, 1.888e-4
-1.254, 1.848e-4
-1.253, 1.800e-4
-1.252, 1.764e-4
-1.251, 1.726e-4
-1.250, 1.673e-4
-1.249, 1.616e-4
-1.248, 1.590e-4
-1.247, 1.558e-4
-1.246, 1.526e-4
-1.245, 1.467e-4
-1.244, 1.414e-4
-1.243, 1.384e-4
-1.242, 1.364e-4
-1.241, 1.325e-4
-1.240, 1.274e-4
-1.239, 1.224e-4
-1.238, 1.196e-4
-1.237, 1.178e-4
-1.236, 1.144e-4
-1.235, 1.194e-4
-1.234, 1.080e-4
-1.233, 1.033e-4
-1.232, 1.025e-4
-1.231, 9.858e-5
-1.230, 9.329e-5
-1.229, 8.918e-5
-1.228, 8.728e-5
-1.227, 8.527e-5
-1.226, 8.229e-5
-1.225, 7.741e-5
-1.224, 7.312e-5
-1.223, 7.108e-5
-1.222, 6.988e-5
-1.221, 6.825e-5
-1.220, 6.407e-5
-1.219, 5.833e-5
-1.218, 5.638e-5
-1.217, 5.592e-5
-1.216, 5.367e-5
-1.215, 4.921e-5
-1.214, 4.509e-5
-1.213, 4.384e-5
-1.212, 4.293e-5
-1.211, 4.073e-5
-1.210, 3.695e-5
-1.209, 3.327e-5
-1.208, 3.205e-5
-1.207, 3.136e-5
-1.206, 2.918e-5
-1.205, 2.553e-5
-1.204, 2.195e-5
-1.203, 2.074e-5
-1.202, 2.078e-5
-1.201, 1.875e-5
-1.200, 1.501e-5
-1.199, 1.216e-5
-1.198, 1.197e-5
-1.197, 1.060e-5
-1.196, 8.781e-6
-1.195, 5.147e-6
-1.194, 1.983e-6
-1.193, 1.019e-6
-1.192, 1.163e-6
-1.191, -3.643e-7
-1.190, -3.926e-6
-1.189, -6.800e-6
-1.188, -7.544e-6
-1.187, -7.452e-6
-1.186, -8.760e-6
-1.185, -1.209e-5
-1.184, -1.487e-5
-1.183, -1.547e-5
-1.182, -1.523e-5
-1.181, -1.640e-5
-1.180, -1.948e-5
-1.179, -2.241e-5
-1.178, -2.305e-5
-1.177, -2.263e-5
-1.176, -2.357e-5
-1.175, -2.636e-5
-1.174, -2.928e-5
-1.173, -2.952e-5
-1.172, -2.902e-5
-1.171, -2.990e-5
-1.170, -3.278e-5
-1.169, -3.556e-5
-1.168, -3.555e-5
-1.167, -3.495e-5
-1.166, -3.594e-5
-1.165, -3.852e-5
-1.164, -4.113e-5
-1.163, -4.129e-5
-1.162, -4.049e-5
-1.161, -4.129e-5
-1.160, -4.365e-5
-1.159, -4.618e-5
-1.158, -4.640e-5
-1.157, -4.544e-5
-1.156, -4.619e-5
-1.155, -4.873e-5
-1.154, -5.100e-5
-1.153, -5.137e-5
-1.152, -5.094e-5
-1.151, -5.088e-5
-1.150, -5.375e-5
-1.149, -5.592e-5
-1.148, -5.576e-5
-1.147, -5.496e-5
-1.146, -5.526e-5
-1.145, -5.772e-5
-1.144, -5.983e-5
-1.143, -5.962e-5
-1.142, -5.888e-5
-1.141, -5.901e-5
-1.140, -6.151e-5
-1.139, -6.366e-5
-1.138, -6.346e-5
-1.137, -6.260e-5
-1.136, -6.276e-5
-1.135, -6.492e-5
-1.134, -6.728e-5
-1.133, -6.719e-5
-1.132, -6.617e-5
-1.131, -6.645e-5
-1.130, -6.840e-5
-1.129, -7.075e-5
-1.128, -7.040e-5
-1.127, -6.953e-5
-1.126, -6.961e-5
-1.125, -7.153e-5
-1.124, -7.361e-5
-1.123, -7.364e-5
-1.122, -7.240e-5
-1.121, -7.263e-5
-1.120, -7.449e-5
-1.119, -7.654e-5
-1.118, -7.690e-5
-1.117, -7.521e-5
-1.116, -7.551e-5
-1.115, -7.758e-5
-1.114, -7.951e-5
-1.113, -7.953e-5
-1.112, -7.811e-5
-1.111, -7.829e-5
-1.110, -8.058e-5
-1.109, -8.391e-5
-1.108, -8.286e-5
-1.107, -8.117e-5
-1.106, -8.108e-5
-1.105, -8.323e-5
-1.104, -8.511e-5
-1.103, -8.505e-5
-1.102, -8.392e-5
-1.101, -8.370e-5
-1.100, -8.574e-5
-1.099, -8.793e-5
-1.098, -8.764e-5
-1.097, -8.684e-5
-1.096, -8.639e-5
-1.095, -8.963e-5
-1.094, -9.099e-5
-1.093, -9.142e-5
-1.092, -9.012e-5
-1.091, -8.917e-5
-1.090, -9.110e-5
-1.089, -9.324e-5
-1.088, -9.312e-5
-1.087, -9.180e-5
-1.086, -9.196e-5
-1.085, -9.373e-5
-1.084, -9.590e-5
-1.083, -9.603e-5
-1.082, -9.474e-5
-1.081, -9.482e-5
-1.080, -9.671e-5
-1.079, -1.014e-4
-1.078, -1.011e-4
-1.077, -9.850e-5
-1.076, -9.845e-5
-1.075, -1.007e-4
-1.074, -1.025e-4
-1.073, -1.027e-4
-1.072, -1.012e-4
-1.071, -1.013e-4
-1.070, -1.040e-4
-1.069, -1.056e-4
-1.068, -1.060e-4
-1.067, -1.054e-4
-1.066, -1.056e-4
-1.065, -1.081e-4
-1.064, -1.098e-4
-1.063, -1.102e-4
-1.062, -1.090e-4
-1.061, -1.093e-4
-1.060, -1.115e-4
-1.059, -1.138e-4
-1.058, -1.138e-4
-1.057, -1.129e-4
-1.056, -1.129e-4
-1.055, -1.151e-4
-1.054, -1.177e-4
-1.053, -1.182e-4
-1.052, -1.171e-4
-1.051, -1.174e-4
-1.050, -1.196e-4
-1.049, -1.223e-4
-1.048, -1.222e-4
-1.047, -1.212e-4
-1.046, -1.216e-4
-1.045, -1.238e-4
-1.044, -1.263e-4
-1.043, -1.272e-4
-1.042, -1.266e-4
-1.041, -1.271e-4
-1.040, -1.292e-4
-1.039, -1.322e-4
-1.038, -1.376e-4
-1.037, -1.335e-4
-1.036, -1.333e-4
-1.035, -1.354e-4
-1.034, -1.379e-4
-1.033, -1.389e-4
-1.032, -1.380e-4
-1.031, -1.387e-4
-1.030, -1.416e-4
-1.029, -1.441e-4
-1.028, -1.452e-4
-1.027, -1.447e-4
-1.026, -1.454e-4
-1.025, -1.483e-4
-1.024, -1.517e-4
-1.023, -1.529e-4
-1.022, -1.525e-4
-1.021, -1.526e-4
-1.020, -1.558e-4
-1.019, -1.587e-4
-1.018, -1.599e-4
-1.017, -1.598e-4
-1.016, -1.604e-4
-1.015, -1.636e-4
-1.014, -1.682e-4
-1.013, -1.686e-4
-1.012, -1.684e-4
-1.011, -1.702e-4
-1.010, -1.736e-4
-1.009, -1.788e-4
-1.008, -1.822e-4
-1.007, -1.812e-4
-1.006, -1.814e-4
-1.005, -1.835e-4
-1.004, -1.869e-4
-1.003, -1.886e-4
-1.002, -1.884e-4
-1.001, -1.898e-4
