Potential V vs RHE, Current mA cm-2
0.013299999999999867,-0.1330535977523067
0.012299999999999978,-1.0490084288499246
0.011299999999999866,-1.6156003044458718
0.010299999999999976,-1.9650339955125358
0.009299999999999864,-2.1828995356917518
0.008299999999999974,-2.3569090255751513
0.007299999999999862,-2.532333226758415
0.006299999999999972,-2.7501987669376318
0.00529999999999986,-3.0119203574126634
0.0042999999999999705,-3.2297858975918787
0.0032999999999998586,-3.317497998183511
0.0022999999999999687,-3.361354048479327
0.0012999999999998568,-3.361354048479327
0.00029999999999996696,-3.361354048479327
-0.000700000000000145,-3.403795387475278
-0.0017000000000000348,-3.4915074880669104
-0.0027000000000001467,-3.623075638954359
-0.0037000000000000366,-3.7970851288377587
-0.0047000000000001485,-3.840941179133574
-0.005700000000000038,-3.884797229429391
-0.00670000000000015,-3.840941179133574
-0.00770000000000004,-3.7970851288377587
-0.008700000000000152,-3.7970851288377587
-0.009700000000000042,-3.840941179133574
-0.010700000000000154,-3.971094618721158
-0.011700000000000044,-4.0588067193127895
-0.012700000000000156,-4.1889601589003735
-0.013700000000000045,-4.1889601589003735
-0.014700000000000157,-4.1889601589003735
-0.015700000000000047,-4.102662769608606
-0.01670000000000016,-4.0588067193127895
-0.01770000000000005,-4.0588067193127895
-0.01870000000000016,-4.1889601589003735
-0.01970000000000005,-4.276672259492005
-0.020700000000000163,-4.406825699079589
-0.021700000000000053,-4.450681749375406
-0.022700000000000164,-4.406825699079589
-0.023700000000000054,-4.364384360083638
-0.024700000000000166,-4.276672259492005
-0.025700000000000056,-4.276672259492005
-0.026700000000000168,-4.3205283097878215
-0.027700000000000058,-4.450681749375406
-0.02870000000000017,-4.538393849967037
-0.02970000000000006,-4.626105950558669
-0.03070000000000017,-4.626105950558669
-0.03170000000000006,-4.538393849967037
-0.03270000000000017,-4.494537799671222
-0.03370000000000006,-4.406825699079589
-0.034700000000000175,-4.450681749375406
-0.035700000000000065,-4.582249900262854
-0.03670000000000018,-4.668547289554621
-0.03770000000000007,-4.756259390146253
-0.03870000000000018,-4.756259390146253
-0.03970000000000007,-4.712403339850438
-0.04070000000000018,-4.668547289554621
-0.04170000000000007,-4.582249900262854
-0.04270000000000018,-4.582249900262854
-0.04370000000000007,-4.668547289554621
-0.044700000000000184,-4.756259390146253
-0.045700000000000074,-4.887827541033701
-0.046700000000000186,-4.887827541033701
-0.047700000000000076,-4.843971490737885
-0.04870000000000019,-4.800115440442069
-0.04970000000000008,-4.712403339850438
-0.05070000000000019,-4.712403339850438
-0.05170000000000008,-4.756259390146253
-0.05270000000000019,-4.843971490737885
-0.05370000000000008,-4.974124930325469
-0.05470000000000019,-5.017980980621284
-0.05570000000000008,-5.017980980621284
-0.056700000000000195,-4.9302688800296535
-0.057700000000000085,-4.843971490737885
-0.058700000000000196,-4.800115440442069
-0.059700000000000086,-4.843971490737885
-0.0607000000000002,-4.9302688800296535
-0.06170000000000009,-5.017980980621284
-0.0627000000000002,-5.149549131508733
-0.06370000000000009,-5.149549131508733
-0.0647000000000002,-5.0618370309171015
-0.06570000000000009,-5.017980980621284
-0.0667000000000002,-4.9302688800296535
-0.0677000000000001,-4.9302688800296535
-0.0687000000000002,-5.017980980621284
-0.0697000000000001,-5.105693081212917
-0.07070000000000021,-5.191990470504685
-0.0717000000000001,-5.235846520800501
-0.07270000000000021,-5.191990470504685
-0.0737000000000001,-5.149549131508733
-0.07470000000000021,-5.0618370309171015
-0.0757000000000001,-5.017980980621284
-0.07670000000000021,-5.0618370309171015
-0.0777000000000001,-5.149549131508733
-0.07870000000000021,-5.279702571096316
-0.0797000000000001,-5.323558621392133
-0.08070000000000022,-5.323558621392133
-0.0817000000000001,-5.235846520800501
-0.08270000000000022,-5.191990470504685
-0.08370000000000011,-5.105693081212917
-0.08470000000000022,-5.149549131508733
-0.08570000000000011,-5.235846520800501
-0.08670000000000022,-5.323558621392133
-0.08770000000000011,-5.411270721983764
-0.08870000000000022,-5.453712060979717
-0.08970000000000011,-5.367414671687949
-0.09070000000000022,-5.279702571096316
-0.09170000000000011,-5.235846520800501
-0.09270000000000023,-5.235846520800501
-0.09370000000000012,-5.323558621392133
-0.09470000000000023,-5.411270721983764
-0.09570000000000012,-5.5414241615713475
-0.09670000000000023,-5.5414241615713475
-0.09770000000000012,-5.497568111275533
-0.09870000000000023,-5.411270721983764
-0.09970000000000012,-5.323558621392133
-0.10070000000000023,-5.323558621392133
-0.10170000000000012,-5.367414671687949
-0.10270000000000024,-5.497568111275533
-0.10370000000000013,-5.585280211867165
-0.10470000000000024,-5.629136262162981
-0.10570000000000013,-5.629136262162981
-0.10670000000000024,-5.5414241615713475
-0.10770000000000013,-5.497568111275533
-0.10870000000000024,-5.453712060979717
-0.10970000000000013,-5.453712060979717
-0.11070000000000024,-5.585280211867165
-0.11170000000000013,-5.672992312458796
-0.11270000000000002,-5.759289701750564
-0.11370000000000013,-5.759289701750564
-0.11470000000000002,-5.715433651454749
-0.11570000000000014,-5.629136262162981
-0.11670000000000003,-5.585280211867165
-0.11770000000000014,-5.585280211867165
-0.11870000000000003,-5.672992312458796
-0.11970000000000014,-5.759289701750564
-0.12070000000000003,-5.847001802342197
-0.12170000000000014,-5.890857852638012
-0.12270000000000003,-5.847001802342197
-0.12370000000000014,-5.759289701750564
-0.12470000000000003,-5.715433651454749
-0.12570000000000014,-5.672992312458796
-0.12670000000000003,-5.715433651454749
-0.12770000000000015,-5.847001802342197
-0.12870000000000004,-5.9347139029338285
-0.12970000000000015,-5.977155241929781
-0.13070000000000004,-5.977155241929781
-0.13170000000000015,-5.9347139029338285
-0.13270000000000004,-5.847001802342197
-0.13370000000000015,-5.847001802342197
-0.13470000000000004,-5.847001802342197
-0.13570000000000015,-5.9347139029338285
-0.13670000000000004,-6.021011292225596
-0.13770000000000016,-6.152579443113044
-0.13870000000000005,-6.152579443113044
-0.13970000000000016,-6.108723392817228
-0.14070000000000005,-6.021011292225596
-0.14170000000000016,-5.9347139029338285
-0.14270000000000005,-5.977155241929781
-0.14370000000000016,-6.064867342521412
-0.14470000000000005,-6.152579443113044
-0.14570000000000016,-6.282732882700628
-0.14670000000000005,-6.282732882700628
-0.14770000000000016,-6.282732882700628
-0.14870000000000005,-6.196435493408861
-0.14970000000000017,-6.108723392817228
-0.15070000000000006,-6.108723392817228
-0.15170000000000017,-6.152579443113044
-0.15270000000000006,-6.282732882700628
-0.15370000000000017,-6.414301033588076
-0.15470000000000006,-6.458157083883892
-0.15570000000000017,-6.458157083883892
-0.15670000000000006,-6.37044498329226
-0.15770000000000017,-6.326588932996443
-0.15870000000000006,-6.282732882700628
-0.15970000000000018,-6.326588932996443
-0.16070000000000007,-6.414301033588076
-0.16170000000000018,-6.54445447317566
-0.16270000000000007,-6.632166573767292
-0.16370000000000018,-6.632166573767292
-0.16470000000000007,-6.632166573767292
-0.16570000000000018,-6.54445447317566
-0.16670000000000007,-6.458157083883892
-0.16770000000000018,-6.500598422879844
-0.16870000000000007,-6.588310523471475
-0.16970000000000018,-6.6760226240631075
-0.17070000000000007,-6.850032113946507
-0.17170000000000019,-6.850032113946507
-0.17270000000000008,-6.850032113946507
-0.1737000000000002,-6.762320013354876
-0.17470000000000008,-6.719878674358924
-0.1757000000000002,-6.719878674358924
-0.17670000000000008,-6.762320013354876
-0.1777000000000002,-6.893888164242324
-0.17870000000000008,-6.981600264833956
-0.1797000000000002,-7.067897654125724
-0.18070000000000008,-7.111753704421539
-0.1817000000000002,-7.024041603829907
-0.18270000000000008,-6.981600264833956
-0.1837000000000002,-6.93774421453814
-0.1847000000000001,-6.981600264833956
-0.1857000000000002,-7.111753704421539
-0.1867000000000001,-7.199465805013171
-0.1877000000000002,-7.329619244600755
-0.1887000000000001,-7.37347529489657
-0.1897000000000002,-7.329619244600755
-0.1907000000000001,-7.28576319430494
-0.1917000000000001,-7.199465805013171
-0.19269999999999998,-7.243321855308987
-0.1937000000000001,-7.329619244600755
-0.19469999999999998,-7.461187395488204
-0.1957000000000001,-7.591340835075788
-0.19669999999999999,-7.679052935667419
-0.1977000000000001,-7.635196885371603
-0.1987,-7.591340835075788
-0.1997000000000001,-7.5474847847799715
-0.2007,-7.5474847847799715
-0.2017000000000001,-7.635196885371603
-0.2027,-7.7653503249591855
-0.2037000000000001,-7.896918475846635
-0.2047,-7.984630576438266
-0.2057000000000001,-8.027071915434218
-0.2067,-7.940774526142452
-0.2077000000000001,-7.940774526142452
-0.2087,-7.896918475846635
-0.2097000000000001,-7.940774526142452
-0.2107,-8.070927965730034
-0.2117000000000001,-8.202496116617484
-0.2127,-8.332649556205066
-0.2137000000000001,-8.376505606500881
-0.2147,-8.376505606500881
-0.2157000000000001,-8.332649556205066
-0.2167,-8.332649556205066
-0.21770000000000012,-8.332649556205066
-0.2187,-8.464217707092514
-0.21970000000000012,-8.594371146680096
-0.2207,-8.725939297567548
-0.22170000000000012,-8.812236686859313
-0.2227,-8.812236686859313
-0.22370000000000012,-8.769795347863363
-0.2247,-8.725939297567548
-0.22570000000000012,-8.769795347863363
-0.2267,-8.85609273715513
-0.22770000000000012,-8.987660888042578
-0.22870000000000001,-9.161670377925978
-0.22970000000000013,-9.24938247851761
-0.23070000000000002,-9.293238528813426
-0.23170000000000013,-9.24938247851761
-0.23270000000000002,-9.24938247851761
-0.23370000000000013,-9.24938247851761
-0.23470000000000002,-9.335679867809377
-0.23570000000000013,-9.467248018696827
-0.23670000000000002,-9.641257508580225
-0.2376999999999999,-9.772825659467674
-0.23870000000000002,-9.81668170976349
-0.2396999999999999,-9.81668170976349
-0.24070000000000003,-9.81668170976349
-0.24169999999999991,-9.772825659467674
-0.24270000000000003,-9.85912304875944
-0.24369999999999992,-9.99069119964689
-0.24470000000000003,-10.120844639234473
-0.24569999999999992,-10.296268840417738
-0.24670000000000003,-10.382566229709504
-0.24769999999999992,-10.42642228000532
-0.24870000000000003,-10.42642228000532
-0.24969999999999992,-10.382566229709504
-0.25070000000000003,-10.42642228000532
-0.2516999999999999,-10.557990430892769
-0.25270000000000004,-10.688143870480351
-0.2536999999999999,-10.863568071663616
-0.25470000000000004,-10.993721511251199
-0.2556999999999999,-11.037577561547016
-0.25670000000000004,-11.037577561547016
-0.25769999999999993,-11.081433611842833
-0.25870000000000004,-11.081433611842833
-0.25969999999999993,-11.1677310011346
-0.26070000000000004,-11.343155202317865
-0.26169999999999993,-11.517164692201263
-0.26270000000000004,-11.691174182084664
-0.26369999999999993,-11.73503023238048
-0.26470000000000005,-11.778886282676295
-0.26569999999999994,-11.82274233297211
-0.26670000000000005,-11.82274233297211
-0.26769999999999994,-11.86659838326793
-0.26870000000000005,-12.040607873151327
-0.26969999999999994,-12.214617363034726
-0.27070000000000005,-12.390041564217992
-0.27169999999999994,-12.520195003805576
-0.27270000000000005,-12.56405105410139
-0.27369999999999994,-12.607907104397206
-0.27470000000000006,-12.607907104397206
-0.27569999999999995,-12.651763154693022
-0.27670000000000006,-12.781916594280606
-0.27769999999999995,-12.99978213445982
-0.27870000000000006,-13.175206335643086
-0.27969999999999995,-13.30535977523067
-0.28070000000000006,-13.436927926118118
-0.28169999999999995,-13.436927926118118
-0.28270000000000006,-13.47936926511407
-0.28369999999999995,-13.47936926511407
-0.28470000000000006,-13.610937416001518
-0.28569999999999995,-13.784946905884919
-0.28670000000000007,-14.002812446064135
-0.28769999999999996,-14.175407224647667
-0.28870000000000007,-14.30273124163552
-0.28969999999999996,-14.345172580631472
-0.29070000000000007,-14.401761032626075
-0.29169999999999996,-14.444202371622024
-0.29270000000000007,-14.529085049613924
-0.29369999999999996,-14.741291744593681
-0.2947000000000001,-14.925204213576137
-0.29569999999999996,-15.137410908555893
-0.2967000000000001,-15.307176264539699
-0.29769999999999996,-15.3920589425316
-0.2987000000000001,-15.448647394526201
-0.29969999999999997,-15.448647394526201
-0.3007000000000001,-15.575971411514052
-0.30169999999999997,-15.70329542850191
-0.3027000000000001,-15.972090575476265
-0.30369999999999997,-16.184297270456018
-0.3047000000000001,-16.354062626439823
-0.30569999999999997,-16.495533756426326
-0.3067000000000001,-16.580416434418233
-0.3077,-16.622857773414182
-0.3087000000000001,-16.70774045140608
-0.3097,-16.835064468393938
-0.3107000000000001,-17.061418276372343
-0.3117,-17.2736249713521
-0.3127000000000001,-17.48583166633185
-0.3137,-17.669744135314307
-0.3147000000000001,-17.75462681330621
-0.3157,-17.839509491298113
-0.3167000000000001,-17.881950830294063
-0.3177,-18.06586329927652
-0.3187000000000001,-18.27806999425627
-0.3197,-18.49027668923603
-0.3207000000000001,-18.759071836210385
-0.3217,-18.97127853119014
-0.3227000000000001,-19.056161209182044
-0.3237,-19.197632339168546
-0.3247000000000001,-19.2400736781645
-0.3257,-19.409839034148305
-0.3267000000000001,-19.579604390132108
-0.3277,-19.848399537106463
-0.3287000000000001,-20.159636023076775
-0.3297,-20.329401379060574
-0.3307000000000001,-20.499166735044383
-0.3317,-20.626490752032236
-0.3327000000000001,-20.72552054302279
-0.3337,-20.85284456001064
-0.3347000000000001,-21.022609915994444
-0.3357,-21.291405062968803
-0.3367000000000001,-21.58849443594046
-0.3377,-21.857289582914817
-0.3387000000000001,-22.069496277894572
-0.3397,-22.196820294882425
-0.3407000000000001,-22.295850085872978
-0.3417,-22.42317410286083
-0.3427000000000001,-22.592939458844636
-0.3437,-22.904175944814945
-0.3447000000000001,-23.15882397879065
-0.3457,-23.47006046476096
-0.3467000000000001,-23.682267159740714
-0.3477,-23.908620967719123
-0.3487000000000001,-24.035944984706973
-0.3497,-24.120827662698876
-0.3507000000000001,-24.34718147067728
-0.3517,-24.559388165657033
-0.3527000000000001,-24.9130659906233
-0.3537,-25.167714024599
-0.3547000000000001,-25.43650917157336
-0.3557,-25.691157205549064
-0.35670000000000013,-25.81848122253692
-0.3577,-26.002393691519377
-0.35870000000000013,-26.129717708507226
-0.3597,-26.38436574248293
-0.36070000000000013,-26.65316088945729
-0.3617,-27.049280053419505
-0.3626999999999999,-27.34636942639116
-0.3637,-27.615164573365515
-0.3646999999999999,-27.742488590353368
-0.3657,-27.912253946337174
-0.3666999999999999,-28.09616641531963
-0.3677,-28.308373110299385
-0.3686999999999999,-28.662050935265643
-0.36970000000000003,-28.959140308237306
-0.3706999999999999,-29.31281813320356
-0.37170000000000003,-29.581613280177915
-0.3726999999999999,-29.793819975157668
-0.37370000000000003,-30.00602667013743
-0.3746999999999999,-30.189939139119886
-0.37570000000000003,-30.402145834099635
-0.3766999999999999,-30.670940981073993
-0.37770000000000004,-31.010471693041605
-0.3786999999999999,-31.40659085700382
-0.37970000000000004,-31.717827342974125
-0.3806999999999999,-31.972475376949827
-0.38170000000000004,-32.184682071929586
-0.38269999999999993,-32.368594540912035
-0.38370000000000004,-32.58080123589179
-0.38469999999999993,-32.892037721862096
-0.38570000000000004,-33.231568433829715
-0.38669999999999993,-33.58524625879597
-0.38770000000000004,-33.98136542275818
-0.38869999999999993,-34.278454795729836
-0.38970000000000005,-34.50480860370825
-0.39069999999999994,-34.717015298688004
-0.39170000000000005,-34.90092776767045
-0.39269999999999994,-35.240458479638065
-0.39370000000000005,-35.594136304604326
-0.39469999999999994,-35.99025546856653
-0.39570000000000005,-36.329786180534136
-0.39669999999999994,-36.6834640055004
-0.39770000000000005,-36.95225915247476
-0.39869999999999994,-37.206907186450465
-0.39970000000000006,-37.376672542434264
-0.40069999999999995,-37.687909028404576
-0.40170000000000006,-38.04158685337084
-0.40269999999999995,-38.42355890433439
-0.40370000000000006,-38.86211940729255
-0.40469999999999995,-39.21579723225882
-0.40570000000000006,-39.56947505722508
-0.40669999999999995,-39.78168175220483
-0.40770000000000006,-40.03632978618054
-0.40869999999999995,-40.26268359415894
-0.40970000000000006,-40.616361419125205
-0.41069999999999995,-40.99833347008877
-0.41170000000000007,-41.47933531204288
-0.41269999999999996,-41.87545447600508
-0.41370000000000007,-42.229132300971344
-0.41469999999999996,-42.526221673943
-0.41570000000000007,-42.79501682091736
-0.41669999999999996,-43.04966485489307
-0.41770000000000007,-43.36090134086337
-0.41869999999999996,-43.79946184382153
-0.4197000000000001,-44.223875233781044
-0.42069999999999996,-44.66243573673921
-0.4217000000000001,-45.05855490070142
-0.42269999999999996,-45.412232725667685
-0.4237000000000001,-45.70932209863933
-0.42469999999999997,-45.97811724561369
-0.4257000000000001,-46.3176479575813
-0.42669999999999997,-46.67132578254756
-0.4277000000000001,-47.15232762450167
-0.42869999999999997,-47.633329466455784
-0.4297000000000001,-48.071889969413945
-0.43069999999999997,-48.45386202037751
-0.4317000000000001,-48.76509850634781
-0.4327,-49.03389365332217
-0.4337000000000001,-49.373424365289786
-0.4347,-49.72710219025603
-0.4357000000000001,-50.20810403221015
-0.4367,-50.68910587416426
-0.4377000000000001,-51.17010771611838
-0.4387,-51.594521106077885
-0.4397000000000001,-51.90575759204819
-0.4407,-52.25943541701445
-0.4417000000000001,-52.59896612898206
-0.4427,-52.995085292944275
-0.4437000000000001,-53.433645795902436
-0.4447,-53.9570889768525
-0.4457000000000001,-54.43809081880661
-0.4467,-54.919092660760725
-0.4477000000000001,-55.25862337272834
-0.4487,-55.612301197694585
-0.4497000000000001,-55.96597902266086
-0.4507,-56.36209818662306
-0.4517000000000001,-56.82895291557852
-0.4527,-57.30995475753264
-0.4537000000000001,-57.87583927747865
-0.4547,-58.35684111943277
-0.4557000000000001,-58.79540162239092
-0.4567,-59.14907944735718
-0.4577000000000001,-59.502757272323436
-0.4587,-59.92717066228296
-0.4597000000000001,-60.36573116524111
-0.4607,-60.889174346191176
-0.4617000000000001,-61.455058866137186
-0.4627,-61.97850204708726
-0.4637000000000001,-62.459503889041365
-0.4647,-62.855623053003576
-0.4657000000000001,-63.251742216965795
-0.4667,-63.633714267929356
-0.4677000000000001,-64.0722747708875
-0.4687,-64.59571795183757
-0.4697000000000001,-65.11916113278764
-0.4707,-65.68504565273366
-0.4717000000000001,-66.25093017267966
-0.4727,-66.68949067563783
-0.4737000000000001,-67.128051178596
-0.4747,-67.52417034255821
-0.4757000000000001,-68.0051721845123
-0.4767,-68.48617402646643
-0.4777000000000001,-69.05205854641244
-0.4787,-69.6603844053544
-0.4797000000000001,-70.18382758630447
-0.4807,-70.70727076725453
-0.48170000000000013,-71.1458312702127
-0.4827,-71.6268331121668
-0.48370000000000013,-72.10783495412092
-0.4847,-72.57468968307639
-0.48570000000000013,-73.15472131602105
-0.4867,-72.8859261690467
-0.48570000000000013,-71.66927445116276
-0.4847,-70.66482942825859
-0.48370000000000013,-69.74526708334632
-0.4827,-68.91058741642594
-0.48170000000000013,-68.0900548625042
-0.4807,-67.34025787357575
-0.4797000000000001,-66.68949067563783
-0.4787,-66.08116481669586
-0.4777000000000001,-65.5577216357458
-0.4767,-64.90695443780788
-0.4757000000000001,-64.29862857886593
-0.4747,-63.59127292893339
-0.4737000000000001,-62.81318171400764
-0.4727,-62.20485585506566
-0.4717000000000001,-61.5965299961237
-0.4707,-61.01649836317903
-0.4697000000000001,-60.49305518222897
-0.4687,-59.9696120012789
-0.4677000000000001,-59.36128614233694
-0.4667,-58.71051894439902
-0.4657000000000001,-58.05975174646111
-0.4647,-57.408984548523186
-0.4637000000000001,-56.786511576582576
-0.4627,-56.30550973462846
-0.4617000000000001,-55.838655005673
