Potential V vs RHE, Current mA cm-2
0.013299999999999867,-0.26384365742482935
0.012299999999999978,-1.3107300193249565
0.011299999999999866,-2.052746096104168
0.010299999999999976,-2.618630616050183
0.009299999999999864,-3.0996324580042955
0.008299999999999974,-3.4915074880669104
0.007299999999999862,-3.7970851288377587
0.006299999999999972,-4.1889601589003735
0.00529999999999986,-4.494537799671222
0.0042999999999999705,-4.712403339850438
0.0032999999999998586,-4.974124930325469
0.0022999999999999687,-5.235846520800501
0.0012999999999998568,-5.367414671687949
0.00029999999999996696,-5.497568111275533
-0.000700000000000145,-5.585280211867165
-0.0017000000000000348,-5.672992312458796
-0.0027000000000001467,-5.715433651454749
-0.0037000000000000366,-5.715433651454749
-0.0047000000000001485,-5.759289701750564
-0.005700000000000038,-5.847001802342197
-0.00670000000000015,-5.890857852638012
-0.00770000000000004,-5.977155241929781
-0.008700000000000152,-6.064867342521412
-0.009700000000000042,-6.238876832404812
-0.010700000000000154,-6.326588932996443
-0.011700000000000044,-6.414301033588076
-0.012700000000000156,-6.54445447317566
-0.013700000000000045,-6.588310523471475
-0.014700000000000157,-6.632166573767292
-0.015700000000000047,-6.6760226240631075
-0.01670000000000016,-6.6760226240631075
-0.01770000000000005,-6.6760226240631075
-0.01870000000000016,-6.632166573767292
-0.01970000000000005,-6.6760226240631075
-0.020700000000000163,-6.632166573767292
-0.021700000000000053,-6.719878674358924
-0.022700000000000164,-6.719878674358924
-0.023700000000000054,-6.806176063650692
-0.024700000000000166,-6.893888164242324
-0.025700000000000056,-6.981600264833956
-0.026700000000000168,-7.067897654125724
-0.027700000000000058,-7.199465805013171
-0.02870000000000017,-7.199465805013171
-0.02970000000000006,-7.243321855308987
-0.03070000000000017,-7.243321855308987
-0.03170000000000006,-7.243321855308987
-0.03270000000000017,-7.199465805013171
-0.03370000000000006,-7.199465805013171
-0.034700000000000175,-7.155609754717355
-0.035700000000000065,-7.155609754717355
-0.03670000000000018,-7.199465805013171
-0.03770000000000007,-7.199465805013171
-0.03870000000000018,-7.28576319430494
-0.03970000000000007,-7.37347529489657
-0.04070000000000018,-7.4173313451923875
-0.04170000000000007,-7.50504344578402
-0.04270000000000018,-7.591340835075788
-0.04370000000000007,-7.635196885371603
-0.044700000000000184,-7.635196885371603
-0.045700000000000074,-7.635196885371603
-0.046700000000000186,-7.635196885371603
-0.047700000000000076,-7.591340835075788
-0.04870000000000019,-7.5474847847799715
-0.04970000000000008,-7.5474847847799715
-0.05070000000000019,-7.50504344578402
-0.05170000000000008,-7.5474847847799715
-0.05270000000000019,-7.50504344578402
-0.05370000000000008,-7.635196885371603
-0.05470000000000019,-7.679052935667419
-0.05570000000000008,-7.722908985963235
-0.056700000000000195,-7.853062425550818
-0.057700000000000085,-7.940774526142452
-0.058700000000000196,-7.940774526142452
-0.059700000000000086,-7.984630576438266
-0.0607000000000002,-7.984630576438266
-0.06170000000000009,-7.940774526142452
-0.0627000000000002,-7.896918475846635
-0.06370000000000009,-7.853062425550818
-0.0647000000000002,-7.853062425550818
-0.06570000000000009,-7.853062425550818
-0.0667000000000002,-7.853062425550818
-0.0677000000000001,-7.853062425550818
-0.0687000000000002,-7.940774526142452
-0.0697000000000001,-7.984630576438266
-0.07070000000000021,-8.027071915434218
-0.0717000000000001,-8.11478401602585
-0.07270000000000021,-8.202496116617484
-0.0737000000000001,-8.202496116617484
-0.07470000000000021,-8.246352166913299
-0.0757000000000001,-8.246352166913299
-0.07670000000000021,-8.246352166913299
-0.0777000000000001,-8.158640066321666
-0.07870000000000021,-8.158640066321666
-0.0797000000000001,-8.11478401602585
-0.08070000000000022,-8.11478401602585
-0.0817000000000001,-8.11478401602585
-0.08270000000000022,-8.11478401602585
-0.08370000000000011,-8.158640066321666
-0.08470000000000022,-8.246352166913299
-0.08570000000000011,-8.332649556205066
-0.08670000000000022,-8.376505606500881
-0.08770000000000011,-8.464217707092514
-0.08870000000000022,-8.508073757388331
-0.08970000000000011,-8.508073757388331
-0.09070000000000022,-8.508073757388331
-0.09170000000000011,-8.508073757388331
-0.09270000000000023,-8.464217707092514
-0.09370000000000012,-8.4203616567967
-0.09470000000000023,-8.376505606500881
-0.09570000000000012,-8.376505606500881
-0.09670000000000023,-8.376505606500881
-0.09770000000000012,-8.332649556205066
-0.09870000000000023,-8.464217707092514
-0.09970000000000012,-8.55051509638428
-0.10070000000000023,-8.594371146680096
-0.10170000000000012,-8.638227196975913
-0.10270000000000024,-8.769795347863363
-0.10370000000000013,-8.769795347863363
-0.10470000000000024,-8.769795347863363
-0.10570000000000013,-8.769795347863363
-0.10670000000000024,-8.769795347863363
-0.10770000000000013,-8.725939297567548
-0.10870000000000024,-8.68208324727173
-0.10970000000000013,-8.638227196975913
-0.11070000000000024,-8.594371146680096
-0.11170000000000013,-8.638227196975913
-0.11270000000000002,-8.638227196975913
-0.11370000000000013,-8.725939297567548
-0.11470000000000002,-8.812236686859313
-0.11570000000000014,-8.85609273715513
-0.11670000000000003,-8.899948787450944
-0.11770000000000014,-8.987660888042578
-0.11870000000000003,-9.031516938338395
-0.11970000000000014,-9.031516938338395
-0.12070000000000003,-9.073958277334345
-0.12170000000000014,-9.031516938338395
-0.12270000000000003,-8.987660888042578
-0.12370000000000014,-8.987660888042578
-0.12470000000000003,-8.899948787450944
-0.12570000000000014,-8.899948787450944
-0.12670000000000003,-8.899948787450944
-0.12770000000000015,-8.899948787450944
-0.12870000000000004,-8.987660888042578
-0.12970000000000015,-9.073958277334345
-0.13070000000000004,-9.11781432763016
-0.13170000000000015,-9.205526428221793
-0.13270000000000004,-9.293238528813426
-0.13370000000000015,-9.293238528813426
-0.13470000000000004,-9.335679867809377
-0.13570000000000015,-9.335679867809377
-0.13670000000000004,-9.335679867809377
-0.13770000000000016,-9.24938247851761
-0.13870000000000005,-9.24938247851761
-0.13970000000000016,-9.24938247851761
-0.14070000000000005,-9.205526428221793
-0.14170000000000016,-9.205526428221793
-0.14270000000000005,-9.24938247851761
-0.14370000000000016,-9.293238528813426
-0.14470000000000005,-9.379535918105192
-0.14570000000000016,-9.467248018696827
-0.14670000000000005,-9.511104068992642
-0.14770000000000016,-9.641257508580225
-0.14870000000000005,-9.641257508580225
-0.14970000000000017,-9.641257508580225
-0.15070000000000006,-9.685113558876042
-0.15170000000000017,-9.641257508580225
-0.15270000000000006,-9.641257508580225
-0.15370000000000017,-9.59740145828441
-0.15470000000000006,-9.59740145828441
-0.15570000000000017,-9.55496011928846
-0.15670000000000006,-9.55496011928846
-0.15770000000000017,-9.55496011928846
-0.15870000000000006,-9.685113558876042
-0.15970000000000018,-9.728969609171857
-0.16070000000000007,-9.81668170976349
-0.16170000000000018,-9.902979099055257
-0.16270000000000007,-9.99069119964689
-0.16370000000000018,-9.99069119964689
-0.16470000000000007,-10.034547249942705
-0.16570000000000018,-10.078403300238522
-0.16670000000000007,-10.078403300238522
-0.16770000000000018,-9.99069119964689
-0.16870000000000007,-9.99069119964689
-0.16970000000000018,-9.99069119964689
-0.17070000000000007,-9.946835149351072
-0.17170000000000019,-9.946835149351072
-0.17270000000000008,-9.99069119964689
-0.1737000000000002,-10.078403300238522
-0.17470000000000008,-10.164700689530287
-0.1757000000000002,-10.208556739826104
-0.17670000000000008,-10.296268840417738
-0.1777000000000002,-10.42642228000532
-0.17870000000000008,-10.470278330301136
-0.1797000000000002,-10.470278330301136
-0.18070000000000008,-10.514134380596953
-0.1817000000000002,-10.514134380596953
-0.18270000000000008,-10.470278330301136
-0.1837000000000002,-10.42642228000532
-0.1847000000000001,-10.42642228000532
-0.1857000000000002,-10.42642228000532
-0.1867000000000001,-10.470278330301136
-0.1877000000000002,-10.470278330301136
-0.1887000000000001,-10.601846481188586
-0.1897000000000002,-10.688143870480351
-0.1907000000000001,-10.731999920776168
-0.1917000000000001,-10.819712021367803
-0.19269999999999998,-10.949865460955383
-0.1937000000000001,-10.993721511251199
-0.19469999999999998,-11.037577561547016
-0.1957000000000001,-11.037577561547016
-0.19669999999999999,-11.037577561547016
-0.1977000000000001,-11.037577561547016
-0.1987,-11.037577561547016
-0.1997000000000001,-10.993721511251199
-0.2007,-10.993721511251199
-0.2017000000000001,-11.037577561547016
-0.2027,-11.081433611842833
-0.2037000000000001,-11.1677310011346
-0.2047,-11.299299152022046
-0.2057000000000001,-11.385596541313816
-0.2067,-11.42945259160963
-0.2077000000000001,-11.604876792792895
-0.2087,-11.647318131788847
-0.2097000000000001,-11.647318131788847
-0.2107,-11.73503023238048
-0.2117000000000001,-11.691174182084664
-0.2127,-11.73503023238048
-0.2137000000000001,-11.691174182084664
-0.2147,-11.73503023238048
-0.2157000000000001,-11.73503023238048
-0.2167,-11.82274233297211
-0.21770000000000012,-11.82274233297211
-0.2187,-11.909039722263879
-0.21970000000000012,-12.040607873151327
-0.2207,-12.12831997374296
-0.22170000000000012,-12.258473413330542
-0.2227,-12.390041564217992
-0.22370000000000012,-12.390041564217992
-0.2247,-12.476338953509758
-0.22570000000000012,-12.520195003805576
-0.2267,-12.56405105410139
-0.22770000000000012,-12.56405105410139
-0.22870000000000001,-12.56405105410139
-0.22970000000000013,-12.56405105410139
-0.23070000000000002,-12.607907104397206
-0.23170000000000013,-12.651763154693022
-0.23270000000000002,-12.694204493688973
-0.23370000000000013,-12.825772644576423
-0.23470000000000002,-12.955926084164007
-0.23570000000000013,-13.043638184755638
-0.23670000000000002,-13.175206335643086
-0.2376999999999999,-13.30535977523067
-0.23870000000000002,-13.3930718758223
-0.2396999999999999,-13.436927926118118
-0.24070000000000003,-13.523225315409885
-0.24169999999999991,-13.567081365705702
-0.24270000000000003,-13.567081365705702
-0.24369999999999992,-13.567081365705702
-0.24470000000000003,-13.610937416001518
-0.24569999999999992,-13.610937416001518
-0.24670000000000003,-13.698649516593148
-0.24769999999999992,-13.784946905884919
-0.24870000000000003,-13.916515056772363
-0.24969999999999992,-14.046668496359947
-0.25070000000000003,-14.13438059695158
-0.2516999999999999,-14.26028990263957
-0.25270000000000004,-14.444202371622024
-0.2536999999999999,-14.529085049613924
-0.25470000000000004,-14.61396772760583
-0.2556999999999999,-14.69885040559773
-0.25670000000000004,-14.741291744593681
-0.25769999999999993,-14.741291744593681
-0.25870000000000004,-14.783733083589633
-0.25969999999999993,-14.826174422585586
-0.26070000000000004,-14.868615761581536
-0.26169999999999993,-14.967645552572087
-0.26270000000000004,-15.05252823056399
-0.26369999999999993,-15.179852247551842
-0.26470000000000005,-15.349617603535648
-0.26569999999999994,-15.491088733522153
-0.26670000000000005,-15.575971411514052
-0.26769999999999994,-15.78817810649381
-0.26870000000000005,-15.87306078448571
-0.26969999999999994,-16.014531914472215
-0.27070000000000005,-16.099414592464115
-0.27169999999999994,-16.141855931460068
-0.27270000000000005,-16.184297270456018
-0.27369999999999994,-16.269179948447924
-0.27470000000000006,-16.311621287443874
-0.27569999999999995,-16.311621287443874
-0.27670000000000006,-16.438945304431726
-0.27769999999999995,-16.53797509542228
-0.27870000000000006,-16.665299112410132
-0.27969999999999995,-16.835064468393938
-0.28070000000000006,-16.962388485381787
-0.28169999999999995,-17.146300954364243
-0.28270000000000006,-17.358507649344002
-0.28369999999999995,-17.40094898833995
-0.28470000000000006,-17.542420118326454
-0.28569999999999995,-17.669744135314307
-0.28670000000000007,-17.75462681330621
-0.28769999999999996,-17.797068152302163
-0.28870000000000007,-17.881950830294063
-0.28969999999999996,-17.924392169290012
-0.29070000000000007,-18.009274847281915
-0.29169999999999996,-18.10830463827247
-0.29270000000000007,-18.23562865526032
-0.29369999999999996,-18.44783535024008
-0.2947000000000001,-18.589306480226583
-0.29569999999999996,-18.759071836210385
-0.2967000000000001,-18.92883719219419
-0.29769999999999996,-19.155191000172596
-0.2987000000000001,-19.28251501716045
-0.29969999999999997,-19.409839034148305
-0.3007000000000001,-19.537163051136158
-0.30169999999999997,-19.678634181122664
-0.3027000000000001,-19.721075520118614
-0.30369999999999997,-19.805958198110513
-0.3047000000000001,-19.93328221509837
-0.30569999999999997,-19.97572355409432
-0.3067000000000001,-20.10304757108217
-0.3077,-20.244518701068674
-0.3087000000000001,-20.456725396048434
-0.3097,-20.683079204026836
-0.3107000000000001,-20.810403221014692
-0.3117,-21.022609915994444
-0.3127000000000001,-21.248963723972853
-0.3137,-21.418729079956652
-0.3147000000000001,-21.54605309694451
-0.3157,-21.729965565926964
-0.3167000000000001,-21.857289582914817
-0.3177,-21.94217226090672
-0.3187000000000001,-22.069496277894572
-0.3197,-22.196820294882425
-0.3207000000000001,-22.295850085872978
-0.3217,-22.46561544185678
-0.3227000000000001,-22.592939458844636
-0.3237,-22.861734605818995
-0.3247000000000001,-23.031499961802798
-0.3257,-23.24370665678255
-0.3267000000000001,-23.51250180375691
-0.3277,-23.724708498736668
-0.3287000000000001,-23.908620967719123
-0.3297,-24.120827662698876
-0.3307000000000001,-24.290593018682678
-0.3317,-24.474505487665134
-0.3327000000000001,-24.559388165657033
-0.3337,-24.686712182644893
-0.3347000000000001,-24.870624651627345
-0.3357,-24.95550732961925
-0.3367000000000001,-25.167714024599
-0.3377,-25.39406783257741
-0.3387000000000001,-25.563833188561212
-0.3397,-25.81848122253692
-0.3407000000000001,-26.044835030515326
-0.3417,-26.34192440348698
-0.3427000000000001,-26.61071955046134
-0.3437,-26.822926245441096
-0.3447000000000001,-27.049280053419505
-0.3457,-27.261486748399253
-0.3467000000000001,-27.43125210438306
-0.3477,-27.572723234369565
-0.3487000000000001,-27.742488590353368
-0.3497,-27.912253946337174
-0.3507000000000001,-28.05372507632368
-0.3517,-28.265931771303435
-0.3527000000000001,-28.478138466283188
-0.3537,-28.746933613257543
-0.3547000000000001,-29.001581647233255
-0.3557,-29.27037679420761
-0.35670000000000013,-29.581613280177915
-0.3577,-29.878702653149578
-0.35870000000000013,-30.147497800123933
-0.3597,-30.359704495103685
-0.36070000000000013,-30.614352529079397
-0.3617,-30.8407063370578
-0.3626999999999999,-30.968030354045652
-0.3637,-31.19438416202406
-0.3646999999999999,-31.40659085700382
-0.3657,-31.57635621298762
-0.3666999999999999,-31.84515135996197
-0.3677,-32.09979939393769
-0.3686999999999999,-32.368594540912035
-0.36970000000000003,-32.70812525287965
-0.3706999999999999,-32.97692039985401
-0.37170000000000003,-33.288156885824314
-0.3726999999999999,-33.627687597791926
-0.37370000000000003,-33.89648274476628
-0.3746999999999999,-34.15113077874198
-0.37570000000000003,-34.50480860370825
-0.3766999999999999,-34.67457395969205
-0.37770000000000004,-34.94336910666641
-0.3786999999999999,-35.15557580164616
-0.37970000000000004,-35.42437094862052
-0.3806999999999999,-35.594136304604326
-0.38170000000000004,-35.90537279057463
-0.38269999999999993,-36.16002082455034
-0.38370000000000004,-36.47125731052064
-0.38469999999999993,-36.81078802248826
-0.38570000000000004,-37.122024508458566
-0.38669999999999993,-37.51814367242077
-0.38770000000000004,-37.85767438438838
-0.38869999999999993,-38.16891087035869
-0.38970000000000005,-38.46600024333035
-0.39069999999999994,-38.777236729300654
-0.39170000000000005,-39.08847321527096
-0.39269999999999994,-39.30067991025072
-0.39370000000000005,-39.56947505722508
-0.39469999999999994,-39.82412309120078
-0.39570000000000005,-40.092918238175145
-0.39669999999999994,-40.43244895014274
-0.39770000000000005,-40.743685436113054
-0.39869999999999994,-41.04077480908471
-0.39970000000000006,-41.43689397304693
-0.40069999999999995,-41.83301313700913
-0.40170000000000006,-42.186690961975394
-0.40269999999999995,-42.568663012938956
-0.40370000000000006,-42.92234083790521
-0.40469999999999995,-43.23357732387552
-0.40570000000000006,-43.61554937483908
-0.40669999999999995,-43.92678586080939
-0.40770000000000006,-44.223875233781044
-0.40869999999999995,-44.4926703807554
-0.40970000000000006,-44.84634820572166
-0.41069999999999995,-45.10099623969737
-0.41170000000000007,-45.45467406466363
-0.41269999999999996,-45.79420477663124
-0.41370000000000007,-46.19032394059345
-0.41469999999999996,-46.628884443551605
-0.41570000000000007,-47.02500360751382
-0.41669999999999996,-47.46356411047198
-0.41770000000000007,-47.84553616143554
-0.41869999999999996,-48.24165532539775
-0.4197000000000001,-48.63777448935996
-0.42069999999999996,-48.97730520132757
-0.4217000000000001,-49.373424365289786
-0.42269999999999996,-49.68466085126009
-0.4237000000000001,-50.024191563227696
-0.42469999999999997,-50.37786938819396
-0.4257000000000001,-50.68910587416426
-0.42669999999999997,-51.071077925127824
-0.4277000000000001,-51.46719708909004
-0.42869999999999997,-51.86331625305225
-0.4297000000000001,-52.34431809500636
-0.43069999999999997,-52.78287859796452
-0.4317000000000001,-53.22143910092268
-0.4327,-53.68829382987814
-0.4337000000000001,-54.1268543328363
-0.4347,-54.52297349679851
-0.4357000000000001,-55.003975338752625
-0.4367,-55.357653163718886
-0.4377000000000001,-55.73962521468245
-0.4387,-56.13574437864466
-0.4397000000000001,-56.489422203610914
-0.4407,-56.88554136757313
-0.4417000000000001,-57.26751341853669
-0.4427,-57.70607392149485
-0.4437000000000001,-58.18707576344896
-0.4447,-58.66807760540307
-0.4457000000000001,-59.14907944735718
-0.4467,-59.67252262830725
-0.4477000000000001,-60.15352447026136
-0.4487,-60.63452631221547
-0.4497000000000001,-61.07308681517363
-0.4507,-61.53994154412909
-0.4517000000000001,-61.97850204708726
-0.4527,-62.37462121104946
-0.4537000000000001,-62.81318171400764
-0.4547,-63.251742216965795
-0.4557000000000001,-63.633714267929356
-0.4567,-64.11471610988345
-0.4577000000000001,-64.59571795183757
-0.4587,-65.0767197937917
-0.4597000000000001,-65.60016297474175
-0.4607,-66.12360615569182
-0.4617000000000001,-66.64704933664189
-0.4627,-67.21293385658788
-0.4637000000000001,-67.73637703753796
-0.4647,-68.21737887949207
-0.4657000000000001,-68.78326339943808
-0.4667,-69.26426524139221
-0.4677000000000001,-69.6603844053544
-0.4687,-70.18382758630447
-0.4697000000000001,-70.62238808926263
-0.4707,-71.06094859222078
-0.4717000000000001,-71.58439177317086
-0.4727,-72.10783495412092
-0.4737000000000001,-72.63127813507097
-0.4747,-73.197162655017
-0.4757000000000001,-73.76304717496302
-0.4767,-74.32893169490903
-0.4777000000000001,-74.93725755385098
-0.4787,-75.50314207379701
-0.4797000000000001,-76.06902659374302
-0.4807,-76.63491111368903
-0.48170000000000013,-77.11591295564315
-0.4827,-77.63935613659322
-0.48370000000000013,-78.16279931754329
-0.4847,-78.64380115949739
-0.48570000000000013,-79.16724434044745
-0.4867,-78.77112517648524
-0.48570000000000013,-77.03103027765125
-0.4847,-75.77193722077136
-0.48370000000000013,-74.72505085887124
-0.4827,-73.76304717496302
-0.48170000000000013,-72.92836750804264
-0.4807,-72.15027629311687
-0.4797000000000001,-71.35803796519245
-0.4787,-70.53750541127073
-0.4777000000000001,-69.8301497613382
-0.4767,-69.05205854641244
-0.4757000000000001,-68.21737887949207
-0.4747,-67.48172900356225
-0.4737000000000001,-66.73193201463377
-0.4727,-65.95384079970802
-0.4717000000000001,-65.20404381077954
-0.4707,-64.55327661284163
-0.4697000000000001,-63.860068075907755
-0.4687,-63.251742216965795
-0.4677000000000001,-62.58682790602922
-0.4667,-61.97850204708726
-0.4657000000000001,-61.455058866137186
-0.4647,-60.80429166819927
-0.4637000000000001,-60.19596580925731
-0.4627,-59.54519861131939
