Potential V vs RHE, Current mA cm-2
0.05339999999999995,-0.06431277569186457
0.05239999999999995,-0.06579822255672285
0.051399999999999946,-0.06640654841566482
0.050399999999999945,-0.06688755025761894
0.049399999999999944,-0.06732611076057708
0.04839999999999994,-0.06779296548953255
0.04739999999999994,-0.06823152599249073
0.04639999999999994,-0.06862764515645292
0.04539999999999994,-0.06903791143341378
0.04439999999999994,-0.06944817771037465
0.04339999999999994,-0.06984429687433687
0.04239999999999994,-0.07026871026429637
0.04139999999999994,-0.07065068231525992
0.040399999999999936,-0.07103265436622348
0.039399999999999935,-0.07148536198218029
0.038399999999999934,-0.07189562825914117
0.03739999999999993,-0.07227760031010473
0.03639999999999993,-0.07264542524806963
0.03539999999999993,-0.07304154441203185
0.03439999999999993,-0.0734518106889927
0.03339999999999993,-0.07384792985295491
0.03239999999999993,-0.07424404901691713
0.03139999999999993,-0.07461187395488203
0.030399999999999927,-0.07499384600584559
0.029399999999999926,-0.07540411228280645
0.028399999999999925,-0.07580023144676866
0.027399999999999924,-0.07618220349773222
0.026399999999999924,-0.07655002843569715
0.025399999999999923,-0.0769320004866607
0.024399999999999922,-0.07734226676362156
0.02339999999999992,-0.07773838592758377
0.02239999999999992,-0.07812035797854733
0.02139999999999992,-0.07850233002951089
0.020399999999999918,-0.0788984491934731
0.019399999999999917,-0.0792945683574353
0.018399999999999916,-0.07967654040839886
0.017399999999999916,-0.08005851245936244
0.016399999999999915,-0.08039804317133004
0.015399999999999914,-0.08079416233529225
0.014399999999999913,-0.08119028149925445
0.013399999999999912,-0.08160054777621531
0.012399999999999911,-0.08199666694017753
0.01139999999999991,-0.08236449187814243
0.01039999999999991,-0.08276061104210465
0.009399999999999908,-0.0831425830930682
0.008399999999999908,-0.08349626091803447
0.007399999999999907,-0.08384993874300072
0.006399999999999906,-0.08417532234196969
0.005399999999999905,-0.0845714415059319
0.004399999999999904,-0.0849675606698941
0.003399999999999903,-0.08532123849486037
0.002399999999999902,-0.08573150477182122
0.0013999999999999013,-0.08608518259678749
0.00039999999999990044,-0.08645300753475238
-0.0006000000000001005,-0.08682083247271731
-0.0016000000000001013,-0.08717451029768356
-0.0026000000000001022,-0.08752818812264983
-0.003600000000000103,-0.08788186594761609
-0.004600000000000104,-0.08822139665958369
-0.005600000000000105,-0.08857507448454995
-0.006600000000000106,-0.0889570465355135
-0.007600000000000107,-0.08932487147347841
-0.008600000000000108,-0.08967854929844467
-0.009600000000000108,-0.09004637423640958
-0.01060000000000011,-0.09040005206137584
-0.01160000000000011,-0.09076787699934075
-0.012600000000000111,-0.09114984905030431
-0.013600000000000112,-0.09146108553627462
-0.014600000000000113,-0.09181476336124088
-0.015600000000000114,-0.09215429407320849
-0.016600000000000115,-0.0925221190111734
-0.017600000000000116,-0.09286164972314101
-0.018600000000000116,-0.09315873909611266
-0.019600000000000117,-0.09351241692107892
-0.020600000000000118,-0.09385194763304654
-0.02160000000000012,-0.0942056254580128
-0.02260000000000012,-0.0945451561699804
-0.02360000000000012,-0.09484224554295206
-0.024600000000000122,-0.09518177625491966
-0.025600000000000123,-0.09552130696688728
-0.026600000000000124,-0.09583254345285759
-0.027600000000000124,-0.09618622127782384
-0.028600000000000125,-0.09646916353779686
-0.029600000000000126,-0.0967945471367658
-0.030600000000000127,-0.09710578362273611
-0.03160000000000013,-0.09740287299570777
-0.03260000000000013,-0.09771410948167808
-0.03360000000000013,-0.09796875751565379
-0.03460000000000002,-0.09826584688862545
-0.03560000000000002,-0.0985912304875944
-0.03660000000000002,-0.09887417274756742
-0.03760000000000002,-0.09917126212053906
-0.03860000000000002,-0.09945420438051207
-0.039600000000000024,-0.09970885241448779
-0.040600000000000025,-0.0999917946744608
-0.041600000000000026,-0.1002747369344338
-0.04260000000000003,-0.10057182630740545
-0.04360000000000003,-0.10082647434138116
-0.04460000000000003,-0.10108112237535687
-0.04560000000000003,-0.10134991752233123
-0.04660000000000003,-0.10160456555630692
-0.04760000000000003,-0.10185921359028265
-0.04860000000000003,-0.10209971451125968
-0.04960000000000003,-0.10234021543223674
-0.050600000000000034,-0.10258071635321381
-0.051600000000000035,-0.10283536438718952
-0.052600000000000036,-0.10306171819516792
-0.053600000000000037,-0.10328807200314633
-0.05460000000000004,-0.10350027869812609
-0.05560000000000004,-0.10374077961910314
-0.05660000000000004,-0.10399542765307884
-0.05760000000000004,-0.1042076343480586
-0.05860000000000004,-0.10439154681704105
-0.05960000000000004,-0.10460375351202081
-0.06060000000000004,-0.10480181309400192
-0.061600000000000044,-0.10501401978898167
-0.06260000000000004,-0.10524037359696008
-0.06360000000000005,-0.10543843317894118
-0.06460000000000005,-0.1056364927609223
-0.06560000000000005,-0.1058345523429034
-0.06660000000000005,-0.10601846481188584
-0.06760000000000005,-0.10618823016786964
-0.06860000000000005,-0.10635799552385346
-0.06960000000000005,-0.10655605510583457
-0.07060000000000005,-0.10673996757481702
-0.07160000000000005,-0.10689558581780217
-0.07260000000000005,-0.10707949828678462
-0.07360000000000005,-0.10722096941677112
-0.07460000000000006,-0.10739073477275493
-0.07560000000000006,-0.10757464724173739
-0.07660000000000006,-0.10773026548472255
-0.07760000000000006,-0.10792832506670365
-0.07860000000000006,-0.1080556490836915
-0.07960000000000006,-0.10819712021367801
-0.08060000000000006,-0.1083668855696618
-0.08160000000000006,-0.10848006247365101
-0.08260000000000006,-0.10862153360363752
-0.08360000000000006,-0.10874885762062536
-0.08460000000000006,-0.10884788741161593
-0.08560000000000006,-0.10900350565460108
-0.08660000000000007,-0.10913082967158892
-0.08760000000000007,-0.10927230080157543
-0.08860000000000007,-0.10938547770556464
-0.08960000000000007,-0.1094845074965552
-0.09060000000000007,-0.10961183151354303
-0.09160000000000007,-0.10972500841753224
-0.09260000000000007,-0.10983818532152145
-0.09360000000000007,-0.109937215112512
-0.09460000000000007,-0.11002209779050391
-0.09560000000000007,-0.11012112758149446
-0.09660000000000007,-0.11023430448548364
-0.09760000000000008,-0.11031918716347557
-0.09860000000000008,-0.11043236406746475
-0.09960000000000008,-0.11051724674545668
-0.10060000000000008,-0.1106162765364472
-0.10160000000000008,-0.11072945344043642
-0.10260000000000008,-0.11081433611842831
-0.10360000000000008,-0.11087092457042293
-0.10460000000000008,-0.11094166013541619
-0.10560000000000008,-0.11104068992640674
-0.10660000000000008,-0.11112557260439863
-0.10760000000000008,-0.11121045528239053
-0.10860000000000009,-0.11128119084738379
-0.10960000000000009,-0.11133777929937837
-0.11060000000000009,-0.11140851486437164
-0.11160000000000009,-0.1114792504293649
-0.11260000000000009,-0.11154998599435814
-0.11360000000000009,-0.1116207215593514
-0.11460000000000009,-0.11171975135034196
-0.11560000000000009,-0.11180463402833385
-0.11660000000000009,-0.1118187811413325
-0.1176000000000001,-0.11188951670632576
-0.1186000000000001,-0.11194610515832035
-0.1196000000000001,-0.1119885464973163
-0.1206000000000001,-0.11205928206230956
-0.1216000000000001,-0.11211587051430415
-0.1226000000000001,-0.11218660607929741
-0.1236000000000001,-0.11224319453129203
-0.1246000000000001,-0.11227148875728932
-0.1256000000000001,-0.11234222432228257
-0.1266000000000001,-0.11241295988727582
-0.1276000000000001,-0.11246954833927042
-0.1286000000000001,-0.11249784256526771
-0.1296000000000001,-0.11254028390426365
-0.1306000000000001,-0.11261101946925692
-0.1316000000000001,-0.11266760792125154
-0.1326000000000001,-0.11272419637324613
-0.1336000000000001,-0.11278078482524072
-0.1346000000000001,-0.11280907905123803
-0.1356000000000001,-0.11283737327723532
-0.1366000000000001,-0.11292225595522724
-0.1376000000000001,-0.11295055018122453
-0.1386000000000001,-0.11300713863321914
-0.1396000000000001,-0.11302128574621777
-0.1406000000000001,-0.11307787419821237
-0.14160000000000011,-0.11313446265020698
-0.14260000000000012,-0.1131627568762043
-0.14360000000000012,-0.11321934532819887
-0.14460000000000012,-0.11326178666719483
-0.14560000000000012,-0.1133042280061908
-0.14660000000000012,-0.11334666934518675
-0.14760000000000012,-0.11340325779718134
-0.14860000000000012,-0.11341740491017999
-0.14960000000000012,-0.1134456991361773
-0.15060000000000012,-0.11350228758817188
-0.15160000000000012,-0.11354472892716785
-0.15260000000000012,-0.1136154644921611
-0.15360000000000013,-0.1136437587181584
-0.15460000000000013,-0.1136720529441557
-0.15560000000000013,-0.11374278850914893
-0.15660000000000013,-0.1137852298481449
-0.15760000000000013,-0.11382767118714086
-0.15860000000000013,-0.11388425963913544
-0.15960000000000002,-0.11391255386513276
-0.16060000000000002,-0.11396914231712736
-0.16160000000000002,-0.11401158365612331
-0.16260000000000002,-0.11406817210811791
-0.16360000000000002,-0.11412476056011249
-0.16460000000000002,-0.11415305478610982
-0.16560000000000002,-0.11425208457710037
-0.16660000000000003,-0.11433696725509226
-0.16760000000000003,-0.11435111436809091
-0.16860000000000003,-0.11442184993308416
-0.16960000000000003,-0.11443599704608282
-0.17060000000000003,-0.11452087972407471
-0.17160000000000003,-0.11454917395007203
-0.17260000000000003,-0.11460576240206662
-0.17360000000000003,-0.1146623508540612
-0.17460000000000003,-0.11467649796705988
-0.17560000000000003,-0.11474723353205314
-0.17660000000000003,-0.11478967487104909
-0.17760000000000004,-0.11484626332304368
-0.17860000000000004,-0.11491699888803693
-0.17960000000000004,-0.11495944022703289
-0.18060000000000004,-0.11503017579202615
-0.18160000000000004,-0.11510091135701939
-0.18260000000000004,-0.11515749980901398
-0.18360000000000004,-0.11519994114800992
-0.18460000000000004,-0.11527067671300319
-0.18560000000000004,-0.11534141227799644
-0.18660000000000004,-0.11539800072999104
-0.18760000000000004,-0.11548288340798295
-0.18860000000000005,-0.11551117763398025
-0.18960000000000005,-0.11556776608597484
-0.19060000000000005,-0.11565264876396675
-0.19160000000000005,-0.11575167855495731
-0.19260000000000005,-0.11585070834594786
-0.19360000000000005,-0.11590729679794246
-0.19460000000000005,-0.11593559102393976
-0.19560000000000005,-0.11602047370193166
-0.19660000000000005,-0.11606291504092761
-0.19760000000000005,-0.11613365060592087
-0.19860000000000005,-0.11617609194491682
-0.19960000000000006,-0.11627512173590737
-0.20060000000000006,-0.11633171018790198
-0.20160000000000006,-0.11640244575289523
-0.20260000000000006,-0.11645903420488982
-0.20360000000000006,-0.11654391688288172
-0.20460000000000006,-0.11658635822187767
-0.20560000000000006,-0.11665709378687093
-0.20660000000000006,-0.11672782935186417
-0.20760000000000006,-0.11682685914285473
-0.20860000000000006,-0.11691174182084664
-0.20960000000000006,-0.11698247738583989
-0.21060000000000006,-0.1170956542898291
-0.21160000000000007,-0.1171522427418237
-0.21260000000000007,-0.11718053696782099
-0.21360000000000007,-0.11727956675881154
-0.21460000000000007,-0.11733615521080615
-0.21560000000000007,-0.11740689077579938
-0.21660000000000007,-0.11747762634079266
-0.21760000000000007,-0.11757665613178321
-0.21860000000000007,-0.11763324458377779
-0.21960000000000007,-0.11770398014877105
-0.22060000000000007,-0.11778886282676294
-0.22160000000000007,-0.11785959839175622
-0.22260000000000008,-0.1179444810697481
-0.22360000000000008,-0.11801521663474136
-0.22460000000000008,-0.11805765797373731
-0.22560000000000008,-0.1181142464257319
-0.22660000000000008,-0.11818498199072516
-0.22760000000000008,-0.11826986466871706
-0.22860000000000008,-0.11834060023371032
-0.22960000000000008,-0.11841133579870355
-0.23060000000000008,-0.11848207136369682
-0.23160000000000008,-0.11853865981569144
-0.23260000000000008,-0.11862354249368333
-0.23360000000000009,-0.11868013094567793
-0.2346000000000001,-0.11873671939767255
-0.2356000000000001,-0.11880745496266579
-0.2366000000000001,-0.11887819052765905
-0.2376000000000001,-0.118920631866655
-0.2386000000000001,-0.11900551454464689
-0.2396000000000001,-0.11903380877064418
-0.2406000000000001,-0.11913283856163473
-0.2416000000000001,-0.11917527990063068
-0.2426000000000001,-0.11924601546562394
-0.2436000000000001,-0.11931675103061717
-0.2446000000000001,-0.11938748659561045
-0.2456000000000001,-0.11944407504760506
-0.2466000000000001,-0.11951481061259829
-0.2476000000000001,-0.11958554617759155
-0.2486000000000001,-0.11967042885558345
-0.2496000000000001,-0.11969872308158076
-0.2506000000000001,-0.11974116442057671
-0.2516000000000001,-0.11978360575957266
-0.2526000000000001,-0.11984019421156727
-0.2536000000000001,-0.11991092977656051
-0.2546000000000001,-0.11995337111555646
-0.2556000000000001,-0.12000995956755106
-0.2566000000000001,-0.12008069513254432
-0.2576000000000001,-0.12012313647154027
-0.2586000000000001,-0.12017972492353488
-0.2596000000000001,-0.12020801914953216
-0.2606000000000001,-0.12026460760152678
-0.2616000000000001,-0.12030704894052272
-0.2626000000000001,-0.12036363739251733
-0.2636000000000001,-0.12040607873151328
-0.2646000000000001,-0.12044852007050923
-0.2656000000000001,-0.12047681429650652
-0.2666000000000001,-0.12050510852250383
-0.2676000000000001,-0.12056169697449844
-0.2686000000000001,-0.12063243253949167
-0.2696000000000001,-0.12063243253949167
-0.2706000000000001,-0.12064657965249034
-0.2716000000000001,-0.12067487387848763
-0.2726000000000001,-0.12073146233048222
-0.2736000000000001,-0.12075975655647953
-0.2746000000000001,-0.12075975655647953
-0.2756000000000001,-0.12080219789547549
-0.2766000000000001,-0.12083049212147279
-0.2776000000000001,-0.12085878634747008
-0.2786000000000001,-0.12088708057346739
-0.2796000000000001,-0.12090122768646602
-0.2806000000000001,-0.120943669025462
-0.28160000000000013,-0.12098611036445794
-0.28260000000000013,-0.12097196325145929
-0.28360000000000013,-0.12100025747745657
-0.2846,-0.12098611036445794
-0.2856,-0.12098611036445794
-0.2866,-0.12101440459045523
-0.2876,-0.1210285517034539
-0.2886,-0.12104269881645255
-0.2896,-0.1210285517034539
-0.2906,-0.12104269881645255
-0.2916,-0.12105684592945118
-0.2926,-0.12104269881645255
-0.2936,-0.12105684592945118
-0.29460000000000003,-0.12105684592945118
-0.29560000000000003,-0.1210851401554485
-0.29660000000000003,-0.12109928726844714
-0.29760000000000003,-0.1210851401554485
-0.29860000000000003,-0.12107099304244984
-0.29960000000000003,-0.1210851401554485
-0.30060000000000003,-0.12109928726844714
-0.30160000000000003,-0.12111343438144578
-0.30260000000000004,-0.12109928726844714
-0.30360000000000004,-0.12105684592945118
-0.30460000000000004,-0.12105684592945118
-0.30560000000000004,-0.12104269881645255
-0.30660000000000004,-0.12105684592945118
-0.30760000000000004,-0.1210285517034539
-0.30860000000000004,-0.1210285517034539
-0.30960000000000004,-0.12098611036445794
-0.31060000000000004,-0.12101440459045523
-0.31160000000000004,-0.12101440459045523
-0.31260000000000004,-0.12101440459045523
-0.31360000000000005,-0.120943669025462
-0.31460000000000005,-0.12092952191246334
-0.31560000000000005,-0.12091537479946468
-0.31660000000000005,-0.12088708057346739
-0.31760000000000005,-0.12088708057346739
-0.31860000000000005,-0.12088708057346739
-0.31960000000000005,-0.12088708057346739
-0.32060000000000005,-0.12083049212147279
-0.32160000000000005,-0.12081634500847413
-0.32260000000000005,-0.12075975655647953
-0.32360000000000005,-0.12074560944348088
-0.32460000000000006,-0.12066072676548899
-0.32560000000000006,-0.12061828542649301
-0.32660000000000006,-0.12058999120049572
-0.32760000000000006,-0.12054754986149978
-0.32860000000000006,-0.12050510852250383
-0.32960000000000006,-0.12042022584451192
-0.33060000000000006,-0.12037778450551596
-0.33160000000000006,-0.12036363739251733
-0.33260000000000006,-0.12030704894052272
-0.33360000000000006,-0.12025046048852812
-0.33460000000000006,-0.1201938720365335
-0.33560000000000006,-0.12012313647154027
-0.33660000000000007,-0.12006654801954567
-0.33760000000000007,-0.12000995956755106
-0.33860000000000007,-0.1199958124545524
-0.33960000000000007,-0.1199675182285551
-0.34060000000000007,-0.11993922400255783
-0.34160000000000007,-0.11986848843756456
-0.34260000000000007,-0.11981189998556994
-0.34360000000000007,-0.11975531153357535
-0.3446000000000001,-0.11974116442057671
-0.3456000000000001,-0.11967042885558345
-0.3466000000000001,-0.1196279875165875
-0.34759999999999996,-0.11959969329059021
-0.3486000000000001,-0.11950066349959966
-0.34959999999999997,-0.11942992793460638
-0.3506000000000001,-0.1193450452566145
-0.35159999999999997,-0.11928845680461989
-0.3526000000000001,-0.11924601546562394
-0.35359999999999997,-0.11917527990063068
-0.3546000000000001,-0.11909039722263878
-0.35559999999999997,-0.11903380877064418
-0.3566000000000001,-0.11897722031864959
-0.3576,-0.11894892609265229
-0.3586000000000001,-0.11890648475365632
-0.3596,-0.11884989630166173
-0.3606000000000001,-0.11877916073666848
-0.3616,-0.11870842517167522
-0.3626000000000001,-0.11865183671968062
-0.3636,-0.11859524826768601
-0.3646000000000001,-0.11848207136369682
-0.3656,-0.11842548291170223
-0.3666000000000001,-0.11835474734670896
-0.3676,-0.11826986466871706
-0.3686000000000001,-0.11821327621672245
-0.3696,-0.11812839353873056
-0.3706000000000001,-0.11807180508673595
-0.3716,-0.11802936374774001
-0.3726000000000001,-0.1179444810697481
-0.3736,-0.11788789261775351
-0.3746000000000001,-0.11781715705276027
-0.3756,-0.11774642148776701
-0.3766000000000001,-0.11771812726176971
-0.3776,-0.11761909747077916
-0.3786000000000001,-0.11756250901878454
-0.3796,-0.11750592056678995
-0.3806000000000001,-0.11743518500179671
-0.3816,-0.11736444943680345
-0.3826000000000001,-0.11726541964581289
-0.3836,-0.11722297830681694
-0.3846000000000001,-0.1171522427418237
-0.3856,-0.11708150717683044
-0.3866000000000001,-0.11702491872483582
-0.3876,-0.11695418315984259
-0.3886000000000001,-0.11688344759484932
-0.3896,-0.11681271202985609
-0.3906000000000001,-0.11672782935186417
-0.3916,-0.11665709378687093
-0.3926000000000001,-0.11661465244787497
-0.3936,-0.11652976976988305
-0.3946000000000001,-0.11645903420488982
-0.3956,-0.11636000441389927
-0.3966000000000001,-0.11630341596190466
-0.3976,-0.11623268039691143
-0.3986000000000001,-0.11617609194491682
-0.3996,-0.11610535637992356
-0.4006000000000001,-0.11603462081493031
-0.4016,-0.11596388524993705
-0.4026000000000001,-0.11590729679794246
-0.4036,-0.11585070834594786
-0.4046000000000001,-0.11572338432896
-0.4056,-0.1156385016509681
-0.40660000000000013,-0.1156102074249708
-0.4076,-0.11553947185997754
-0.40860000000000013,-0.11549703052098159
-0.4096,-0.11542629495598833
-0.41060000000000013,-0.11536970650399375
-0.4116,-0.11536970650399375
-0.41260000000000013,-0.11531311805199915
-0.4136,-0.11529897093900049
-0.41460000000000014,-0.11524238248700588
-0.4156,-0.11515749980901398
-0.41660000000000014,-0.11510091135701939
-0.4176,-0.11501602867902748
-0.41860000000000014,-0.11495944022703289
-0.41960000000000003,-0.11488870466203964
-0.42060000000000014,-0.11478967487104909
-0.42160000000000003,-0.11477552775805042
-0.42260000000000014,-0.11476138064505177
-0.42360000000000003,-0.11473308641905447
-0.42460000000000014,-0.11471893930605583
-0.42560000000000003,-0.11463405662806392
-0.42660000000000015,-0.11457746817606933
-0.42760000000000004,-0.11454917395007203
-0.42860000000000015,-0.11452087972407471
-0.42960000000000004,-0.11450673261107608
-0.43060000000000015,-0.11447843838507876
-0.43160000000000004,-0.11446429127208012
-0.43260000000000015,-0.11445014415908147
-0.43360000000000004,-0.11443599704608282
-0.43460000000000015,-0.11440770282008553
-0.43560000000000004,-0.11439355570708687
-0.43660000000000015,-0.11437940859408821
