May 1, 2025   08:47:18
Cyclic Voltammetry
File: c:/users/guazh/data/banditlqround7_x0exp1108_r5/2025-04-30-exp1205\exp1205-2025-05-01t08_39_28-arkoh\exp1205_cv_sr_600mvs_efin_-1400mv.bin
Data Source:  Experiment
Instrument Model:  CHI760E
Header: CV ran at 600 mVs
Note: 

Init E (V) = -1
High E (V) = -1
Low E (V) = -1.4
Final E (V) = -1
Init P/N = N
Scan Rate (V/s) = 0.6
Segment = 3
Sample Interval (V) = 0.001
Quiet Time (sec) = 2
Sensitivity (A/V) = 0.01
Comp R (ohm) = 0.9

Results:

Channel 1:
Segment 1:

Segment 2:

Segment 3:

Potential/V, Current/A

-1.000, 4.024e-5
-1.001, 2.067e-4
-1.002, 3.516e-4
-1.003, 4.811e-4
-1.004, 5.890e-4
-1.005, 6.846e-4
-1.006, 7.709e-4
-1.007, 8.480e-4
-1.008, 9.189e-4
-1.009, 9.868e-4
-1.010, 1.051e-3
-1.011, 1.110e-3
-1.012, 1.166e-3
-1.013, 1.212e-3
-1.014, 1.249e-3
-1.015, 1.283e-3
-1.016, 1.314e-3
-1.017, 1.341e-3
-1.018, 1.366e-3
-1.019, 1.397e-3
-1.020, 1.425e-3
-1.021, 1.452e-3
-1.022, 1.477e-3
-1.023, 1.499e-3
-1.024, 1.514e-3
-1.025, 1.529e-3
-1.026, 1.539e-3
-1.027, 1.548e-3
-1.028, 1.557e-3
-1.029, 1.573e-3
-1.030, 1.585e-3
-1.031, 1.603e-3
-1.032, 1.616e-3
-1.033, 1.631e-3
-1.034, 1.634e-3
-1.035, 1.640e-3
-1.036, 1.640e-3
-1.037, 1.643e-3
-1.038, 1.647e-3
-1.039, 1.656e-3
-1.040, 1.665e-3
-1.041, 1.674e-3
-1.042, 1.687e-3
-1.043, 1.693e-3
-1.044, 1.696e-3
-1.045, 1.693e-3
-1.046, 1.693e-3
-1.047, 1.690e-3
-1.048, 1.693e-3
-1.049, 1.699e-3
-1.050, 1.705e-3
-1.051, 1.714e-3
-1.052, 1.721e-3
-1.053, 1.727e-3
-1.054, 1.727e-3
-1.055, 1.724e-3
-1.056, 1.717e-3
-1.057, 1.717e-3
-1.058, 1.714e-3
-1.059, 1.721e-3
-1.060, 1.727e-3
-1.061, 1.733e-3
-1.062, 1.739e-3
-1.063, 1.742e-3
-1.064, 1.742e-3
-1.065, 1.739e-3
-1.066, 1.736e-3
-1.067, 1.733e-3
-1.068, 1.730e-3
-1.069, 1.733e-3
-1.070, 1.739e-3
-1.071, 1.745e-3
-1.072, 1.751e-3
-1.073, 1.754e-3
-1.074, 1.751e-3
-1.075, 1.751e-3
-1.076, 1.748e-3
-1.077, 1.742e-3
-1.078, 1.742e-3
-1.079, 1.742e-3
-1.080, 1.748e-3
-1.081, 1.754e-3
-1.082, 1.758e-3
-1.083, 1.764e-3
-1.084, 1.764e-3
-1.085, 1.758e-3
-1.086, 1.754e-3
-1.087, 1.748e-3
-1.088, 1.748e-3
-1.089, 1.751e-3
-1.090, 1.754e-3
-1.091, 1.761e-3
-1.092, 1.767e-3
-1.093, 1.770e-3
-1.094, 1.767e-3
-1.095, 1.764e-3
-1.096, 1.758e-3
-1.097, 1.758e-3
-1.098, 1.751e-3
-1.099, 1.754e-3
-1.100, 1.761e-3
-1.101, 1.764e-3
-1.102, 1.770e-3
-1.103, 1.773e-3
-1.104, 1.770e-3
-1.105, 1.770e-3
-1.106, 1.764e-3
-1.107, 1.758e-3
-1.108, 1.758e-3
-1.109, 1.758e-3
-1.110, 1.764e-3
-1.111, 1.770e-3
-1.112, 1.773e-3
-1.113, 1.779e-3
-1.114, 1.776e-3
-1.115, 1.773e-3
-1.116, 1.767e-3
-1.117, 1.764e-3
-1.118, 1.761e-3
-1.119, 1.767e-3
-1.120, 1.770e-3
-1.121, 1.776e-3
-1.122, 1.782e-3
-1.123, 1.785e-3
-1.124, 1.785e-3
-1.125, 1.782e-3
-1.126, 1.779e-3
-1.127, 1.773e-3
-1.128, 1.773e-3
-1.129, 1.773e-3
-1.130, 1.779e-3
-1.131, 1.785e-3
-1.132, 1.791e-3
-1.133, 1.795e-3
-1.134, 1.791e-3
-1.135, 1.791e-3
-1.136, 1.785e-3
-1.137, 1.782e-3
-1.138, 1.779e-3
-1.139, 1.782e-3
-1.140, 1.788e-3
-1.141, 1.795e-3
-1.142, 1.801e-3
-1.143, 1.804e-3
-1.144, 1.804e-3
-1.145, 1.804e-3
-1.146, 1.798e-3
-1.147, 1.795e-3
-1.148, 1.795e-3
-1.149, 1.798e-3
-1.150, 1.804e-3
-1.151, 1.810e-3
-1.152, 1.816e-3
-1.153, 1.822e-3
-1.154, 1.819e-3
-1.155, 1.816e-3
-1.156, 1.813e-3
-1.157, 1.810e-3
-1.158, 1.807e-3
-1.159, 1.813e-3
-1.160, 1.819e-3
-1.161, 1.825e-3
-1.162, 1.832e-3
-1.163, 1.838e-3
-1.164, 1.835e-3
-1.165, 1.835e-3
-1.166, 1.832e-3
-1.167, 1.828e-3
-1.168, 1.825e-3
-1.169, 1.828e-3
-1.170, 1.835e-3
-1.171, 1.841e-3
-1.172, 1.850e-3
-1.173, 1.853e-3
-1.174, 1.853e-3
-1.175, 1.853e-3
-1.176, 1.850e-3
-1.177, 1.847e-3
-1.178, 1.847e-3
-1.179, 1.853e-3
-1.180, 1.856e-3
-1.181, 1.862e-3
-1.182, 1.872e-3
-1.183, 1.878e-3
-1.184, 1.878e-3
-1.185, 1.878e-3
-1.186, 1.872e-3
-1.187, 1.872e-3
-1.188, 1.872e-3
-1.189, 1.875e-3
-1.190, 1.884e-3
-1.191, 1.890e-3
-1.192, 1.899e-3
-1.193, 1.906e-3
-1.194, 1.906e-3
-1.195, 1.906e-3
-1.196, 1.902e-3
-1.197, 1.899e-3
-1.198, 1.899e-3
-1.199, 1.906e-3
-1.200, 1.912e-3
-1.201, 1.924e-3
-1.202, 1.930e-3
-1.203, 1.936e-3
-1.204, 1.939e-3
-1.205, 1.936e-3
-1.206, 1.936e-3
-1.207, 1.936e-3
-1.208, 1.936e-3
-1.209, 1.943e-3
-1.210, 1.949e-3
-1.211, 1.958e-3
-1.212, 1.967e-3
-1.213, 1.973e-3
-1.214, 1.976e-3
-1.215, 1.976e-3
-1.216, 1.976e-3
-1.217, 1.976e-3
-1.218, 1.976e-3
-1.219, 1.983e-3
-1.220, 1.992e-3
-1.221, 2.001e-3
-1.222, 2.010e-3
-1.223, 2.020e-3
-1.224, 2.023e-3
-1.225, 2.023e-3
-1.226, 2.023e-3
-1.227, 2.026e-3
-1.228, 2.029e-3
-1.229, 2.038e-3
-1.230, 2.047e-3
-1.231, 2.060e-3
-1.232, 2.069e-3
-1.233, 2.078e-3
-1.234, 2.078e-3
-1.235, 2.081e-3
-1.236, 2.084e-3
-1.237, 2.084e-3
-1.238, 2.087e-3
-1.239, 2.097e-3
-1.240, 2.106e-3
-1.241, 2.118e-3
-1.242, 2.131e-3
-1.243, 2.140e-3
-1.244, 2.146e-3
-1.245, 2.149e-3
-1.246, 2.152e-3
-1.247, 2.155e-3
-1.248, 2.161e-3
-1.249, 2.171e-3
-1.250, 2.183e-3
-1.251, 2.195e-3
-1.252, 2.211e-3
-1.253, 2.220e-3
-1.254, 2.229e-3
-1.255, 2.235e-3
-1.256, 2.238e-3
-1.257, 2.245e-3
-1.258, 2.248e-3
-1.259, 2.260e-3
-1.260, 2.275e-3
-1.261, 2.288e-3
-1.262, 2.303e-3
-1.263, 2.319e-3
-1.264, 2.325e-3
-1.265, 2.331e-3
-1.266, 2.337e-3
-1.267, 2.343e-3
-1.268, 2.353e-3
-1.269, 2.362e-3
-1.270, 2.380e-3
-1.271, 2.396e-3
-1.272, 2.414e-3
-1.273, 2.430e-3
-1.274, 2.439e-3
-1.275, 2.451e-3
-1.276, 2.457e-3
-1.277, 2.467e-3
-1.278, 2.476e-3
-1.279, 2.491e-3
-1.280, 2.510e-3
-1.281, 2.531e-3
-1.282, 2.553e-3
-1.283, 2.568e-3
-1.284, 2.584e-3
-1.285, 2.593e-3
-1.286, 2.605e-3
-1.287, 2.615e-3
-1.288, 2.627e-3
-1.289, 2.645e-3
-1.290, 2.664e-3
-1.291, 2.689e-3
-1.292, 2.710e-3
-1.293, 2.729e-3
-1.294, 2.747e-3
-1.295, 2.760e-3
-1.296, 2.775e-3
-1.297, 2.787e-3
-1.298, 2.803e-3
-1.299, 2.824e-3
-1.300, 2.849e-3
-1.301, 2.874e-3
-1.302, 2.901e-3
-1.303, 2.926e-3
-1.304, 2.945e-3
-1.305, 2.963e-3
-1.306, 2.982e-3
-1.307, 2.997e-3
-1.308, 3.015e-3
-1.309, 3.040e-3
-1.310, 3.068e-3
-1.311, 3.096e-3
-1.312, 3.126e-3
-1.313, 3.154e-3
-1.314, 3.176e-3
-1.315, 3.200e-3
-1.316, 3.219e-3
-1.317, 3.241e-3
-1.318, 3.265e-3
-1.319, 3.293e-3
-1.320, 3.324e-3
-1.321, 3.355e-3
-1.322, 3.388e-3
-1.323, 3.419e-3
-1.324, 3.447e-3
-1.325, 3.472e-3
-1.326, 3.496e-3
-1.327, 3.524e-3
-1.328, 3.552e-3
-1.329, 3.583e-3
-1.330, 3.620e-3
-1.331, 3.657e-3
-1.332, 3.697e-3
-1.333, 3.731e-3
-1.334, 3.765e-3
-1.335, 3.792e-3
-1.336, 3.823e-3
-1.337, 3.851e-3
-1.338, 3.885e-3
-1.339, 3.922e-3
-1.340, 3.962e-3
-1.341, 4.002e-3
-1.342, 4.045e-3
-1.343, 4.085e-3
-1.344, 4.122e-3
-1.345, 4.159e-3
-1.346, 4.193e-3
-1.347, 4.227e-3
-1.348, 4.264e-3
-1.349, 4.307e-3
-1.350, 4.357e-3
-1.351, 4.400e-3
-1.352, 4.449e-3
-1.353, 4.495e-3
-1.354, 4.538e-3
-1.355, 4.579e-3
-1.356, 4.619e-3
-1.357, 4.659e-3
-1.358, 4.702e-3
-1.359, 4.751e-3
-1.360, 4.804e-3
-1.361, 4.856e-3
-1.362, 4.908e-3
-1.363, 4.961e-3
-1.364, 5.007e-3
-1.365, 5.053e-3
-1.366, 5.100e-3
-1.367, 5.146e-3
-1.368, 5.192e-3
-1.369, 5.251e-3
-1.370, 5.306e-3
-1.371, 5.365e-3
-1.372, 5.426e-3
-1.373, 5.479e-3
-1.374, 5.534e-3
-1.375, 5.587e-3
-1.376, 5.636e-3
-1.377, 5.688e-3
-1.378, 5.741e-3
-1.379, 5.796e-3
-1.380, 5.858e-3
-1.381, 5.923e-3
-1.382, 5.984e-3
-1.383, 6.049e-3
-1.384, 6.111e-3
-1.385, 6.166e-3
-1.386, 6.225e-3
-1.387, 6.280e-3
-1.388, 6.342e-3
-1.389, 6.407e-3
-1.390, 6.475e-3
-1.391, 6.546e-3
-1.392, 6.613e-3
-1.393, 6.681e-3
-1.394, 6.749e-3
-1.395, 6.817e-3
-1.396, 6.879e-3
-1.397, 6.943e-3
-1.398, 7.011e-3
-1.399, 7.085e-3
-1.400, 7.033e-3
-1.399, 6.780e-3
-1.398, 6.564e-3
-1.397, 6.373e-3
-1.396, 6.191e-3
-1.395, 6.025e-3
-1.394, 5.867e-3
-1.393, 5.719e-3
-1.392, 5.584e-3
-1.391, 5.454e-3
-1.390, 5.337e-3
-1.389, 5.223e-3
-1.388, 5.118e-3
-1.387, 5.010e-3
-1.386, 4.905e-3
-1.385, 4.797e-3
-1.384, 4.696e-3
-1.383, 4.591e-3
-1.382, 4.492e-3
-1.381, 4.403e-3
-1.380, 4.317e-3
-1.379, 4.233e-3
-1.378, 4.150e-3
-1.377, 4.067e-3
-1.376, 3.980e-3
-1.375, 3.891e-3
-1.374, 3.805e-3
-1.373, 3.718e-3
-1.372, 3.632e-3
-1.371, 3.558e-3
-1.370, 3.481e-3
-1.369, 3.407e-3
-1.368, 3.336e-3
-1.367, 3.262e-3
-1.366, 3.185e-3
-1.365, 3.105e-3
-1.364, 3.028e-3
-1.363, 2.948e-3
-1.362, 2.871e-3
-1.361, 2.800e-3
-1.360, 2.735e-3
-1.359, 2.667e-3
-1.358, 2.602e-3
-1.357, 2.538e-3
-1.356, 2.467e-3
-1.355, 2.396e-3
-1.354, 2.322e-3
-1.353, 2.251e-3
-1.352, 2.186e-3
-1.351, 2.121e-3
-1.350, 2.060e-3
-1.349, 2.004e-3
-1.348, 1.946e-3
-1.347, 1.890e-3
-1.346, 1.828e-3
-1.345, 1.764e-3
-1.344, 1.702e-3
-1.343, 1.637e-3
-1.342, 1.576e-3
-1.341, 1.523e-3
-1.340, 1.468e-3
-1.339, 1.415e-3
-1.338, 1.369e-3
-1.337, 1.317e-3
-1.336, 1.261e-3
-1.335, 1.203e-3
-1.334, 1.147e-3
-1.333, 1.088e-3
-1.332, 1.033e-3
-1.331, 9.837e-4
-1.330, 9.343e-4
-1.329, 8.881e-4
-1.328, 8.449e-4
-1.327, 7.987e-4
-1.326, 7.494e-4
-1.325, 6.969e-4
-1.324, 6.445e-4
-1.323, 5.952e-4
-1.322, 5.459e-4
-1.321, 4.996e-4
-1.320, 4.626e-4
-1.319, 4.195e-4
-1.318, 3.825e-4
-1.317, 3.424e-4
-1.316, 2.992e-4
-1.315, 2.530e-4
-1.314, 2.067e-4
-1.313, 1.605e-4
-1.312, 1.204e-4
-1.311, 7.723e-5
-1.310, 4.332e-5
-1.309, 9.405e-6
-1.308, -2.451e-5
-1.307, -5.842e-5
-1.306, -9.542e-5
-1.305, -1.386e-4
-1.304, -1.756e-4
-1.303, -2.187e-4
-1.302, -2.557e-4
-1.301, -2.897e-4
-1.300, -3.205e-4
-1.299, -3.482e-4
-1.298, -3.760e-4
-1.297, -4.037e-4
-1.296, -4.376e-4
-1.295, -4.716e-4
-1.294, -5.086e-4
-1.293, -5.456e-4
-1.292, -5.795e-4
-1.291, -6.041e-4
-1.290, -6.288e-4
-1.289, -6.565e-4
-1.288, -6.781e-4
-1.287, -7.028e-4
-1.286, -7.305e-4
-1.285, -7.614e-4
-1.284, -7.953e-4
-1.283, -8.261e-4
-1.282, -8.508e-4
-1.281, -8.785e-4
-1.280, -9.001e-4
-1.279, -9.186e-4
-1.278, -9.402e-4
-1.277, -9.587e-4
-1.276, -9.834e-4
-1.275, -1.011e-3
-1.274, -1.036e-3
-1.273, -1.064e-3
-1.272, -1.088e-3
-1.271, -1.110e-3
-1.270, -1.128e-3
-1.269, -1.141e-3
-1.268, -1.156e-3
-1.267, -1.171e-3
-1.266, -1.193e-3
-1.265, -1.215e-3
-1.264, -1.239e-3
-1.263, -1.264e-3
-1.262, -1.286e-3
-1.261, -1.301e-3
-1.260, -1.316e-3
-1.259, -1.329e-3
-1.258, -1.341e-3
-1.257, -1.353e-3
-1.256, -1.372e-3
-1.255, -1.393e-3
-1.254, -1.412e-3
-1.253, -1.437e-3
-1.252, -1.455e-3
-1.251, -1.467e-3
-1.250, -1.480e-3
-1.249, -1.489e-3
-1.248, -1.498e-3
-1.247, -1.511e-3
-1.246, -1.523e-3
-1.245, -1.541e-3
-1.244, -1.560e-3
-1.243, -1.578e-3
-1.242, -1.594e-3
-1.241, -1.609e-3
-1.240, -1.615e-3
-1.239, -1.622e-3
-1.238, -1.628e-3
-1.237, -1.637e-3
-1.236, -1.652e-3
-1.235, -1.668e-3
-1.234, -1.683e-3
-1.233, -1.702e-3
-1.232, -1.711e-3
-1.231, -1.723e-3
-1.230, -1.729e-3
-1.229, -1.739e-3
-1.228, -1.745e-3
-1.227, -1.748e-3
-1.226, -1.757e-3
-1.225, -1.773e-3
-1.224, -1.785e-3
-1.223, -1.800e-3
-1.222, -1.813e-3
-1.221, -1.819e-3
-1.220, -1.825e-3
-1.219, -1.828e-3
-1.218, -1.831e-3
-1.217, -1.837e-3
-1.216, -1.847e-3
-1.215, -1.859e-3
-1.214, -1.871e-3
-1.213, -1.884e-3
-1.212, -1.896e-3
-1.211, -1.902e-3
-1.210, -1.905e-3
-1.209, -1.908e-3
-1.208, -1.908e-3
-1.207, -1.914e-3
-1.206, -1.921e-3
-1.205, -1.933e-3
-1.204, -1.942e-3
-1.203, -1.955e-3
-1.202, -1.964e-3
-1.201, -1.970e-3
-1.200, -1.973e-3
-1.199, -1.973e-3
-1.198, -1.973e-3
-1.197, -1.976e-3
-1.196, -1.982e-3
-1.195, -1.988e-3
-1.194, -2.001e-3
-1.193, -2.013e-3
-1.192, -2.019e-3
-1.191, -2.025e-3
-1.190, -2.029e-3
-1.189, -2.025e-3
-1.188, -2.025e-3
-1.187, -2.029e-3
-1.186, -2.032e-3
-1.185, -2.041e-3
-1.184, -2.050e-3
-1.183, -2.062e-3
-1.182, -2.069e-3
-1.181, -2.072e-3
-1.180, -2.072e-3
-1.179, -2.072e-3
-1.178, -2.072e-3
-1.177, -2.075e-3
-1.176, -2.078e-3
-1.175, -2.087e-3
-1.174, -2.093e-3
-1.173, -2.103e-3
-1.172, -2.109e-3
-1.171, -2.112e-3
-1.170, -2.112e-3
-1.169, -2.112e-3
-1.168, -2.109e-3
-1.167, -2.112e-3
-1.166, -2.115e-3
-1.165, -2.121e-3
-1.164, -2.130e-3
-1.163, -2.140e-3
-1.162, -2.146e-3
-1.161, -2.149e-3
-1.160, -2.146e-3
-1.159, -2.146e-3
-1.158, -2.143e-3
-1.157, -2.140e-3
-1.156, -2.146e-3
-1.155, -2.149e-3
-1.154, -2.158e-3
-1.153, -2.167e-3
-1.152, -2.170e-3
-1.151, -2.173e-3
-1.150, -2.170e-3
-1.149, -2.167e-3
-1.148, -2.164e-3
-1.147, -2.161e-3
-1.146, -2.164e-3
-1.145, -2.170e-3
-1.144, -2.177e-3
-1.143, -2.183e-3
-1.142, -2.186e-3
-1.141, -2.189e-3
-1.140, -2.186e-3
-1.139, -2.180e-3
-1.138, -2.177e-3
-1.137, -2.177e-3
-1.136, -2.177e-3
-1.135, -2.183e-3
-1.134, -2.189e-3
-1.133, -2.195e-3
-1.132, -2.201e-3
-1.131, -2.201e-3
-1.130, -2.198e-3
-1.129, -2.195e-3
-1.128, -2.189e-3
-1.127, -2.189e-3
-1.126, -2.192e-3
-1.125, -2.195e-3
-1.124, -2.201e-3
-1.123, -2.207e-3
-1.122, -2.210e-3
-1.121, -2.210e-3
-1.120, -2.207e-3
-1.119, -2.204e-3
-1.118, -2.198e-3
-1.117, -2.195e-3
-1.116, -2.195e-3
-1.115, -2.201e-3
-1.114, -2.204e-3
-1.113, -2.210e-3
-1.112, -2.214e-3
-1.111, -2.214e-3
-1.110, -2.210e-3
-1.109, -2.201e-3
-1.108, -2.198e-3
-1.107, -2.192e-3
-1.106, -2.192e-3
-1.105, -2.195e-3
-1.104, -2.198e-3
-1.103, -2.204e-3
-1.102, -2.204e-3
-1.101, -2.201e-3
-1.100, -2.198e-3
-1.099, -2.195e-3
-1.098, -2.186e-3
-1.097, -2.183e-3
-1.096, -2.183e-3
-1.095, -2.186e-3
-1.094, -2.189e-3
-1.093, -2.195e-3
-1.092, -2.195e-3
-1.091, -2.192e-3
-1.090, -2.186e-3
-1.089, -2.183e-3
-1.088, -2.173e-3
-1.087, -2.170e-3
-1.086, -2.167e-3
-1.085, -2.170e-3
-1.084, -2.173e-3
-1.083, -2.177e-3
-1.082, -2.180e-3
-1.081, -2.177e-3
-1.080, -2.170e-3
-1.079, -2.167e-3
-1.078, -2.158e-3
-1.077, -2.152e-3
-1.076, -2.155e-3
-1.075, -2.155e-3
-1.074, -2.161e-3
-1.073, -2.164e-3
-1.072, -2.167e-3
-1.071, -2.164e-3
-1.070, -2.158e-3
-1.069, -2.155e-3
-1.068, -2.149e-3
-1.067, -2.143e-3
-1.066, -2.143e-3
-1.065, -2.146e-3
-1.064, -2.152e-3
-1.063, -2.155e-3
-1.062, -2.155e-3
-1.061, -2.155e-3
-1.060, -2.152e-3
-1.059, -2.146e-3
-1.058, -2.136e-3
-1.057, -2.133e-3
-1.056, -2.136e-3
-1.055, -2.136e-3
-1.054, -2.140e-3
-1.053, -2.146e-3
-1.052, -2.149e-3
-1.051, -2.146e-3
-1.050, -2.143e-3
-1.049, -2.136e-3
-1.048, -2.130e-3
-1.047, -2.127e-3
-1.046, -2.127e-3
-1.045, -2.130e-3
-1.044, -2.136e-3
-1.043, -2.143e-3
-1.042, -2.143e-3
-1.041, -2.143e-3
-1.040, -2.140e-3
-1.039, -2.133e-3
-1.038, -2.127e-3
-1.037, -2.127e-3
-1.036, -2.127e-3
-1.035, -2.130e-3
-1.034, -2.136e-3
-1.033, -2.146e-3
-1.032, -2.146e-3
-1.031, -2.149e-3
-1.030, -2.146e-3
-1.029, -2.143e-3
-1.028, -2.136e-3
-1.027, -2.136e-3
-1.026, -2.136e-3
-1.025, -2.143e-3
-1.024, -2.149e-3
-1.023, -2.158e-3
-1.022, -2.161e-3
-1.021, -2.161e-3
-1.020, -2.161e-3
-1.019, -2.155e-3
-1.018, -2.152e-3
-1.017, -2.152e-3
-1.016, -2.155e-3
-1.015, -2.161e-3
-1.014, -2.167e-3
-1.013, -2.177e-3
-1.012, -2.180e-3
-1.011, -2.183e-3
-1.010, -2.183e-3
-1.009, -2.180e-3
-1.008, -2.177e-3
-1.007, -2.177e-3
-1.006, -2.177e-3
-1.005, -2.183e-3
-1.004, -2.192e-3
-1.003, -2.201e-3
-1.002, -2.204e-3
-1.001, -2.207e-3
