Potential V vs RHE, Current mA cm-2
0.013299999999999867,-0.5255652478998613
0.012299999999999978,-1.8334658446250875
0.011299999999999866,-2.794054817233447
0.010299999999999976,-3.447651437771094
0.009299999999999864,-3.927238568425342
0.008299999999999974,-4.3205283097878215
0.007299999999999862,-4.668547289554621
0.006299999999999972,-4.887827541033701
0.00529999999999986,-5.0618370309171015
0.0042999999999999705,-5.191990470504685
0.0032999999999998586,-5.279702571096316
0.0022999999999999687,-5.367414671687949
0.0012999999999998568,-5.453712060979717
0.00029999999999996696,-5.497568111275533
-0.000700000000000145,-5.629136262162981
-0.0017000000000000348,-5.629136262162981
-0.0027000000000001467,-5.672992312458796
-0.0037000000000000366,-5.672992312458796
-0.0047000000000001485,-5.715433651454749
-0.005700000000000038,-5.759289701750564
-0.00670000000000015,-5.759289701750564
-0.00770000000000004,-5.80314575204638
-0.008700000000000152,-5.80314575204638
-0.009700000000000042,-5.80314575204638
-0.010700000000000154,-5.847001802342197
-0.011700000000000044,-5.847001802342197
-0.012700000000000156,-5.847001802342197
-0.013700000000000045,-5.847001802342197
-0.014700000000000157,-5.759289701750564
-0.015700000000000047,-5.672992312458796
-0.01670000000000016,-5.585280211867165
-0.01770000000000005,-5.5414241615713475
-0.01870000000000016,-5.5414241615713475
-0.01970000000000005,-5.672992312458796
-0.020700000000000163,-5.715433651454749
-0.021700000000000053,-5.80314575204638
-0.022700000000000164,-5.847001802342197
-0.023700000000000054,-5.847001802342197
-0.024700000000000166,-5.890857852638012
-0.025700000000000056,-5.890857852638012
-0.026700000000000168,-5.9347139029338285
-0.027700000000000058,-5.9347139029338285
-0.02870000000000017,-5.9347139029338285
-0.02970000000000006,-5.9347139029338285
-0.03070000000000017,-5.9347139029338285
-0.03170000000000006,-5.9347139029338285
-0.03270000000000017,-5.9347139029338285
-0.03370000000000006,-5.9347139029338285
-0.034700000000000175,-5.9347139029338285
-0.035700000000000065,-5.9347139029338285
-0.03670000000000018,-5.890857852638012
-0.03770000000000007,-5.9347139029338285
-0.03870000000000018,-5.9347139029338285
-0.03970000000000007,-5.890857852638012
-0.04070000000000018,-5.9347139029338285
-0.04170000000000007,-5.9347139029338285
-0.04270000000000018,-5.9347139029338285
-0.04370000000000007,-5.9347139029338285
-0.044700000000000184,-5.9347139029338285
-0.045700000000000074,-5.9347139029338285
-0.046700000000000186,-5.9347139029338285
-0.047700000000000076,-5.9347139029338285
-0.04870000000000019,-5.890857852638012
-0.04970000000000008,-5.890857852638012
-0.05070000000000019,-5.890857852638012
-0.05170000000000008,-5.890857852638012
-0.05270000000000019,-5.9347139029338285
-0.05370000000000008,-5.9347139029338285
-0.05470000000000019,-5.9347139029338285
-0.05570000000000008,-5.890857852638012
-0.056700000000000195,-5.890857852638012
-0.057700000000000085,-5.890857852638012
-0.058700000000000196,-5.9347139029338285
-0.059700000000000086,-5.9347139029338285
-0.0607000000000002,-5.9347139029338285
-0.06170000000000009,-5.9347139029338285
-0.0627000000000002,-5.9347139029338285
-0.06370000000000009,-5.9347139029338285
-0.0647000000000002,-5.9347139029338285
-0.06570000000000009,-5.9347139029338285
-0.0667000000000002,-5.977155241929781
-0.0677000000000001,-5.977155241929781
-0.0687000000000002,-5.977155241929781
-0.0697000000000001,-5.977155241929781
-0.07070000000000021,-5.9347139029338285
-0.0717000000000001,-5.977155241929781
-0.07270000000000021,-5.977155241929781
-0.0737000000000001,-5.977155241929781
-0.07470000000000021,-5.977155241929781
-0.0757000000000001,-5.977155241929781
-0.07670000000000021,-5.977155241929781
-0.0777000000000001,-5.977155241929781
-0.07870000000000021,-5.977155241929781
-0.0797000000000001,-5.977155241929781
-0.08070000000000022,-5.977155241929781
-0.0817000000000001,-6.021011292225596
-0.08270000000000022,-5.977155241929781
-0.08370000000000011,-6.021011292225596
-0.08470000000000022,-5.977155241929781
-0.08570000000000011,-6.021011292225596
-0.08670000000000022,-6.021011292225596
-0.08770000000000011,-6.064867342521412
-0.08870000000000022,-6.021011292225596
-0.08970000000000011,-6.021011292225596
-0.09070000000000022,-5.977155241929781
-0.09170000000000011,-6.021011292225596
-0.09270000000000023,-6.064867342521412
-0.09370000000000012,-6.064867342521412
-0.09470000000000023,-6.108723392817228
-0.09570000000000012,-6.021011292225596
-0.09670000000000023,-5.9347139029338285
-0.09770000000000012,-5.847001802342197
-0.09870000000000023,-5.80314575204638
-0.09970000000000012,-5.759289701750564
-0.10070000000000023,-5.80314575204638
-0.10170000000000012,-5.890857852638012
-0.10270000000000024,-5.9347139029338285
-0.10370000000000013,-5.977155241929781
-0.10470000000000024,-6.021011292225596
-0.10570000000000013,-6.064867342521412
-0.10670000000000024,-6.108723392817228
-0.10770000000000013,-6.108723392817228
-0.10870000000000024,-6.108723392817228
-0.10970000000000013,-6.108723392817228
-0.11070000000000024,-6.152579443113044
-0.11170000000000013,-6.108723392817228
-0.11270000000000002,-6.152579443113044
-0.11370000000000013,-6.152579443113044
-0.11470000000000002,-6.152579443113044
-0.11570000000000014,-6.152579443113044
-0.11670000000000003,-6.152579443113044
-0.11770000000000014,-6.152579443113044
-0.11870000000000003,-6.152579443113044
-0.11970000000000014,-6.152579443113044
-0.12070000000000003,-6.196435493408861
-0.12170000000000014,-6.196435493408861
-0.12270000000000003,-6.152579443113044
-0.12370000000000014,-6.196435493408861
-0.12470000000000003,-6.152579443113044
-0.12570000000000014,-6.196435493408861
-0.12670000000000003,-6.152579443113044
-0.12770000000000015,-6.152579443113044
-0.12870000000000004,-6.196435493408861
-0.12970000000000015,-6.196435493408861
-0.13070000000000004,-6.152579443113044
-0.13170000000000015,-6.196435493408861
-0.13270000000000004,-6.238876832404812
-0.13370000000000015,-6.238876832404812
-0.13470000000000004,-6.238876832404812
-0.13570000000000015,-6.238876832404812
-0.13670000000000004,-6.238876832404812
-0.13770000000000016,-6.238876832404812
-0.13870000000000005,-6.238876832404812
-0.13970000000000016,-6.238876832404812
-0.14070000000000005,-6.282732882700628
-0.14170000000000016,-6.282732882700628
-0.14270000000000005,-6.282732882700628
-0.14370000000000016,-6.326588932996443
-0.14470000000000005,-6.326588932996443
-0.14570000000000016,-6.326588932996443
-0.14670000000000005,-6.326588932996443
-0.14770000000000016,-6.37044498329226
-0.14870000000000005,-6.37044498329226
-0.14970000000000017,-6.414301033588076
-0.15070000000000006,-6.414301033588076
-0.15170000000000017,-6.458157083883892
-0.15270000000000006,-6.458157083883892
-0.15370000000000017,-6.500598422879844
-0.15470000000000006,-6.500598422879844
-0.15570000000000017,-6.500598422879844
-0.15670000000000006,-6.500598422879844
-0.15770000000000017,-6.500598422879844
-0.15870000000000006,-6.500598422879844
-0.15970000000000018,-6.54445447317566
-0.16070000000000007,-6.54445447317566
-0.16170000000000018,-6.54445447317566
-0.16270000000000007,-6.54445447317566
-0.16370000000000018,-6.588310523471475
-0.16470000000000007,-6.632166573767292
-0.16570000000000018,-6.632166573767292
-0.16670000000000007,-6.632166573767292
-0.16770000000000018,-6.632166573767292
-0.16870000000000007,-6.6760226240631075
-0.16970000000000018,-6.6760226240631075
-0.17070000000000007,-6.588310523471475
-0.17170000000000019,-6.54445447317566
-0.17270000000000008,-6.458157083883892
-0.1737000000000002,-6.37044498329226
-0.17470000000000008,-6.37044498329226
-0.1757000000000002,-6.458157083883892
-0.17670000000000008,-6.54445447317566
-0.1777000000000002,-6.588310523471475
-0.17870000000000008,-6.6760226240631075
-0.1797000000000002,-6.762320013354876
-0.18070000000000008,-6.806176063650692
-0.1817000000000002,-6.850032113946507
-0.18270000000000008,-6.850032113946507
-0.1837000000000002,-6.893888164242324
-0.1847000000000001,-6.893888164242324
-0.1857000000000002,-6.93774421453814
-0.1867000000000001,-6.981600264833956
-0.1877000000000002,-7.024041603829907
-0.1887000000000001,-7.024041603829907
-0.1897000000000002,-7.067897654125724
-0.1907000000000001,-7.067897654125724
-0.1917000000000001,-7.111753704421539
-0.19269999999999998,-7.155609754717355
-0.1937000000000001,-7.155609754717355
-0.19469999999999998,-7.155609754717355
-0.1957000000000001,-7.243321855308987
-0.19669999999999999,-7.199465805013171
-0.1977000000000001,-7.243321855308987
-0.1987,-7.28576319430494
-0.1997000000000001,-7.28576319430494
-0.2007,-7.329619244600755
-0.2017000000000001,-7.37347529489657
-0.2027,-7.37347529489657
-0.2037000000000001,-7.4173313451923875
-0.2047,-7.4173313451923875
-0.2057000000000001,-7.461187395488204
-0.2067,-7.50504344578402
-0.2077000000000001,-7.5474847847799715
-0.2087,-7.5474847847799715
-0.2097000000000001,-7.591340835075788
-0.2107,-7.635196885371603
-0.2117000000000001,-7.679052935667419
-0.2127,-7.722908985963235
-0.2137000000000001,-7.7653503249591855
-0.2147,-7.809206375255003
-0.2157000000000001,-7.896918475846635
-0.2167,-7.940774526142452
-0.21770000000000012,-7.984630576438266
-0.2187,-8.027071915434218
-0.21970000000000012,-8.070927965730034
-0.2207,-8.11478401602585
-0.22170000000000012,-8.158640066321666
-0.2227,-8.202496116617484
-0.22370000000000012,-8.288793505909249
-0.2247,-8.332649556205066
-0.22570000000000012,-8.4203616567967
-0.2267,-8.508073757388331
-0.22770000000000012,-8.55051509638428
-0.22870000000000001,-8.638227196975913
-0.22970000000000013,-8.638227196975913
-0.23070000000000002,-8.725939297567548
-0.23170000000000013,-8.769795347863363
-0.23270000000000002,-8.85609273715513
-0.23370000000000013,-8.899948787450944
-0.23470000000000002,-8.943804837746763
-0.23570000000000013,-9.031516938338395
-0.23670000000000002,-9.11781432763016
-0.2376999999999999,-9.205526428221793
-0.23870000000000002,-9.293238528813426
-0.2396999999999999,-9.423391968401008
-0.24070000000000003,-9.55496011928846
-0.24169999999999991,-9.641257508580225
-0.24270000000000003,-9.728969609171857
-0.24369999999999992,-9.81668170976349
-0.24470000000000003,-9.902979099055257
-0.24569999999999992,-10.034547249942705
-0.24670000000000003,-10.078403300238522
-0.24769999999999992,-10.034547249942705
-0.24870000000000003,-9.902979099055257
-0.24969999999999992,-9.902979099055257
-0.25070000000000003,-9.85912304875944
-0.2516999999999999,-9.946835149351072
-0.25270000000000004,-10.078403300238522
-0.2536999999999999,-10.296268840417738
-0.25470000000000004,-10.514134380596953
-0.2556999999999999,-10.688143870480351
-0.25670000000000004,-10.906009410659568
-0.25769999999999993,-11.037577561547016
-0.25870000000000004,-11.211587051430415
-0.25969999999999993,-11.299299152022046
-0.26070000000000004,-11.473308641905447
-0.26169999999999993,-11.647318131788847
-0.26270000000000004,-11.778886282676295
-0.26369999999999993,-11.909039722263879
-0.26470000000000005,-12.084463923447142
-0.26569999999999994,-12.214617363034726
-0.26670000000000005,-12.390041564217992
-0.26769999999999994,-12.520195003805576
-0.26870000000000005,-12.651763154693022
-0.26969999999999994,-12.73806054398479
-0.27070000000000005,-12.913484745168056
-0.27169999999999994,-13.043638184755638
-0.27270000000000005,-13.261503724934855
-0.27369999999999994,-13.436927926118118
-0.27470000000000006,-13.567081365705702
-0.27569999999999995,-13.741090855589102
-0.27670000000000006,-13.872659006476551
-0.27769999999999995,-14.046668496359947
-0.27870000000000006,-14.26028990263957
-0.27969999999999995,-14.444202371622024
-0.28070000000000006,-14.65640906660178
-0.28169999999999995,-14.826174422585586
-0.28270000000000006,-15.01008689156804
-0.28369999999999995,-15.179852247551842
-0.28470000000000006,-15.3920589425316
-0.28569999999999995,-15.575971411514052
-0.28670000000000007,-15.78817810649381
-0.28769999999999996,-16.014531914472215
-0.28870000000000007,-16.22673860945197
-0.28969999999999996,-16.495533756426326
-0.29070000000000007,-16.665299112410132
-0.29169999999999996,-16.919947146385837
-0.29270000000000007,-17.146300954364243
-0.29369999999999996,-17.40094898833995
-0.2947000000000001,-17.627302796318357
-0.29569999999999996,-17.881950830294063
-0.2967000000000001,-18.15074597726842
-0.29769999999999996,-18.44783535024008
-0.2987000000000001,-18.716630497214435
-0.29969999999999997,-19.01371987018609
-0.3007000000000001,-19.28251501716045
-0.30169999999999997,-19.636192842126707
-0.3027000000000001,-19.890840876102416
-0.30369999999999997,-20.202077362072725
-0.3047000000000001,-20.456725396048434
-0.30569999999999997,-20.76796188201874
-0.3067000000000001,-21.107492593986347
-0.3077,-21.461170418952605
-0.3087000000000001,-21.729965565926964
-0.3097,-22.027054938898623
-0.3107000000000001,-22.38073276386488
-0.3117,-22.72026347583249
-0.3127000000000001,-23.1163826397947
-0.3137,-23.47006046476096
-0.3147000000000001,-23.823738289727217
-0.3157,-24.20571034069078
-0.3167000000000001,-24.559388165657033
-0.3177,-24.95550732961925
-0.3187000000000001,-25.337479380582806
-0.3197,-25.691157205549064
-0.3207000000000001,-26.129717708507226
-0.3217,-26.568278211465387
-0.3227000000000001,-27.091721392415455
-0.3237,-27.530281895373616
-0.3247000000000001,-27.742488590353368
-0.3257,-27.78492992934932
-0.3267000000000001,-27.65760591236147
-0.3277,-27.487840556377662
-0.3287000000000001,-27.65760591236147
-0.3297,-28.18104909331153
-0.3307000000000001,-28.789374952253496
-0.3317,-29.440142150191413
-0.3327000000000001,-29.96358533114148
-0.3337,-30.571911190083444
-0.3347000000000001,-31.095354371033505
-0.3357,-31.661238890979522
-0.3367000000000001,-32.14224073293363
-0.3377,-32.70812525287965
-0.3387000000000001,-33.288156885824314
-0.3397,-33.81160006677438
-0.3407000000000001,-34.41992592571634
-0.3417,-34.94336910666641
-0.3427000000000001,-35.38192960962457
-0.3437,-35.806342999584075
-0.3447000000000001,-36.28734484153819
-0.3457,-36.768346683492304
-0.3467000000000001,-37.334231203438314
-0.3477,-37.90011572338433
-0.3487000000000001,-38.42355890433439
-0.3497,-38.98944342428042
-0.3507000000000001,-39.51288660523048
-0.3517,-40.092918238175145
-0.3527000000000001,-40.65880275812115
-0.3537,-41.139804600075266
-0.3547000000000001,-41.606659329030734
-0.3557,-42.087661170984845
-0.35670000000000013,-42.568663012938956
-0.3577,-43.134547532884966
-0.35870000000000013,-43.75702050482558
-0.3597,-44.3229050247716
-0.36070000000000013,-44.93123088371356
-0.3617,-45.53955674265553
-0.3626999999999999,-46.062999923605595
-0.3637,-46.628884443551605
-0.3646999999999999,-47.19476896349763
-0.3657,-47.76065348344364
-0.3666999999999999,-48.41142068138156
-0.3677,-48.97730520132757
-0.3686999999999999,-49.557336834272235
-0.36970000000000003,-50.1656626932142
-0.3706999999999999,-50.81642989115212
-0.37170000000000003,-51.424755750094086
-0.3726999999999999,-52.11796428702795
-0.37370000000000003,-52.86776127595642
-0.3746999999999999,-53.603411151886235
-0.37570000000000003,-54.35320814081471
-0.3766999999999999,-55.088858016744524
-0.37770000000000004,-55.9235376836649
-0.3786999999999999,-56.65918755959472
-0.37970000000000004,-57.45142588751914
-0.3806999999999999,-58.18707576344896
-0.38170000000000004,-58.83784296138688
-0.38269999999999993,-59.587639950315335
-0.38370000000000004,-60.36573116524111
-0.38469999999999993,-61.15796949316553
-0.38570000000000004,-61.89361936909536
-0.38669999999999993,-61.49750020513315
-0.38570000000000004,-59.403727481332886
-0.38469999999999993,-57.8333979384827
-0.38370000000000004,-56.61674622059877
-0.38269999999999993,-55.442535841710786
-0.38170000000000004,-54.39564947981066
-0.3806999999999999,-53.56096981289029
-0.37970000000000004,-52.69799591997262
-0.3786999999999999,-52.033081609036046
-0.37770000000000004,-51.25499039411028
-0.3766999999999999,-50.50519340518181
-0.37570000000000003,-49.85442620724389
-0.3746999999999999,-48.84998118433972
-0.37370000000000003,-47.506005449467935
-0.3726999999999999,-45.79420477663124
-0.37170000000000003,-44.138992555789144
-0.3706999999999999,-42.483780334947056
-0.36970000000000003,-41.52177665103883
-0.3686999999999999,-40.87100945310091
-0.3677,-40.34756627215084
-0.3666999999999999,-39.82412309120078
-0.3657,-39.30067991025072
-0.3646999999999999,-38.777236729300654
-0.3637,-38.29623488734655
-0.3626999999999999,-37.687909028404576
-0.3617,-36.99470049147071
-0.36070000000000013,-36.329786180534136
-0.3597,-35.763901660588125
-0.35870000000000013,-35.07069312365426
-0.3577,-34.462367264712285
-0.35670000000000013,-33.81160006677438
-0.3557,-33.18912709483376
-0.3547000000000001,-32.58080123589179
-0.3537,-32.01491671594578
-0.3527000000000001,-31.449032195999767
-0.3517,-30.88314767605375
-0.3507000000000001,-30.189939139119886
-0.3497,-29.581613280177915
-0.3487000000000001,-28.8742576302454
-0.3477,-28.18104909331153
-0.3467000000000001,-27.530281895373616
-0.3457,-26.907808923433
-0.3447000000000001,-26.257041725495082
-0.3437,-25.648715866553115
-0.3427000000000001,-25.0828313466071
-0.3417,-24.516946826661083
-0.3407000000000001,-24.035944984706973
-0.3397,-23.47006046476096
-0.3387000000000001,-22.904175944814945
-0.3377,-22.38073276386488
-0.3367000000000001,-21.899730921910766
-0.3357,-21.376287740960702
-0.3347000000000001,-20.89528589900659
-0.3337,-20.371842718056527
-0.3327000000000001,-19.890840876102416
-0.3317,-19.409839034148305
-0.3307000000000001,-18.92883719219419
-0.3297,-18.44783535024008
-0.3287000000000001,-17.966833508285966
-0.3277,-17.584861457322408
-0.3267000000000001,-17.188742293360193
-0.3257,-16.70774045140608
-0.3247000000000001,-16.269179948447924
-0.3237,-15.830619445489761
-0.3227000000000001,-15.3920589425316
-0.3217,-14.967645552572087
-0.3207000000000001,-14.57152638860988
-0.3197,-14.217848563643619
-0.3187000000000001,-13.828802956180734
-0.3177,-13.3930718758223
-0.3167000000000001,-12.99978213445982
-0.3157,-12.651763154693022
-0.3147000000000001,-12.258473413330542
-0.3137,-11.86659838326793
-0.3127000000000001,-11.517164692201263
-0.3117,-11.1677310011346
-0.3107000000000001,-10.775855971071984
-0.3097,-10.382566229709504
-0.3087000000000001,-10.078403300238522
-0.3077,-9.685113558876042
-0.3067000000000001,-9.423391968401008
-0.30569999999999997,-9.031516938338395
-0.3047000000000001,-8.725939297567548
-0.30369999999999997,-8.376505606500881
-0.3027000000000001,-8.070927965730034
-0.30169999999999997,-7.722908985963235
-0.3007000000000001,-7.329619244600755
-0.29969999999999997,-6.93774421453814
-0.2987000000000001,-6.588310523471475
-0.29769999999999996,-6.282732882700628
-0.2967000000000001,-6.021011292225596
-0.29569999999999996,-5.759289701750564
-0.2947000000000001,-5.5414241615713475
-0.29369999999999996,-5.323558621392133
-0.29270000000000007,-5.105693081212917
-0.29169999999999996,-4.843971490737885
-0.29070000000000007,-4.582249900262854
-0.28969999999999996,-4.3205283097878215
-0.28870000000000007,-4.0588067193127895
-0.28769999999999996,-3.840941179133574
-0.28670000000000007,-3.623075638954359
-0.28569999999999995,-3.361354048479327
-0.28470000000000006,-3.1859298472960624
-0.28369999999999995,-2.924208256821031
-0.28270000000000006,-2.706342716641815
-0.28169999999999995,-2.4884771764625997
-0.28070000000000006,-2.2706116362833835
-0.27969999999999995,-2.052746096104168
-0.27870000000000006,-1.8334658446250875
-0.27769999999999995,-1.6594563547416883
-0.27670000000000006,-1.4415908145624723
-0.27569999999999995,-1.2234423321232837
-0.27470000000000006,-1.0490084288499246
-0.27369999999999994,-0.8745745255765657
-0.27270000000000005,-0.6564260431373771
-0.27169999999999994,-0.48199213986401795
-0.27070000000000005,-0.26384365742482935
-0.26969999999999994,-0.08943804837746762
-0.26870000000000005,0.08502414912188871
-0.26769999999999994,0.21588494435940458
-0.26670000000000005,0.3903188476327636
-0.26569999999999994,0.5647527509061226
