Potential V vs RHE, Current mA cm-2
0.013299999999999867,-0.5255652478998613
0.012299999999999978,-1.9650339955125358
0.011299999999999866,-2.968064307116847
0.010299999999999976,-3.7970851288377587
0.009299999999999864,-4.450681749375406
0.008299999999999974,-4.9302688800296535
0.007299999999999862,-5.323558621392133
0.006299999999999972,-5.629136262162981
0.00529999999999986,-5.890857852638012
0.0042999999999999705,-6.064867342521412
0.0032999999999998586,-6.238876832404812
0.0022999999999999687,-6.414301033588076
0.0012999999999998568,-6.500598422879844
0.00029999999999996696,-6.632166573767292
-0.000700000000000145,-6.6760226240631075
-0.0017000000000000348,-6.762320013354876
-0.0027000000000001467,-6.806176063650692
-0.0037000000000000366,-6.850032113946507
-0.0047000000000001485,-6.893888164242324
-0.005700000000000038,-6.93774421453814
-0.00670000000000015,-6.981600264833956
-0.00770000000000004,-7.024041603829907
-0.008700000000000152,-7.024041603829907
-0.009700000000000042,-7.067897654125724
-0.010700000000000154,-7.067897654125724
-0.011700000000000044,-7.111753704421539
-0.012700000000000156,-7.111753704421539
-0.013700000000000045,-7.155609754717355
-0.014700000000000157,-7.155609754717355
-0.015700000000000047,-7.199465805013171
-0.01670000000000016,-7.199465805013171
-0.01770000000000005,-7.199465805013171
-0.01870000000000016,-7.199465805013171
-0.01970000000000005,-7.199465805013171
-0.020700000000000163,-7.199465805013171
-0.021700000000000053,-7.199465805013171
-0.022700000000000164,-7.243321855308987
-0.023700000000000054,-7.243321855308987
-0.024700000000000166,-7.28576319430494
-0.025700000000000056,-7.243321855308987
-0.026700000000000168,-7.199465805013171
-0.027700000000000058,-7.243321855308987
-0.02870000000000017,-7.243321855308987
-0.02970000000000006,-7.28576319430494
-0.03070000000000017,-7.243321855308987
-0.03170000000000006,-7.28576319430494
-0.03270000000000017,-7.28576319430494
-0.03370000000000006,-7.329619244600755
-0.034700000000000175,-7.329619244600755
-0.035700000000000065,-7.329619244600755
-0.03670000000000018,-7.329619244600755
-0.03770000000000007,-7.329619244600755
-0.03870000000000018,-7.37347529489657
-0.03970000000000007,-7.329619244600755
-0.04070000000000018,-7.37347529489657
-0.04170000000000007,-7.37347529489657
-0.04270000000000018,-7.329619244600755
-0.04370000000000007,-7.329619244600755
-0.044700000000000184,-7.329619244600755
-0.045700000000000074,-7.28576319430494
-0.046700000000000186,-7.243321855308987
-0.047700000000000076,-7.155609754717355
-0.04870000000000019,-7.067897654125724
-0.04970000000000008,-6.981600264833956
-0.05070000000000019,-6.93774421453814
-0.05170000000000008,-6.893888164242324
-0.05270000000000019,-6.850032113946507
-0.05370000000000008,-6.93774421453814
-0.05470000000000019,-7.024041603829907
-0.05570000000000008,-7.111753704421539
-0.056700000000000195,-7.199465805013171
-0.057700000000000085,-7.243321855308987
-0.058700000000000196,-7.28576319430494
-0.059700000000000086,-7.329619244600755
-0.0607000000000002,-7.28576319430494
-0.06170000000000009,-7.329619244600755
-0.0627000000000002,-7.37347529489657
-0.06370000000000009,-7.37347529489657
-0.0647000000000002,-7.37347529489657
-0.06570000000000009,-7.37347529489657
-0.0667000000000002,-7.37347529489657
-0.0677000000000001,-7.4173313451923875
-0.0687000000000002,-7.37347529489657
-0.0697000000000001,-7.37347529489657
-0.07070000000000021,-7.37347529489657
-0.0717000000000001,-7.37347529489657
-0.07270000000000021,-7.37347529489657
-0.0737000000000001,-7.37347529489657
-0.07470000000000021,-7.37347529489657
-0.0757000000000001,-7.37347529489657
-0.07670000000000021,-7.329619244600755
-0.0777000000000001,-7.329619244600755
-0.07870000000000021,-7.329619244600755
-0.0797000000000001,-7.329619244600755
-0.08070000000000022,-7.37347529489657
-0.0817000000000001,-7.37347529489657
-0.08270000000000022,-7.37347529489657
-0.08370000000000011,-7.37347529489657
-0.08470000000000022,-7.37347529489657
-0.08570000000000011,-7.37347529489657
-0.08670000000000022,-7.37347529489657
-0.08770000000000011,-7.37347529489657
-0.08870000000000022,-7.37347529489657
-0.08970000000000011,-7.37347529489657
-0.09070000000000022,-7.4173313451923875
-0.09170000000000011,-7.37347529489657
-0.09270000000000023,-7.37347529489657
-0.09370000000000012,-7.37347529489657
-0.09470000000000023,-7.37347529489657
-0.09570000000000012,-7.37347529489657
-0.09670000000000023,-7.37347529489657
-0.09770000000000012,-7.4173313451923875
-0.09870000000000023,-7.4173313451923875
-0.09970000000000012,-7.461187395488204
-0.10070000000000023,-7.4173313451923875
-0.10170000000000012,-7.4173313451923875
-0.10270000000000024,-7.4173313451923875
-0.10370000000000013,-7.4173313451923875
-0.10470000000000024,-7.461187395488204
-0.10570000000000013,-7.4173313451923875
-0.10670000000000024,-7.461187395488204
-0.10770000000000013,-7.461187395488204
-0.10870000000000024,-7.461187395488204
-0.10970000000000013,-7.461187395488204
-0.11070000000000024,-7.461187395488204
-0.11170000000000013,-7.50504344578402
-0.11270000000000002,-7.50504344578402
-0.11370000000000013,-7.50504344578402
-0.11470000000000002,-7.50504344578402
-0.11570000000000014,-7.591340835075788
-0.11670000000000003,-7.5474847847799715
-0.11770000000000014,-7.5474847847799715
-0.11870000000000003,-7.5474847847799715
-0.11970000000000014,-7.5474847847799715
-0.12070000000000003,-7.591340835075788
-0.12170000000000014,-7.591340835075788
-0.12270000000000003,-7.591340835075788
-0.12370000000000014,-7.591340835075788
-0.12470000000000003,-7.591340835075788
-0.12570000000000014,-7.591340835075788
-0.12670000000000003,-7.591340835075788
-0.12770000000000015,-7.591340835075788
-0.12870000000000004,-7.591340835075788
-0.12970000000000015,-7.635196885371603
-0.13070000000000004,-7.679052935667419
-0.13170000000000015,-7.679052935667419
-0.13270000000000004,-7.679052935667419
-0.13370000000000015,-7.722908985963235
-0.13470000000000004,-7.722908985963235
-0.13570000000000015,-7.679052935667419
-0.13670000000000004,-7.722908985963235
-0.13770000000000016,-7.722908985963235
-0.13870000000000005,-7.722908985963235
-0.13970000000000016,-7.7653503249591855
-0.14070000000000005,-7.7653503249591855
-0.14170000000000016,-7.7653503249591855
-0.14270000000000005,-7.7653503249591855
-0.14370000000000016,-7.7653503249591855
-0.14470000000000005,-7.809206375255003
-0.14570000000000016,-7.809206375255003
-0.14670000000000005,-7.7653503249591855
-0.14770000000000016,-7.7653503249591855
-0.14870000000000005,-7.679052935667419
-0.14970000000000017,-7.591340835075788
-0.15070000000000006,-7.50504344578402
-0.15170000000000017,-7.4173313451923875
-0.15270000000000006,-7.4173313451923875
-0.15370000000000017,-7.50504344578402
-0.15470000000000006,-7.591340835075788
-0.15570000000000017,-7.722908985963235
-0.15670000000000006,-7.7653503249591855
-0.15770000000000017,-7.853062425550818
-0.15870000000000006,-7.896918475846635
-0.15970000000000018,-7.896918475846635
-0.16070000000000007,-7.940774526142452
-0.16170000000000018,-7.940774526142452
-0.16270000000000007,-7.940774526142452
-0.16370000000000018,-8.027071915434218
-0.16470000000000007,-8.070927965730034
-0.16570000000000018,-8.11478401602585
-0.16670000000000007,-8.11478401602585
-0.16770000000000018,-8.158640066321666
-0.16870000000000007,-8.158640066321666
-0.16970000000000018,-8.158640066321666
-0.17070000000000007,-8.158640066321666
-0.17170000000000019,-8.158640066321666
-0.17270000000000008,-8.158640066321666
-0.1737000000000002,-8.158640066321666
-0.17470000000000008,-8.202496116617484
-0.1757000000000002,-8.202496116617484
-0.17670000000000008,-8.202496116617484
-0.1777000000000002,-8.246352166913299
-0.17870000000000008,-8.246352166913299
-0.1797000000000002,-8.288793505909249
-0.18070000000000008,-8.288793505909249
-0.1817000000000002,-8.332649556205066
-0.18270000000000008,-8.332649556205066
-0.1837000000000002,-8.376505606500881
-0.1847000000000001,-8.376505606500881
-0.1857000000000002,-8.376505606500881
-0.1867000000000001,-8.376505606500881
-0.1877000000000002,-8.376505606500881
-0.1887000000000001,-8.4203616567967
-0.1897000000000002,-8.464217707092514
-0.1907000000000001,-8.508073757388331
-0.1917000000000001,-8.55051509638428
-0.19269999999999998,-8.55051509638428
-0.1937000000000001,-8.594371146680096
-0.19469999999999998,-8.55051509638428
-0.1957000000000001,-8.638227196975913
-0.19669999999999999,-8.638227196975913
-0.1977000000000001,-8.68208324727173
-0.1987,-8.725939297567548
-0.1997000000000001,-8.725939297567548
-0.2007,-8.769795347863363
-0.2017000000000001,-8.812236686859313
-0.2027,-8.85609273715513
-0.2037000000000001,-8.85609273715513
-0.2047,-8.943804837746763
-0.2057000000000001,-8.987660888042578
-0.2067,-9.031516938338395
-0.2077000000000001,-9.031516938338395
-0.2087,-9.073958277334345
-0.2097000000000001,-9.11781432763016
-0.2107,-9.161670377925978
-0.2117000000000001,-9.24938247851761
-0.2127,-9.24938247851761
-0.2137000000000001,-9.335679867809377
-0.2147,-9.379535918105192
-0.2157000000000001,-9.467248018696827
-0.2167,-9.511104068992642
-0.21770000000000012,-9.55496011928846
-0.2187,-9.59740145828441
-0.21970000000000012,-9.641257508580225
-0.2207,-9.685113558876042
-0.22170000000000012,-9.728969609171857
-0.2227,-9.81668170976349
-0.22370000000000012,-9.85912304875944
-0.2247,-9.902979099055257
-0.22570000000000012,-9.99069119964689
-0.2267,-9.99069119964689
-0.22770000000000012,-10.078403300238522
-0.22870000000000001,-10.120844639234473
-0.22970000000000013,-10.208556739826104
-0.23070000000000002,-10.25241279012192
-0.23170000000000013,-10.382566229709504
-0.23270000000000002,-10.470278330301136
-0.23370000000000013,-10.514134380596953
-0.23470000000000002,-10.601846481188586
-0.23570000000000013,-10.601846481188586
-0.23670000000000002,-10.688143870480351
-0.2376999999999999,-10.775855971071984
-0.23870000000000002,-10.863568071663616
-0.2396999999999999,-10.949865460955383
-0.24070000000000003,-11.037577561547016
-0.24169999999999991,-11.123874950838783
-0.24270000000000003,-11.211587051430415
-0.24369999999999992,-11.255443101726232
-0.24470000000000003,-11.299299152022046
-0.24569999999999992,-11.385596541313816
-0.24670000000000003,-11.517164692201263
-0.24769999999999992,-11.691174182084664
-0.24870000000000003,-11.82274233297211
-0.24969999999999992,-11.86659838326793
-0.25070000000000003,-11.952895772559694
-0.2516999999999999,-12.084463923447142
-0.25270000000000004,-12.170761312738911
-0.2536999999999999,-12.170761312738911
-0.25470000000000004,-12.170761312738911
-0.2556999999999999,-12.040607873151327
-0.25670000000000004,-12.040607873151327
-0.25769999999999993,-11.996751822855511
-0.25870000000000004,-11.86659838326793
-0.25969999999999993,-12.040607873151327
-0.26070000000000004,-12.258473413330542
-0.26169999999999993,-12.520195003805576
-0.26270000000000004,-12.73806054398479
-0.26369999999999993,-12.869628694872238
-0.26470000000000005,-13.175206335643086
-0.26569999999999994,-13.47936926511407
-0.26670000000000005,-13.784946905884919
-0.26769999999999994,-14.090524546655764
-0.26870000000000005,-14.26028990263957
-0.26969999999999994,-14.401761032626075
-0.27070000000000005,-14.529085049613924
-0.27169999999999994,-14.65640906660178
-0.27270000000000005,-14.783733083589633
-0.27369999999999994,-14.925204213576137
-0.27470000000000006,-15.094969569559943
-0.27569999999999995,-15.264734925543747
-0.27670000000000006,-15.448647394526201
-0.27769999999999995,-15.618412750510005
-0.27870000000000006,-15.78817810649381
-0.27969999999999995,-15.972090575476265
-0.28070000000000006,-16.184297270456018
-0.28169999999999995,-16.354062626439823
-0.28270000000000006,-16.53797509542228
-0.28369999999999995,-16.70774045140608
-0.28470000000000006,-16.919947146385837
-0.28569999999999995,-17.061418276372343
-0.28670000000000007,-17.2736249713521
-0.28769999999999996,-17.48583166633185
-0.28870000000000007,-17.71218547431026
-0.28969999999999996,-17.924392169290012
-0.29070000000000007,-18.15074597726842
-0.29169999999999996,-18.44783535024008
-0.29270000000000007,-18.674189158218486
-0.29369999999999996,-18.88639585319824
-0.2947000000000001,-19.155191000172596
-0.29569999999999996,-19.367397695152352
-0.2967000000000001,-19.636192842126707
-0.29769999999999996,-19.805958198110513
-0.2987000000000001,-20.06060623208622
-0.29969999999999997,-20.286960040064624
-0.3007000000000001,-20.541608074040333
-0.30169999999999997,-20.810403221014692
-0.3027000000000001,-21.107492593986347
-0.30369999999999997,-21.376287740960702
-0.3047000000000001,-21.67337711393236
-0.30569999999999997,-21.94217226090672
-0.3067000000000001,-22.253408746877028
-0.3077,-22.550498119848687
-0.3087000000000001,-22.819293266823045
-0.3097,-23.1163826397947
-0.3107000000000001,-23.427619125765005
-0.3117,-23.767149837732617
-0.3127000000000001,-24.120827662698876
-0.3137,-24.516946826661083
-0.3147000000000001,-24.870624651627345
-0.3157,-25.210155363594954
-0.3167000000000001,-25.478950510569312
-0.3177,-25.77603988354097
-0.3187000000000001,-26.129717708507226
-0.3197,-26.525836872469437
-0.3207000000000001,-26.907808923433
-0.3217,-27.303928087395207
-0.3227000000000001,-27.742488590353368
-0.3237,-28.18104909331153
-0.3247000000000001,-28.619609596269694
-0.3257,-29.001581647233255
-0.3267000000000001,-29.35525947219951
-0.3277,-29.708937297165768
-0.3287000000000001,-30.147497800123933
-0.3297,-30.487028512091538
-0.3307000000000001,-30.968030354045652
-0.3317,-31.36414951800786
-0.3327000000000001,-31.76026868197007
-0.3337,-32.09979939393769
-0.3347000000000001,-32.368594540912035
-0.3357,-32.62324257488775
-0.3367000000000001,-32.892037721862096
-0.3377,-33.231568433829715
-0.3387000000000001,-33.670128936787876
-0.3397,-34.10868943974604
-0.3407000000000001,-34.58969128170015
-0.3417,-35.198017140642115
-0.3427000000000001,-35.806342999584075
-0.3437,-36.4288159715247
-0.3447000000000001,-36.99470049147071
-0.3457,-37.51814367242077
-0.3467000000000001,-37.81523304539243
-0.3477,-38.253793548350586
-0.3487000000000001,-38.81967806829661
-0.3497,-39.34312124924667
-0.3507000000000001,-39.78168175220483
-0.3517,-40.26268359415894
-0.3527000000000001,-40.95589213109281
-0.3537,-41.43689397304693
-0.3547000000000001,-41.91789581500104
-0.3557,-42.4413389959511
-0.35670000000000013,-43.007223515897124
-0.3577,-43.53066669684718
-0.35870000000000013,-44.054109877797245
-0.3597,-44.704877075735155
-0.36070000000000013,-45.412232725667685
-0.3617,-46.062999923605595
-0.3626999999999999,-46.79864979953541
-0.3637,-47.590888127459834
-0.3646999999999999,-48.36897934238561
-0.3657,-49.076334992318124
-0.3666999999999999,-49.72710219025603
-0.3677,-50.29298671020206
-0.3686999999999999,-50.943753908139975
-0.36970000000000003,-51.509638428085985
-0.3706999999999999,-52.11796428702795
-0.37170000000000003,-52.78287859796452
-0.3726999999999999,-53.433645795902436
-0.37370000000000003,-54.08441299384035
-0.3746999999999999,-54.69273885278232
-0.37570000000000003,-55.400094502714836
-0.3766999999999999,-56.13574437864466
-0.37770000000000004,-56.82895291557852
-0.3786999999999999,-57.493867226515086
-0.37970000000000004,-58.14463442445301
-0.3806999999999999,-58.79540162239092
-0.38170000000000004,-59.44616882032884
-0.38269999999999993,-60.15352447026136
-0.38370000000000004,-60.71940899020737
-0.38469999999999993,-61.37017618814529
-0.38570000000000004,-61.97850204708726
-0.38669999999999993,-61.53994154412909
-0.38570000000000004,-59.31884480334099
-0.38469999999999993,-57.57874990450699
-0.38370000000000004,-56.13574437864466
-0.38269999999999993,-54.834209982768826
-0.38170000000000004,-53.68829382987814
-0.3806999999999999,-52.64140746797801
-0.37970000000000004,-51.594521106077885
-0.3786999999999999,-50.64666453516831
-0.37770000000000004,-49.72710219025603
-0.3766999999999999,-48.80753984534376
-0.37570000000000003,-47.8879775004315
-0.3746999999999999,-47.02500360751382
-0.37370000000000003,-46.2327652795894
-0.3726999999999999,-45.412232725667685
-0.37170000000000003,-44.577553058747306
-0.3706999999999999,-43.75702050482558
-0.36970000000000003,-43.007223515897124
-0.3686999999999999,-42.31401497896325
-0.3677,-41.606659329030734
-0.3666999999999999,-40.91345079209687
-0.3657,-40.26268359415894
-0.3646999999999999,-39.56947505722508
-0.3637,-38.86211940729255
-0.3626999999999999,-38.16891087035869
-0.3617,-37.47570233342482
-0.36070000000000013,-36.81078802248826
-0.3597,-36.07513814655844
-0.35870000000000013,-35.38192960962457
-0.3577,-34.717015298688004
-0.35670000000000013,-34.02380676175414
-0.3557,-33.373039563816214
-0.3547000000000001,-32.66568391388369
-0.3537,-31.972475376949827
-0.3527000000000001,-31.321708179011907
-0.3517,-30.670940981073993
-0.3507000000000001,-30.00602667013743
-0.3497,-29.39770081119546
-0.3487000000000001,-28.789374952253496
-0.3477,-28.13860775431558
-0.3467000000000001,-27.530281895373616
-0.3457,-26.9643973754276
-0.3447000000000001,-26.34192440348698
-0.3437,-25.77603988354097
-0.3427000000000001,-25.167714024599
-0.3417,-24.601829504652986
-0.3407000000000001,-23.993503645711023
-0.3397,-23.47006046476096
-0.3387000000000001,-22.904175944814945
-0.3377,-22.38073276386488
-0.3367000000000001,-21.857289582914817
-0.3357,-21.333846401964752
-0.3347000000000001,-20.810403221014692
-0.3337,-20.286960040064624
-0.3327000000000001,-19.763516859114564
-0.3317,-19.2400736781645
-0.3307000000000001,-18.80151317520634
-0.3297,-18.27806999425627
-0.3287000000000001,-17.584861457322408
-0.3277,-16.919947146385837
-0.3267000000000001,-16.184297270456018
-0.3257,-15.575971411514052
-0.3247000000000001,-14.868615761581536
-0.3237,-14.26028990263957
-0.3227000000000001,-13.916515056772363
-0.3217,-13.567081365705702
-0.3207000000000001,-13.261503724934855
-0.3197,-12.955926084164007
-0.3187000000000001,-12.651763154693022
-0.3177,-12.390041564217992
-0.3167000000000001,-12.12831997374296
-0.3157,-11.82274233297211
-0.3147000000000001,-11.517164692201263
-0.3137,-11.123874950838783
-0.3127000000000001,-10.688143870480351
-0.3117,-10.296268840417738
-0.3107000000000001,-9.902979099055257
-0.3097,-9.55496011928846
-0.3087000000000001,-9.205526428221793
-0.3077,-8.85609273715513
-0.3067000000000001,-8.55051509638428
-0.30569999999999997,-8.158640066321666
-0.3047000000000001,-7.809206375255003
-0.30369999999999997,-7.461187395488204
-0.3027000000000001,-7.155609754717355
-0.30169999999999997,-6.806176063650692
-0.3007000000000001,-6.500598422879844
-0.29969999999999997,-6.196435493408861
-0.2987000000000001,-5.890857852638012
-0.29769999999999996,-5.585280211867165
-0.2967000000000001,-5.235846520800501
-0.29569999999999996,-4.9302688800296535
-0.2947000000000001,-4.668547289554621
-0.29369999999999996,-4.364384360083638
-0.29270000000000007,-4.102662769608606
-0.29169999999999996,-3.840941179133574
-0.29070000000000007,-3.579219588658543
-0.28969999999999996,-3.317497998183511
-0.28870000000000007,-3.0119203574126634
-0.28769999999999996,-2.794054817233447
-0.28670000000000007,-2.4884771764625997
-0.28569999999999995,-2.2706116362833835
-0.28470000000000006,-2.008890045808352
-0.28369999999999995,-1.7910245056291363
-0.28270000000000006,-1.5717442541500557
-0.28169999999999995,-1.3107300193249565
-0.28070000000000006,-1.0925815368857679
-0.27969999999999995,-0.8745745255765657
-0.27870000000000006,-0.6564260431373771
-0.27769999999999995,-0.4384190318281749
-0.27670000000000006,-0.2202705493889862
-0.27569999999999995,-0.002205534916489592
-0.27470000000000006,0.17231183632356148
-0.27369999999999994,0.3467457395969205
-0.27270000000000005,0.5647527509061226
-0.27169999999999994,0.7393281253094681
-0.27070000000000005,0.9573351366186703
-0.26969999999999994,1.1317690398920295
-0.26870000000000005,1.3063444142953748
-0.26769999999999994,1.4812027309586933
-0.26670000000000005,1.655212220842093
-0.26569999999999994,1.8730777610213083
-0.26470000000000005,2.004645911908757
