Sept. 24, 2024   10:20:27
Cyclic Voltammetry
File: c:/users/guazh/data/20240922_batch_417_500/2024-09-22-exp434\exp434-2024-09-24t10_02_09-arkoh\exp434_cv_sr_200mvs_efin_-1700mv.bin
Data Source:  Experiment
Instrument Model:  CHI760E
Header: CV ran at 200 mVs
Note: 

Init E (V) = -1
High E (V) = -1
Low E (V) = -1.7
Final E (V) = -1
Init P/N = N
Scan Rate (V/s) = 0.2
Segment = 3
Sample Interval (V) = 0.001
Quiet Time (sec) = 2
Sensitivity (A/V) = 0.01
Comp R (ohm) = 1.9

Results:

Channel 1:
Segment 1:

Segment 2:

Segment 3:

Potential/V, Current/A

-1.000, 1.258e-5
-1.001, 3.676e-5
-1.002, 4.512e-5
-1.003, 4.997e-5
-1.004, 5.392e-5
-1.005, 5.686e-5
-1.006, 5.834e-5
-1.007, 6.081e-5
-1.008, 6.279e-5
-1.009, 6.360e-5
-1.010, 6.477e-5
-1.011, 6.731e-5
-1.012, 6.810e-5
-1.013, 6.849e-5
-1.014, 6.992e-5
-1.015, 7.149e-5
-1.016, 7.130e-5
-1.017, 7.274e-5
-1.018, 7.398e-5
-1.019, 7.412e-5
-1.020, 7.499e-5
-1.021, 7.635e-5
-1.022, 7.640e-5
-1.023, 7.674e-5
-1.024, 7.757e-5
-1.025, 7.854e-5
-1.026, 7.849e-5
-1.027, 7.900e-5
-1.028, 8.040e-5
-1.029, 7.963e-5
-1.030, 8.023e-5
-1.031, 8.166e-5
-1.032, 8.118e-5
-1.033, 8.141e-5
-1.034, 8.229e-5
-1.035, 8.273e-5
-1.036, 8.238e-5
-1.037, 8.295e-5
-1.038, 8.395e-5
-1.039, 8.356e-5
-1.040, 8.422e-5
-1.041, 8.472e-5
-1.042, 8.451e-5
-1.043, 8.433e-5
-1.044, 8.500e-5
-1.045, 8.577e-5
-1.046, 8.517e-5
-1.047, 8.542e-5
-1.048, 8.620e-5
-1.049, 8.571e-5
-1.050, 8.602e-5
-1.051, 8.674e-5
-1.052, 8.681e-5
-1.053, 8.628e-5
-1.054, 8.690e-5
-1.055, 8.774e-5
-1.056, 8.692e-5
-1.057, 8.711e-5
-1.058, 8.780e-5
-1.059, 8.732e-5
-1.060, 8.782e-5
-1.061, 8.808e-5
-1.062, 8.810e-5
-1.063, 8.755e-5
-1.064, 8.827e-5
-1.065, 8.878e-5
-1.066, 8.829e-5
-1.067, 8.815e-5
-1.068, 8.928e-5
-1.069, 8.825e-5
-1.070, 8.827e-5
-1.071, 8.908e-5
-1.072, 8.874e-5
-1.073, 8.840e-5
-1.074, 8.900e-5
-1.075, 8.978e-5
-1.076, 8.902e-5
-1.077, 8.920e-5
-1.078, 8.957e-5
-1.079, 8.937e-5
-1.080, 8.882e-5
-1.081, 8.982e-5
-1.082, 8.953e-5
-1.083, 8.906e-5
-1.084, 8.982e-5
-1.085, 8.988e-5
-1.086, 8.928e-5
-1.087, 8.982e-5
-1.088, 9.023e-5
-1.089, 8.960e-5
-1.090, 8.958e-5
-1.091, 9.021e-5
-1.092, 9.003e-5
-1.093, 8.963e-5
-1.094, 8.999e-5
-1.095, 9.093e-5
-1.096, 8.974e-5
-1.097, 9.016e-5
-1.098, 9.061e-5
-1.099, 8.998e-5
-1.100, 9.023e-5
-1.101, 9.079e-5
-1.102, 9.038e-5
-1.103, 9.028e-5
-1.104, 9.031e-5
-1.105, 9.095e-5
-1.106, 9.025e-5
-1.107, 9.063e-5
-1.108, 9.133e-5
-1.109, 9.030e-5
-1.110, 9.029e-5
-1.111, 9.133e-5
-1.112, 9.081e-5
-1.113, 9.053e-5
-1.114, 9.108e-5
-1.115, 9.139e-5
-1.116, 9.089e-5
-1.117, 9.100e-5
-1.118, 9.143e-5
-1.119, 9.113e-5
-1.120, 9.102e-5
-1.121, 9.214e-5
-1.122, 9.186e-5
-1.123, 9.104e-5
-1.124, 9.166e-5
-1.125, 9.178e-5
-1.126, 9.130e-5
-1.127, 9.185e-5
-1.128, 9.238e-5
-1.129, 9.156e-5
-1.130, 9.180e-5
-1.131, 9.254e-5
-1.132, 9.223e-5
-1.133, 9.160e-5
-1.134, 9.244e-5
-1.135, 9.307e-5
-1.136, 9.186e-5
-1.137, 9.228e-5
-1.138, 9.290e-5
-1.139, 9.272e-5
-1.140, 9.303e-5
-1.141, 9.337e-5
-1.142, 9.310e-5
-1.143, 9.264e-5
-1.144, 9.344e-5
-1.145, 9.389e-5
-1.146, 9.323e-5
-1.147, 9.361e-5
-1.148, 9.405e-5
-1.149, 9.381e-5
-1.150, 9.381e-5
-1.151, 9.509e-5
-1.152, 9.437e-5
-1.153, 9.424e-5
-1.154, 9.456e-5
-1.155, 9.521e-5
-1.156, 9.459e-5
-1.157, 9.516e-5
-1.158, 9.583e-5
-1.159, 9.550e-5
-1.160, 9.538e-5
-1.161, 9.602e-5
-1.162, 9.592e-5
-1.163, 9.569e-5
-1.164, 9.625e-5
-1.165, 9.716e-5
-1.166, 9.662e-5
-1.167, 9.679e-5
-1.168, 9.786e-5
-1.169, 9.701e-5
-1.170, 9.739e-5
-1.171, 9.833e-5
-1.172, 9.804e-5
-1.173, 9.770e-5
-1.174, 9.831e-5
-1.175, 9.922e-5
-1.176, 9.863e-5
-1.177, 9.947e-5
-1.178, 1.003e-4
-1.179, 9.952e-5
-1.180, 9.976e-5
-1.181, 1.009e-4
-1.182, 1.005e-4
-1.183, 1.007e-4
-1.184, 1.010e-4
-1.185, 1.018e-4
-1.186, 1.010e-4
-1.187, 1.020e-4
-1.188, 1.029e-4
-1.189, 1.022e-4
-1.190, 1.026e-4
-1.191, 1.038e-4
-1.192, 1.035e-4
-1.193, 1.035e-4
-1.194, 1.047e-4
-1.195, 1.049e-4
-1.196, 1.048e-4
-1.197, 1.051e-4
-1.198, 1.064e-4
-1.199, 1.061e-4
-1.200, 1.063e-4
-1.201, 1.075e-4
-1.202, 1.075e-4
-1.203, 1.075e-4
-1.204, 1.084e-4
-1.205, 1.089e-4
-1.206, 1.091e-4
-1.207, 1.096e-4
-1.208, 1.107e-4
-1.209, 1.105e-4
-1.210, 1.113e-4
-1.211, 1.120e-4
-1.212, 1.124e-4
-1.213, 1.122e-4
-1.214, 1.133e-4
-1.215, 1.142e-4
-1.216, 1.141e-4
-1.217, 1.148e-4
-1.218, 1.159e-4
-1.219, 1.161e-4
-1.220, 1.168e-4
-1.221, 1.179e-4
-1.222, 1.182e-4
-1.223, 1.184e-4
-1.224, 1.192e-4
-1.225, 1.208e-4
-1.226, 1.207e-4
-1.227, 1.214e-4
-1.228, 1.233e-4
-1.229, 1.235e-4
-1.230, 1.241e-4
-1.231, 1.254e-4
-1.232, 1.258e-4
-1.233, 1.263e-4
-1.234, 1.276e-4
-1.235, 1.286e-4
-1.236, 1.292e-4
-1.237, 1.297e-4
-1.238, 1.316e-4
-1.239, 1.318e-4
-1.240, 1.326e-4
-1.241, 1.345e-4
-1.242, 1.353e-4
-1.243, 1.359e-4
-1.244, 1.375e-4
-1.245, 1.384e-4
-1.246, 1.389e-4
-1.247, 1.406e-4
-1.248, 1.425e-4
-1.249, 1.428e-4
-1.250, 1.440e-4
-1.251, 1.455e-4
-1.252, 1.469e-4
-1.253, 1.469e-4
-1.254, 1.492e-4
-1.255, 1.510e-4
-1.256, 1.513e-4
-1.257, 1.530e-4
-1.258, 1.551e-4
-1.259, 1.558e-4
-1.260, 1.574e-4
-1.261, 1.597e-4
-1.262, 1.606e-4
-1.263, 1.618e-4
-1.264, 1.640e-4
-1.265, 1.663e-4
-1.266, 1.671e-4
-1.267, 1.691e-4
-1.268, 1.714e-4
-1.269, 1.721e-4
-1.270, 1.744e-4
-1.271, 1.772e-4
-1.272, 1.782e-4
-1.273, 1.796e-4
-1.274, 1.819e-4
-1.275, 1.847e-4
-1.276, 1.862e-4
-1.277, 1.883e-4
-1.278, 1.912e-4
-1.279, 1.923e-4
-1.280, 1.954e-4
-1.281, 1.983e-4
-1.282, 2.001e-4
-1.283, 2.014e-4
-1.284, 2.050e-4
-1.285, 2.075e-4
-1.286, 2.092e-4
-1.287, 2.118e-4
-1.288, 2.148e-4
-1.289, 2.167e-4
-1.290, 2.196e-4
-1.291, 2.233e-4
-1.292, 2.251e-4
-1.293, 2.271e-4
-1.294, 2.303e-4
-1.295, 2.342e-4
-1.296, 2.366e-4
-1.297, 2.398e-4
-1.298, 2.433e-4
-1.299, 2.456e-4
-1.300, 2.493e-4
-1.301, 2.529e-4
-1.302, 2.561e-4
-1.303, 2.586e-4
-1.304, 2.629e-4
-1.305, 2.670e-4
-1.306, 2.702e-4
-1.307, 2.734e-4
-1.308, 2.779e-4
-1.309, 2.811e-4
-1.310, 2.855e-4
-1.311, 2.909e-4
-1.312, 2.941e-4
-1.313, 2.971e-4
-1.314, 3.018e-4
-1.315, 3.063e-4
-1.316, 3.100e-4
-1.317, 3.145e-4
-1.318, 3.198e-4
-1.319, 3.238e-4
-1.320, 3.283e-4
-1.321, 3.335e-4
-1.322, 3.378e-4
-1.323, 3.420e-4
-1.324, 3.471e-4
-1.325, 3.522e-4
-1.326, 3.572e-4
-1.327, 3.626e-4
-1.328, 3.681e-4
-1.329, 3.728e-4
-1.330, 3.786e-4
-1.331, 3.843e-4
-1.332, 3.894e-4
-1.333, 3.942e-4
-1.334, 4.002e-4
-1.335, 4.073e-4
-1.336, 4.120e-4
-1.337, 4.186e-4
-1.338, 4.251e-4
-1.339, 4.294e-4
-1.340, 4.352e-4
-1.341, 4.425e-4
-1.342, 4.509e-4
-1.343, 4.569e-4
-1.344, 4.631e-4
-1.345, 4.700e-4
-1.346, 4.760e-4
-1.347, 4.828e-4
-1.348, 4.894e-4
-1.349, 4.959e-4
-1.350, 5.018e-4
-1.351, 5.100e-4
-1.352, 5.175e-4
-1.353, 5.252e-4
-1.354, 5.321e-4
-1.355, 5.401e-4
-1.356, 5.467e-4
-1.357, 5.553e-4
-1.358, 5.649e-4
-1.359, 5.714e-4
-1.360, 5.798e-4
-1.361, 5.872e-4
-1.362, 5.966e-4
-1.363, 6.029e-4
-1.364, 6.125e-4
-1.365, 6.195e-4
-1.366, 6.283e-4
-1.367, 6.357e-4
-1.368, 6.464e-4
-1.369, 6.533e-4
-1.370, 6.629e-4
-1.371, 6.713e-4
-1.372, 6.818e-4
-1.373, 6.900e-4
-1.374, 7.004e-4
-1.375, 7.092e-4
-1.376, 7.165e-4
-1.377, 7.259e-4
-1.378, 7.352e-4
-1.379, 7.448e-4
-1.380, 7.545e-4
-1.381, 7.647e-4
-1.382, 7.739e-4
-1.383, 7.826e-4
-1.384, 7.920e-4
-1.385, 8.038e-4
-1.386, 8.131e-4
-1.387, 8.220e-4
-1.388, 8.324e-4
-1.389, 8.417e-4
-1.390, 8.528e-4
-1.391, 8.628e-4
-1.392, 8.726e-4
-1.393, 8.811e-4
-1.394, 8.919e-4
-1.395, 9.022e-4
-1.396, 9.135e-4
-1.397, 9.245e-4
-1.398, 9.351e-4
-1.399, 9.436e-4
-1.400, 9.548e-4
-1.401, 9.635e-4
-1.402, 9.735e-4
-1.403, 9.817e-4
-1.404, 9.931e-4
-1.405, 1.003e-3
-1.406, 1.011e-3
-1.407, 1.021e-3
-1.408, 1.029e-3
-1.409, 1.041e-3
-1.410, 1.050e-3
-1.411, 1.063e-3
-1.412, 1.071e-3
-1.413, 1.081e-3
-1.414, 1.092e-3
-1.415, 1.102e-3
-1.416, 1.112e-3
-1.417, 1.121e-3
-1.418, 1.133e-3
-1.419, 1.142e-3
-1.420, 1.153e-3
-1.421, 1.164e-3
-1.422, 1.173e-3
-1.423, 1.182e-3
-1.424, 1.195e-3
-1.425, 1.202e-3
-1.426, 1.211e-3
-1.427, 1.222e-3
-1.428, 1.231e-3
-1.429, 1.242e-3
-1.430, 1.251e-3
-1.431, 1.263e-3
-1.432, 1.271e-3
-1.433, 1.282e-3
-1.434, 1.292e-3
-1.435, 1.304e-3
-1.436, 1.312e-3
-1.437, 1.325e-3
-1.438, 1.336e-3
-1.439, 1.348e-3
-1.440, 1.357e-3
-1.441, 1.370e-3
-1.442, 1.380e-3
-1.443, 1.389e-3
-1.444, 1.402e-3
-1.445, 1.411e-3
-1.446, 1.422e-3
-1.447, 1.429e-3
-1.448, 1.440e-3
-1.449, 1.452e-3
-1.450, 1.463e-3
-1.451, 1.473e-3
-1.452, 1.484e-3
-1.453, 1.496e-3
-1.454, 1.509e-3
-1.455, 1.521e-3
-1.456, 1.530e-3
-1.457, 1.540e-3
-1.458, 1.550e-3
-1.459, 1.561e-3
-1.460, 1.571e-3
-1.461, 1.581e-3
-1.462, 1.591e-3
-1.463, 1.602e-3
-1.464, 1.614e-3
-1.465, 1.625e-3
-1.466, 1.633e-3
-1.467, 1.646e-3
-1.468, 1.658e-3
-1.469, 1.671e-3
-1.470, 1.677e-3
-1.471, 1.688e-3
-1.472, 1.694e-3
-1.473, 1.707e-3
-1.474, 1.719e-3
-1.475, 1.728e-3
-1.476, 1.737e-3
-1.477, 1.746e-3
-1.478, 1.762e-3
-1.479, 1.772e-3
-1.480, 1.782e-3
-1.481, 1.790e-3
-1.482, 1.803e-3
-1.483, 1.811e-3
-1.484, 1.826e-3
-1.485, 1.835e-3
-1.486, 1.843e-3
-1.487, 1.852e-3
-1.488, 1.864e-3
-1.489, 1.879e-3
-1.490, 1.888e-3
-1.491, 1.901e-3
-1.492, 1.910e-3
-1.493, 1.924e-3
-1.494, 1.932e-3
-1.495, 1.941e-3
-1.496, 1.948e-3
-1.497, 1.960e-3
-1.498, 1.979e-3
-1.499, 1.992e-3
-1.500, 2.001e-3
-1.501, 2.008e-3
-1.502, 2.022e-3
-1.503, 2.039e-3
-1.504, 2.055e-3
-1.505, 2.067e-3
-1.506, 2.077e-3
-1.507, 2.089e-3
-1.508, 2.096e-3
-1.509, 2.109e-3
-1.510, 2.122e-3
-1.511, 2.135e-3
-1.512, 2.136e-3
-1.513, 2.141e-3
-1.514, 2.154e-3
-1.515, 2.168e-3
-1.516, 2.186e-3
-1.517, 2.198e-3
-1.518, 2.209e-3
-1.519, 2.218e-3
-1.520, 2.228e-3
-1.521, 2.243e-3
-1.522, 2.254e-3
-1.523, 2.264e-3
-1.524, 2.277e-3
-1.525, 2.288e-3
-1.526, 2.300e-3
-1.527, 2.308e-3
-1.528, 2.322e-3
-1.529, 2.332e-3
-1.530, 2.342e-3
-1.531, 2.358e-3
-1.532, 2.365e-3
-1.533, 2.378e-3
-1.534, 2.388e-3
-1.535, 2.401e-3
-1.536, 2.415e-3
-1.537, 2.425e-3
-1.538, 2.439e-3
-1.539, 2.449e-3
-1.540, 2.466e-3
-1.541, 2.477e-3
-1.542, 2.491e-3
-1.543, 2.500e-3
-1.544, 2.520e-3
-1.545, 2.539e-3
-1.546, 2.555e-3
-1.547, 2.563e-3
-1.548, 2.571e-3
-1.549, 2.587e-3
-1.550, 2.602e-3
-1.551, 2.618e-3
-1.552, 2.624e-3
-1.553, 2.635e-3
-1.554, 2.648e-3
-1.555, 2.668e-3
-1.556, 2.683e-3
-1.557, 2.695e-3
-1.558, 2.706e-3
-1.559, 2.720e-3
-1.560, 2.737e-3
-1.561, 2.755e-3
-1.562, 2.770e-3
-1.563, 2.785e-3
-1.564, 2.799e-3
-1.565, 2.818e-3
-1.566, 2.837e-3
-1.567, 2.856e-3
-1.568, 2.872e-3
-1.569, 2.883e-3
-1.570, 2.897e-3
-1.571, 2.910e-3
-1.572, 2.923e-3
-1.573, 2.930e-3
-1.574, 2.947e-3
-1.575, 2.963e-3
-1.576, 2.975e-3
-1.577, 2.984e-3
-1.578, 3.000e-3
-1.579, 3.016e-3
-1.580, 3.032e-3
-1.581, 3.048e-3
-1.582, 3.060e-3
-1.583, 3.076e-3
-1.584, 3.096e-3
-1.585, 3.113e-3
-1.586, 3.126e-3
-1.587, 3.135e-3
-1.588, 3.154e-3
-1.589, 3.174e-3
-1.590, 3.197e-3
-1.591, 3.213e-3
-1.592, 3.225e-3
-1.593, 3.239e-3
-1.594, 3.260e-3
-1.595, 3.287e-3
-1.596, 3.302e-3
-1.597, 3.316e-3
-1.598, 3.333e-3
-1.599, 3.356e-3
-1.600, 3.376e-3
-1.601, 3.391e-3
-1.602, 3.410e-3
-1.603, 3.428e-3
-1.604, 3.450e-3
-1.605, 3.475e-3
-1.606, 3.499e-3
-1.607, 3.515e-3
-1.608, 3.532e-3
-1.609, 3.554e-3
-1.610, 3.576e-3
-1.611, 3.592e-3
-1.612, 3.608e-3
-1.613, 3.631e-3
-1.614, 3.652e-3
-1.615, 3.676e-3
-1.616, 3.695e-3
-1.617, 3.712e-3
-1.618, 3.722e-3
-1.619, 3.741e-3
-1.620, 3.768e-3
-1.621, 3.792e-3
-1.622, 3.809e-3
-1.623, 3.826e-3
-1.624, 3.847e-3
-1.625, 3.874e-3
-1.626, 3.901e-3
-1.627, 3.923e-3
-1.628, 3.945e-3
-1.629, 3.967e-3
-1.630, 3.989e-3
-1.631, 4.011e-3
-1.632, 4.034e-3
-1.633, 4.057e-3
-1.634, 4.081e-3
-1.635, 4.104e-3
-1.636, 4.129e-3
-1.637, 4.150e-3
-1.638, 4.181e-3
-1.639, 4.213e-3
-1.640, 4.243e-3
-1.641, 4.275e-3
-1.642, 4.299e-3
-1.643, 4.327e-3
-1.644, 4.343e-3
-1.645, 4.367e-3
-1.646, 4.391e-3
-1.647, 4.419e-3
-1.648, 4.449e-3
-1.649, 4.470e-3
-1.650, 4.497e-3
-1.651, 4.516e-3
-1.652, 4.545e-3
-1.653, 4.568e-3
-1.654, 4.597e-3
-1.655, 4.624e-3
-1.656, 4.643e-3
-1.657, 4.676e-3
-1.658, 4.698e-3
-1.659, 4.736e-3
-1.660, 4.754e-3
-1.661, 4.797e-3
-1.662, 4.826e-3
-1.663, 4.843e-3
-1.664, 4.886e-3
-1.665, 4.899e-3
-1.666, 4.941e-3
-1.667, 4.961e-3
-1.668, 4.989e-3
-1.669, 5.018e-3
-1.670, 5.037e-3
-1.671, 5.073e-3
-1.672, 5.101e-3
-1.673, 5.148e-3
-1.674, 5.170e-3
-1.675, 5.215e-3
-1.676, 5.234e-3
-1.677, 5.283e-3
-1.678, 5.307e-3
-1.679, 5.347e-3
-1.680, 5.381e-3
-1.681, 5.428e-3
-1.682, 5.471e-3
-1.683, 5.500e-3
-1.684, 5.538e-3
-1.685, 5.567e-3
-1.686, 5.611e-3
-1.687, 5.650e-3
-1.688, 5.692e-3
-1.689, 5.727e-3
-1.690, 5.759e-3
-1.691, 5.801e-3
-1.692, 5.845e-3
-1.693, 5.891e-3
-1.694, 5.915e-3
-1.695, 5.953e-3
-1.696, 5.990e-3
-1.697, 6.030e-3
-1.698, 6.071e-3
-1.699, 6.111e-3
-1.700, 6.108e-3
-1.699, 6.056e-3
-1.698, 6.020e-3
-1.697, 5.978e-3
-1.696, 5.935e-3
-1.695, 5.876e-3
-1.694, 5.826e-3
-1.693, 5.780e-3
-1.692, 5.732e-3
-1.691, 5.671e-3
-1.690, 5.609e-3
-1.689, 5.559e-3
-1.688, 5.512e-3
-1.687, 5.459e-3
-1.686, 5.412e-3
-1.685, 5.367e-3
-1.684, 5.323e-3
-1.683, 5.276e-3
-1.682, 5.232e-3
-1.681, 5.188e-3
-1.680, 5.133e-3
-1.679, 5.078e-3
-1.678, 5.023e-3
-1.677, 4.979e-3
-1.676, 4.929e-3
-1.675, 4.886e-3
-1.674, 4.850e-3
-1.673, 4.808e-3
-1.672, 4.766e-3
-1.671, 4.721e-3
-1.670, 4.672e-3
-1.669, 4.630e-3
-1.668, 4.581e-3
-1.667, 4.543e-3
-1.666, 4.500e-3
-1.665, 4.454e-3
-1.664, 4.410e-3
-1.663, 4.365e-3
-1.662, 4.331e-3
-1.661, 4.282e-3
-1.660, 4.241e-3
-1.659, 4.197e-3
-1.658, 4.156e-3
-1.657, 4.113e-3
-1.656, 4.067e-3
-1.655, 4.031e-3
-1.654, 3.976e-3
-1.653, 3.934e-3
-1.652, 3.899e-3
-1.651, 3.849e-3
-1.650, 3.820e-3
-1.649, 3.775e-3
-1.648, 3.746e-3
-1.647, 3.709e-3
-1.646, 3.672e-3
-1.645, 3.637e-3
-1.644, 3.593e-3
-1.643, 3.560e-3
-1.642, 3.520e-3
-1.641, 3.489e-3
-1.640, 3.451e-3
-1.639, 3.421e-3
-1.638, 3.377e-3
-1.637, 3.350e-3
-1.636, 3.313e-3
-1.635, 3.288e-3
-1.634, 3.257e-3
-1.633, 3.223e-3
-1.632, 3.188e-3
-1.631, 3.150e-3
-1.630, 3.121e-3
-1.629, 3.090e-3
-1.628, 3.061e-3
-1.627, 3.028e-3
-1.626, 2.994e-3
-1.625, 2.964e-3
-1.624, 2.940e-3
-1.623, 2.911e-3
-1.622, 2.878e-3
-1.621, 2.845e-3
-1.620, 2.819e-3
-1.619, 2.790e-3
-1.618, 2.762e-3
-1.617, 2.731e-3
-1.616, 2.702e-3
-1.615, 2.671e-3
-1.614, 2.646e-3
-1.613, 2.625e-3
-1.612, 2.601e-3
-1.611, 2.568e-3
-1.610, 2.546e-3
-1.609, 2.526e-3
-1.608, 2.500e-3
-1.607, 2.474e-3
-1.606, 2.437e-3
-1.605, 2.416e-3
-1.604, 2.385e-3
-1.603, 2.361e-3
-1.602, 2.336e-3
-1.601, 2.304e-3
-1.600, 2.283e-3
-1.599, 2.256e-3
-1.598, 2.238e-3
-1.597, 2.212e-3
-1.596, 2.190e-3
-1.595, 2.165e-3
-1.594, 2.146e-3
-1.593, 2.126e-3
-1.592, 2.101e-3
-1.591, 2.077e-3
-1.590, 2.055e-3
-1.589, 2.037e-3
-1.588, 2.016e-3
-1.587, 1.998e-3
-1.586, 1.978e-3
-1.585, 1.958e-3
-1.584, 1.936e-3
-1.583, 1.918e-3
-1.582, 1.898e-3
-1.581, 1.877e-3
-1.580, 1.860e-3
-1.579, 1.841e-3
-1.578, 1.824e-3
-1.577, 1.807e-3
-1.576, 1.790e-3
-1.575, 1.774e-3
-1.574, 1.755e-3
-1.573, 1.741e-3
-1.572, 1.722e-3
-1.571, 1.706e-3
-1.570, 1.687e-3
-1.569, 1.674e-3
-1.568, 1.657e-3
-1.567, 1.641e-3
-1.566, 1.625e-3
-1.565, 1.610e-3
-1.564, 1.593e-3
-1.563, 1.579e-3
-1.562, 1.569e-3
-1.561, 1.555e-3
-1.560, 1.540e-3
-1.559, 1.523e-3
-1.558, 1.511e-3
-1.557, 1.497e-3
-1.556, 1.485e-3
-1.555, 1.471e-3
-1.554, 1.457e-3
-1.553, 1.444e-3
-1.552, 1.432e-3
-1.551, 1.423e-3
-1.550, 1.410e-3
-1.549, 1.399e-3
-1.548, 1.383e-3
-1.547, 1.373e-3
-1.546, 1.364e-3
-1.545, 1.353e-3
-1.544, 1.341e-3
-1.543, 1.327e-3
-1.542, 1.316e-3
-1.541, 1.305e-3
-1.540, 1.296e-3
-1.539, 1.287e-3
-1.538, 1.276e-3
-1.537, 1.263e-3
-1.536, 1.256e-3
-1.535, 1.247e-3
-1.534, 1.236e-3
-1.533, 1.228e-3
-1.532, 1.216e-3
-1.531, 1.207e-3
-1.530, 1.196e-3
-1.529, 1.190e-3
-1.528, 1.182e-3
-1.527, 1.173e-3
-1.526, 1.164e-3
-1.525, 1.157e-3
-1.524, 1.147e-3
-1.523, 1.140e-3
-1.522, 1.131e-3
-1.521, 1.122e-3
-1.520, 1.114e-3
-1.519, 1.107e-3
-1.518, 1.099e-3
-1.517, 1.090e-3
-1.516, 1.083e-3
-1.515, 1.075e-3
-1.514, 1.067e-3
-1.513, 1.060e-3
-1.512, 1.056e-3
-1.511, 1.049e-3
-1.510, 1.040e-3
-1.509, 1.033e-3
-1.508, 1.024e-3
-1.507, 1.018e-3
-1.506, 1.011e-3
-1.505, 1.006e-3
-1.504, 9.981e-4
-1.503, 9.912e-4
-1.502, 9.832e-4
-1.501, 9.771e-4
-1.500, 9.714e-4
-1.499, 9.657e-4
-1.498, 9.608e-4
-1.497, 9.524e-4
-1.496, 9.469e-4
-1.495, 9.386e-4
-1.494, 9.325e-4
-1.493, 9.277e-4
-1.492, 9.209e-4
-1.491, 9.151e-4
-1.490, 9.068e-4
-1.489, 9.036e-4
-1.488, 8.966e-4
-1.487, 8.910e-4
-1.486, 8.858e-4
-1.485, 8.784e-4
-1.484, 8.725e-4
-1.483, 8.666e-4
-1.482, 8.620e-4
-1.481, 8.547e-4
-1.480, 8.499e-4
-1.479, 8.446e-4
-1.478, 8.376e-4
-1.477, 8.328e-4
-1.476, 8.262e-4
-1.475, 8.208e-4
-1.474, 8.142e-4
-1.473, 8.077e-4
-1.472, 8.047e-4
-1.471, 7.966e-4
-1.470, 7.914e-4
-1.469, 7.864e-4
-1.468, 7.799e-4
-1.467, 7.757e-4
-1.466, 7.707e-4
-1.465, 7.668e-4
-1.464, 7.586e-4
-1.463, 7.549e-4
-1.462, 7.477e-4
-1.461, 7.441e-4
-1.460, 7.367e-4
-1.459, 7.336e-4
-1.458, 7.262e-4
-1.457, 7.231e-4
-1.456, 7.177e-4
-1.455, 7.111e-4
-1.454, 7.046e-4
-1.453, 6.994e-4
-1.452, 6.952e-4
-1.451, 6.892e-4
-1.450, 6.844e-4
-1.449, 6.785e-4
-1.448, 6.721e-4
-1.447, 6.667e-4
-1.446, 6.625e-4
-1.445, 6.569e-4
-1.444, 6.493e-4
-1.443, 6.449e-4
-1.442, 6.401e-4
-1.441, 6.341e-4
-1.440, 6.291e-4
-1.439, 6.249e-4
-1.438, 6.192e-4
-1.437, 6.130e-4
-1.436, 6.074e-4
-1.435, 6.022e-4
-1.434, 5.968e-4
-1.433, 5.912e-4
-1.432, 5.869e-4
-1.431, 5.805e-4
-1.430, 5.755e-4
-1.429, 5.702e-4
-1.428, 5.642e-4
-1.427, 5.583e-4
-1.426, 5.537e-4
-1.425, 5.470e-4
-1.424, 5.418e-4
-1.423, 5.375e-4
-1.422, 5.317e-4
-1.421, 5.260e-4
-1.420, 5.208e-4
-1.419, 5.163e-4
-1.418, 5.098e-4
-1.417, 5.052e-4
-1.416, 5.001e-4
-1.415, 4.948e-4
-1.414, 4.883e-4
-1.413, 4.828e-4
-1.412, 4.789e-4
-1.411, 4.729e-4
-1.410, 4.676e-4
-1.409, 4.625e-4
-1.408, 4.559e-4
-1.407, 4.512e-4
-1.406, 4.467e-4
-1.405, 4.415e-4
-1.404, 4.346e-4
-1.403, 4.297e-4
-1.402, 4.255e-4
-1.401, 4.194e-4
-1.400, 4.152e-4
-1.399, 4.101e-4
-1.398, 4.046e-4
-1.397, 4.004e-4
-1.396, 3.952e-4
-1.395, 3.898e-4
-1.394, 3.828e-4
-1.393, 3.782e-4
-1.392, 3.737e-4
-1.391, 3.684e-4
-1.390, 3.630e-4
-1.389, 3.581e-4
-1.388, 3.525e-4
-1.387, 3.474e-4
-1.386, 3.437e-4
-1.385, 3.378e-4
-1.384, 3.327e-4
-1.383, 3.277e-4
-1.382, 3.234e-4
-1.381, 3.178e-4
-1.380, 3.130e-4
-1.379, 3.081e-4
-1.378, 3.027e-4
-1.377, 2.980e-4
-1.376, 2.939e-4
-1.375, 2.895e-4
-1.374, 2.841e-4
-1.373, 2.799e-4
-1.372, 2.749e-4
-1.371, 2.701e-4
-1.370, 2.656e-4
-1.369, 2.616e-4
-1.368, 2.561e-4
-1.367, 2.513e-4
-1.366, 2.469e-4
-1.365, 2.423e-4
-1.364, 2.378e-4
-1.363, 2.337e-4
-1.362, 2.298e-4
-1.361, 2.242e-4
-1.360, 2.202e-4
-1.359, 2.168e-4
-1.358, 2.121e-4
-1.357, 2.075e-4
-1.356, 2.036e-4
-1.355, 1.992e-4
-1.354, 1.943e-4
-1.353, 1.904e-4
-1.352, 1.874e-4
-1.351, 1.818e-4
-1.350, 1.777e-4
-1.349, 1.748e-4
-1.348, 1.703e-4
-1.347, 1.665e-4
-1.346, 1.627e-4
-1.345, 1.589e-4
-1.344, 1.539e-4
-1.343, 1.506e-4
-1.342, 1.469e-4
-1.341, 1.427e-4
-1.340, 1.388e-4
-1.339, 1.358e-4
-1.338, 1.317e-4
-1.337, 1.282e-4
-1.336, 1.253e-4
-1.335, 1.214e-4
-1.334, 1.168e-4
-1.333, 1.146e-4
-1.332, 1.110e-4
-1.331, 1.070e-4
-1.330, 1.036e-4
-1.329, 1.009e-4
-1.328, 9.692e-5
-1.327, 9.369e-5
-1.326, 9.092e-5
-1.325, 8.783e-5
-1.324, 8.349e-5
-1.323, 8.110e-5
-1.322, 7.876e-5
-1.321, 7.457e-5
-1.320, 7.196e-5
-1.319, 6.972e-5
-1.318, 6.558e-5
-1.317, 6.293e-5
-1.316, 6.038e-5
-1.315, 5.755e-5
-1.314, 5.434e-5
-1.313, 5.171e-5
-1.312, 4.935e-5
-1.311, 4.574e-5
-1.310, 4.331e-5
-1.309, 4.146e-5
-1.308, 3.815e-5
-1.307, 3.527e-5
-1.306, 3.325e-5
-1.305, 3.066e-5
-1.304, 2.743e-5
-1.303, 2.575e-5
-1.302, 2.329e-5
-1.301, 2.034e-5
-1.300, 1.794e-5
-1.299, 1.635e-5
-1.298, 1.347e-5
-1.297, 1.089e-5
-1.296, 9.302e-6
-1.295, 7.151e-6
-1.294, 4.240e-6
-1.293, 2.958e-6
-1.292, 8.465e-7
-1.291, -1.620e-6
-1.290, -3.534e-6
-1.289, -4.905e-6
-1.288, -7.194e-6
-1.287, -9.444e-6
-1.286, -1.094e-5
-1.285, -1.251e-5
-1.284, -1.528e-5
-1.283, -1.666e-5
-1.282, -1.798e-5
-1.281, -2.045e-5
-1.280, -2.256e-5
-1.279, -2.330e-5
-1.278, -2.561e-5
-1.277, -2.714e-5
-1.276, -2.841e-5
-1.275, -3.011e-5
-1.274, -3.208e-5
-1.273, -3.317e-5
-1.272, -3.433e-5
-1.271, -3.628e-5
-1.270, -3.792e-5
-1.269, -3.859e-5
-1.268, -4.083e-5
-1.267, -4.234e-5
-1.266, -4.320e-5
-1.265, -4.477e-5
-1.264, -4.642e-5
-1.263, -4.747e-5
-1.262, -4.840e-5
-1.261, -5.052e-5
-1.260, -5.158e-5
-1.259, -5.206e-5
-1.258, -5.397e-5
-1.257, -5.519e-5
-1.256, -5.561e-5
-1.255, -5.696e-5
-1.254, -5.858e-5
-1.253, -5.911e-5
-1.252, -6.027e-5
-1.251, -6.186e-5
-1.250, -6.272e-5
-1.249, -6.307e-5
-1.248, -6.470e-5
-1.247, -6.576e-5
-1.246, -6.613e-5
-1.245, -6.702e-5
-1.244, -6.855e-5
-1.243, -6.907e-5
-1.242, -6.971e-5
-1.241, -7.150e-5
-1.240, -7.212e-5
-1.239, -7.204e-5
-1.238, -7.379e-5
-1.237, -7.450e-5
-1.236, -7.508e-5
-1.235, -7.539e-5
-1.234, -7.701e-5
-1.233, -7.728e-5
-1.232, -7.765e-5
-1.231, -7.908e-5
-1.230, -7.992e-5
-1.229, -8.054e-5
-1.228, -8.181e-5
-1.227, -8.206e-5
-1.226, -8.195e-5
-1.225, -8.295e-5
-1.224, -8.381e-5
-1.223, -8.395e-5
-1.222, -8.440e-5
-1.221, -8.553e-5
-1.220, -8.607e-5
-1.219, -8.589e-5
-1.218, -8.754e-5
-1.217, -8.818e-5
-1.216, -8.794e-5
-1.215, -8.840e-5
-1.214, -8.969e-5
-1.213, -8.957e-5
-1.212, -8.978e-5
-1.211, -9.095e-5
-1.210, -9.119e-5
-1.209, -9.124e-5
-1.208, -9.240e-5
-1.207, -9.271e-5
-1.206, -9.262e-5
-1.205, -9.313e-5
-1.204, -9.451e-5
-1.203, -9.423e-5
-1.202, -9.412e-5
-1.201, -9.518e-5
-1.200, -9.514e-5
-1.199, -9.522e-5
-1.198, -9.617e-5
-1.197, -9.655e-5
-1.196, -9.659e-5
-1.195, -9.671e-5
-1.194, -9.754e-5
-1.193, -9.789e-5
-1.192, -9.754e-5
-1.191, -9.838e-5
-1.190, -9.887e-5
-1.189, -9.825e-5
-1.188, -9.953e-5
-1.187, -9.976e-5
-1.186, -9.984e-5
-1.185, -9.999e-5
-1.184, -1.005e-4
-1.183, -1.004e-4
-1.182, -1.004e-4
-1.181, -1.013e-4
-1.180, -1.014e-4
-1.179, -1.011e-4
-1.178, -1.023e-4
-1.177, -1.027e-4
-1.176, -1.020e-4
-1.175, -1.023e-4
-1.174, -1.032e-4
-1.173, -1.028e-4
-1.172, -1.031e-4
-1.171, -1.039e-4
-1.170, -1.038e-4
-1.169, -1.036e-4
-1.168, -1.044e-4
-1.167, -1.046e-4
-1.166, -1.045e-4
-1.165, -1.046e-4
-1.164, -1.054e-4
-1.163, -1.052e-4
-1.162, -1.050e-4
-1.161, -1.062e-4
-1.160, -1.060e-4
-1.159, -1.055e-4
-1.158, -1.066e-4
-1.157, -1.069e-4
-1.156, -1.063e-4
-1.155, -1.069e-4
-1.154, -1.075e-4
-1.153, -1.074e-4
-1.152, -1.069e-4
-1.151, -1.082e-4
-1.150, -1.081e-4
-1.149, -1.077e-4
-1.148, -1.083e-4
-1.147, -1.089e-4
-1.146, -1.085e-4
-1.145, -1.087e-4
-1.144, -1.093e-4
-1.143, -1.090e-4
-1.142, -1.090e-4
-1.141, -1.095e-4
-1.140, -1.100e-4
-1.139, -1.095e-4
-1.138, -1.105e-4
-1.137, -1.104e-4
-1.136, -1.101e-4
-1.135, -1.103e-4
-1.134, -1.114e-4
-1.133, -1.110e-4
-1.132, -1.107e-4
-1.131, -1.116e-4
-1.130, -1.111e-4
-1.129, -1.112e-4
-1.128, -1.117e-4
-1.127, -1.124e-4
-1.126, -1.121e-4
-1.125, -1.121e-4
-1.124, -1.133e-4
-1.123, -1.128e-4
-1.122, -1.128e-4
-1.121, -1.132e-4
-1.120, -1.136e-4
-1.119, -1.130e-4
-1.118, -1.144e-4
-1.117, -1.140e-4
-1.116, -1.142e-4
-1.115, -1.143e-4
-1.114, -1.152e-4
-1.113, -1.152e-4
-1.112, -1.151e-4
-1.111, -1.161e-4
-1.110, -1.165e-4
-1.109, -1.161e-4
-1.108, -1.166e-4
-1.107, -1.173e-4
-1.106, -1.168e-4
-1.105, -1.172e-4
-1.104, -1.177e-4
-1.103, -1.176e-4
-1.102, -1.178e-4
-1.101, -1.183e-4
-1.100, -1.189e-4
-1.099, -1.183e-4
-1.098, -1.193e-4
-1.097, -1.196e-4
-1.096, -1.193e-4
-1.095, -1.196e-4
-1.094, -1.207e-4
-1.093, -1.202e-4
-1.092, -1.199e-4
-1.091, -1.213e-4
-1.090, -1.211e-4
-1.089, -1.209e-4
-1.088, -1.220e-4
-1.087, -1.221e-4
-1.086, -1.222e-4
-1.085, -1.219e-4
-1.084, -1.235e-4
-1.083, -1.225e-4
-1.082, -1.230e-4
-1.081, -1.239e-4
-1.080, -1.244e-4
-1.079, -1.239e-4
-1.078, -1.248e-4
-1.077, -1.249e-4
-1.076, -1.253e-4
-1.075, -1.260e-4
-1.074, -1.267e-4
-1.073, -1.268e-4
-1.072, -1.261e-4
-1.071, -1.276e-4
-1.070, -1.279e-4
-1.069, -1.276e-4
-1.068, -1.285e-4
-1.067, -1.286e-4
-1.066, -1.284e-4
-1.065, -1.293e-4
-1.064, -1.302e-4
-1.063, -1.298e-4
-1.062, -1.304e-4
-1.061, -1.311e-4
-1.060, -1.320e-4
-1.059, -1.315e-4
-1.058, -1.324e-4
-1.057, -1.330e-4
-1.056, -1.329e-4
-1.055, -1.336e-4
-1.054, -1.344e-4
-1.053, -1.345e-4
-1.052, -1.346e-4
-1.051, -1.361e-4
-1.050, -1.365e-4
-1.049, -1.364e-4
-1.048, -1.376e-4
-1.047, -1.383e-4
-1.046, -1.384e-4
-1.045, -1.386e-4
-1.044, -1.400e-4
-1.043, -1.404e-4
-1.042, -1.405e-4
-1.041, -1.418e-4
-1.040, -1.423e-4
-1.039, -1.425e-4
-1.038, -1.441e-4
-1.037, -1.447e-4
-1.036, -1.451e-4
-1.035, -1.456e-4
-1.034, -1.468e-4
-1.033, -1.473e-4
-1.032, -1.479e-4
-1.031, -1.492e-4
-1.030, -1.500e-4
-1.029, -1.501e-4
-1.028, -1.515e-4
-1.027, -1.527e-4
-1.026, -1.531e-4
-1.025, -1.545e-4
-1.024, -1.562e-4
-1.023, -1.564e-4
-1.022, -1.568e-4
-1.021, -1.583e-4
-1.020, -1.597e-4
-1.019, -1.600e-4
-1.018, -1.614e-4
-1.017, -1.622e-4
-1.016, -1.629e-4
-1.015, -1.639e-4
-1.014, -1.655e-4
-1.013, -1.658e-4
-1.012, -1.664e-4
-1.011, -1.682e-4
-1.010, -1.686e-4
-1.009, -1.698e-4
-1.008, -1.707e-4
-1.007, -1.719e-4
-1.006, -1.725e-4
-1.005, -1.733e-4
-1.004, -1.754e-4
-1.003, -1.751e-4
-1.002, -1.761e-4
-1.001, -1.775e-4
