Sept. 24, 2024   10:19:22
Cyclic Voltammetry
File: c:/users/guazh/data/20240922_batch_417_500/2024-09-22-exp434\exp434-2024-09-24t10_02_09-arkoh\exp434_cv_sr_50mvs_efin_-1700mv.bin
Data Source:  Experiment
Instrument Model:  CHI760E
Header: CV ran at 50 mVs
Note: 

Init E (V) = -1
High E (V) = -1
Low E (V) = -1.7
Final E (V) = -1
Init P/N = N
Scan Rate (V/s) = 0.05
Segment = 3
Sample Interval (V) = 0.001
Quiet Time (sec) = 2
Sensitivity (A/V) = 0.01
Comp R (ohm) = 1.9

Results:

Channel 1:
Segment 1:

Segment 2:

Segment 3:

Potential/V, Current/A

-1.000, 1.596e-6
-1.001, 7.605e-6
-1.002, 9.696e-6
-1.003, 1.094e-5
-1.004, 1.212e-5
-1.005, 1.309e-5
-1.006, 1.391e-5
-1.007, 1.481e-5
-1.008, 1.521e-5
-1.009, 1.589e-5
-1.010, 1.650e-5
-1.011, 1.687e-5
-1.012, 1.747e-5
-1.013, 1.774e-5
-1.014, 1.808e-5
-1.015, 1.862e-5
-1.016, 1.892e-5
-1.017, 1.925e-5
-1.018, 1.951e-5
-1.019, 1.972e-5
-1.020, 2.009e-5
-1.021, 2.035e-5
-1.022, 2.043e-5
-1.023, 2.069e-5
-1.024, 2.115e-5
-1.025, 2.132e-5
-1.026, 2.170e-5
-1.027, 2.169e-5
-1.028, 2.194e-5
-1.029, 2.209e-5
-1.030, 2.232e-5
-1.031, 2.267e-5
-1.032, 2.256e-5
-1.033, 2.271e-5
-1.034, 2.284e-5
-1.035, 2.307e-5
-1.036, 2.324e-5
-1.037, 2.341e-5
-1.038, 2.331e-5
-1.039, 2.362e-5
-1.040, 2.375e-5
-1.041, 2.376e-5
-1.042, 2.386e-5
-1.043, 2.385e-5
-1.044, 2.397e-5
-1.045, 2.418e-5
-1.046, 2.431e-5
-1.047, 2.439e-5
-1.048, 2.433e-5
-1.049, 2.431e-5
-1.050, 2.466e-5
-1.051, 2.468e-5
-1.052, 2.478e-5
-1.053, 2.473e-5
-1.054, 2.480e-5
-1.055, 2.504e-5
-1.056, 2.498e-5
-1.057, 2.498e-5
-1.058, 2.495e-5
-1.059, 2.489e-5
-1.060, 2.529e-5
-1.061, 2.526e-5
-1.062, 2.521e-5
-1.063, 2.535e-5
-1.064, 2.521e-5
-1.065, 2.546e-5
-1.066, 2.553e-5
-1.067, 2.541e-5
-1.068, 2.545e-5
-1.069, 2.554e-5
-1.070, 2.555e-5
-1.071, 2.567e-5
-1.072, 2.559e-5
-1.073, 2.553e-5
-1.074, 2.561e-5
-1.075, 2.583e-5
-1.076, 2.593e-5
-1.077, 2.566e-5
-1.078, 2.571e-5
-1.079, 2.572e-5
-1.080, 2.585e-5
-1.081, 2.589e-5
-1.082, 2.595e-5
-1.083, 2.578e-5
-1.084, 2.582e-5
-1.085, 2.597e-5
-1.086, 2.606e-5
-1.087, 2.598e-5
-1.088, 2.594e-5
-1.089, 2.602e-5
-1.090, 2.613e-5
-1.091, 2.617e-5
-1.092, 2.611e-5
-1.093, 2.607e-5
-1.094, 2.608e-5
-1.095, 2.627e-5
-1.096, 2.621e-5
-1.097, 2.606e-5
-1.098, 2.612e-5
-1.099, 2.619e-5
-1.100, 2.633e-5
-1.101, 2.643e-5
-1.102, 2.638e-5
-1.103, 2.617e-5
-1.104, 2.626e-5
-1.105, 2.641e-5
-1.106, 2.651e-5
-1.107, 2.636e-5
-1.108, 2.653e-5
-1.109, 2.630e-5
-1.110, 2.659e-5
-1.111, 2.678e-5
-1.112, 2.649e-5
-1.113, 2.662e-5
-1.114, 2.656e-5
-1.115, 2.671e-5
-1.116, 2.693e-5
-1.117, 2.674e-5
-1.118, 2.672e-5
-1.119, 2.690e-5
-1.120, 2.690e-5
-1.121, 2.702e-5
-1.122, 2.707e-5
-1.123, 2.684e-5
-1.124, 2.700e-5
-1.125, 2.718e-5
-1.126, 2.730e-5
-1.127, 2.730e-5
-1.128, 2.715e-5
-1.129, 2.733e-5
-1.130, 2.748e-5
-1.131, 2.759e-5
-1.132, 2.748e-5
-1.133, 2.745e-5
-1.134, 2.748e-5
-1.135, 2.788e-5
-1.136, 2.766e-5
-1.137, 2.774e-5
-1.138, 2.787e-5
-1.139, 2.792e-5
-1.140, 2.817e-5
-1.141, 2.823e-5
-1.142, 2.814e-5
-1.143, 2.822e-5
-1.144, 2.819e-5
-1.145, 2.843e-5
-1.146, 2.854e-5
-1.147, 2.847e-5
-1.148, 2.848e-5
-1.149, 2.864e-5
-1.150, 2.883e-5
-1.151, 2.915e-5
-1.152, 2.894e-5
-1.153, 2.904e-5
-1.154, 2.912e-5
-1.155, 2.932e-5
-1.156, 2.962e-5
-1.157, 2.939e-5
-1.158, 2.954e-5
-1.159, 2.963e-5
-1.160, 2.979e-5
-1.161, 2.992e-5
-1.162, 3.009e-5
-1.163, 3.006e-5
-1.164, 3.020e-5
-1.165, 3.049e-5
-1.166, 3.060e-5
-1.167, 3.070e-5
-1.168, 3.071e-5
-1.169, 3.088e-5
-1.170, 3.118e-5
-1.171, 3.139e-5
-1.172, 3.135e-5
-1.173, 3.138e-5
-1.174, 3.154e-5
-1.175, 3.207e-5
-1.176, 3.200e-5
-1.177, 3.234e-5
-1.178, 3.250e-5
-1.179, 3.260e-5
-1.180, 3.292e-5
-1.181, 3.312e-5
-1.182, 3.316e-5
-1.183, 3.336e-5
-1.184, 3.353e-5
-1.185, 3.394e-5
-1.186, 3.417e-5
-1.187, 3.419e-5
-1.188, 3.436e-5
-1.189, 3.463e-5
-1.190, 3.505e-5
-1.191, 3.540e-5
-1.192, 3.540e-5
-1.193, 3.559e-5
-1.194, 3.603e-5
-1.195, 3.639e-5
-1.196, 3.663e-5
-1.197, 3.688e-5
-1.198, 3.702e-5
-1.199, 3.754e-5
-1.200, 3.783e-5
-1.201, 3.804e-5
-1.202, 3.839e-5
-1.203, 3.863e-5
-1.204, 3.910e-5
-1.205, 3.946e-5
-1.206, 3.978e-5
-1.207, 4.018e-5
-1.208, 4.036e-5
-1.209, 4.079e-5
-1.210, 4.144e-5
-1.211, 4.160e-5
-1.212, 4.207e-5
-1.213, 4.242e-5
-1.214, 4.285e-5
-1.215, 4.341e-5
-1.216, 4.385e-5
-1.217, 4.434e-5
-1.218, 4.474e-5
-1.219, 4.505e-5
-1.220, 4.592e-5
-1.221, 4.643e-5
-1.222, 4.671e-5
-1.223, 4.748e-5
-1.224, 4.773e-5
-1.225, 4.866e-5
-1.226, 4.917e-5
-1.227, 4.971e-5
-1.228, 5.034e-5
-1.229, 5.111e-5
-1.230, 5.169e-5
-1.231, 5.248e-5
-1.232, 5.296e-5
-1.233, 5.362e-5
-1.234, 5.432e-5
-1.235, 5.520e-5
-1.236, 5.593e-5
-1.237, 5.659e-5
-1.238, 5.721e-5
-1.239, 5.804e-5
-1.240, 5.892e-5
-1.241, 5.973e-5
-1.242, 6.054e-5
-1.243, 6.137e-5
-1.244, 6.233e-5
-1.245, 6.336e-5
-1.246, 6.437e-5
-1.247, 6.526e-5
-1.248, 6.607e-5
-1.249, 6.712e-5
-1.250, 6.828e-5
-1.251, 6.916e-5
-1.252, 7.025e-5
-1.253, 7.116e-5
-1.254, 7.235e-5
-1.255, 7.363e-5
-1.256, 7.477e-5
-1.257, 7.587e-5
-1.258, 7.723e-5
-1.259, 7.842e-5
-1.260, 7.990e-5
-1.261, 8.112e-5
-1.262, 8.227e-5
-1.263, 8.378e-5
-1.264, 8.495e-5
-1.265, 8.650e-5
-1.266, 8.809e-5
-1.267, 8.954e-5
-1.268, 9.116e-5
-1.269, 9.264e-5
-1.270, 9.433e-5
-1.271, 9.593e-5
-1.272, 9.740e-5
-1.273, 9.904e-5
-1.274, 1.009e-4
-1.275, 1.027e-4
-1.276, 1.046e-4
-1.277, 1.064e-4
-1.278, 1.081e-4
-1.279, 1.101e-4
-1.280, 1.123e-4
-1.281, 1.142e-4
-1.282, 1.162e-4
-1.283, 1.179e-4
-1.284, 1.201e-4
-1.285, 1.224e-4
-1.286, 1.247e-4
-1.287, 1.270e-4
-1.288, 1.290e-4
-1.289, 1.315e-4
-1.290, 1.341e-4
-1.291, 1.364e-4
-1.292, 1.387e-4
-1.293, 1.411e-4
-1.294, 1.438e-4
-1.295, 1.467e-4
-1.296, 1.492e-4
-1.297, 1.519e-4
-1.298, 1.546e-4
-1.299, 1.575e-4
-1.300, 1.606e-4
-1.301, 1.634e-4
-1.302, 1.663e-4
-1.303, 1.694e-4
-1.304, 1.724e-4
-1.305, 1.757e-4
-1.306, 1.791e-4
-1.307, 1.821e-4
-1.308, 1.854e-4
-1.309, 1.889e-4
-1.310, 1.924e-4
-1.311, 1.959e-4
-1.312, 1.996e-4
-1.313, 2.030e-4
-1.314, 2.066e-4
-1.315, 2.104e-4
-1.316, 2.143e-4
-1.317, 2.177e-4
-1.318, 2.219e-4
-1.319, 2.258e-4
-1.320, 2.298e-4
-1.321, 2.339e-4
-1.322, 2.381e-4
-1.323, 2.421e-4
-1.324, 2.464e-4
-1.325, 2.509e-4
-1.326, 2.550e-4
-1.327, 2.597e-4
-1.328, 2.639e-4
-1.329, 2.684e-4
-1.330, 2.734e-4
-1.331, 2.783e-4
-1.332, 2.831e-4
-1.333, 2.879e-4
-1.334, 2.931e-4
-1.335, 2.981e-4
-1.336, 3.031e-4
-1.337, 3.080e-4
-1.338, 3.134e-4
-1.339, 3.186e-4
-1.340, 3.238e-4
-1.341, 3.289e-4
-1.342, 3.343e-4
-1.343, 3.399e-4
-1.344, 3.451e-4
-1.345, 3.512e-4
-1.346, 3.567e-4
-1.347, 3.621e-4
-1.348, 3.678e-4
-1.349, 3.731e-4
-1.350, 3.792e-4
-1.351, 3.851e-4
-1.352, 3.904e-4
-1.353, 3.963e-4
-1.354, 4.023e-4
-1.355, 4.082e-4
-1.356, 4.146e-4
-1.357, 4.203e-4
-1.358, 4.262e-4
-1.359, 4.321e-4
-1.360, 4.383e-4
-1.361, 4.446e-4
-1.362, 4.507e-4
-1.363, 4.561e-4
-1.364, 4.626e-4
-1.365, 4.690e-4
-1.366, 4.752e-4
-1.367, 4.815e-4
-1.368, 4.874e-4
-1.369, 4.942e-4
-1.370, 5.005e-4
-1.371, 5.064e-4
-1.372, 5.127e-4
-1.373, 5.189e-4
-1.374, 5.250e-4
-1.375, 5.312e-4
-1.376, 5.377e-4
-1.377, 5.437e-4
-1.378, 5.501e-4
-1.379, 5.568e-4
-1.380, 5.640e-4
-1.381, 5.704e-4
-1.382, 5.769e-4
-1.383, 5.836e-4
-1.384, 5.895e-4
-1.385, 5.961e-4
-1.386, 6.033e-4
-1.387, 6.092e-4
-1.388, 6.153e-4
-1.389, 6.214e-4
-1.390, 6.276e-4
-1.391, 6.342e-4
-1.392, 6.404e-4
-1.393, 6.472e-4
-1.394, 6.539e-4
-1.395, 6.607e-4
-1.396, 6.674e-4
-1.397, 6.732e-4
-1.398, 6.801e-4
-1.399, 6.861e-4
-1.400, 6.922e-4
-1.401, 6.990e-4
-1.402, 7.054e-4
-1.403, 7.122e-4
-1.404, 7.176e-4
-1.405, 7.233e-4
-1.406, 7.298e-4
-1.407, 7.360e-4
-1.408, 7.427e-4
-1.409, 7.506e-4
-1.410, 7.575e-4
-1.411, 7.634e-4
-1.412, 7.709e-4
-1.413, 7.771e-4
-1.414, 7.832e-4
-1.415, 7.895e-4
-1.416, 7.959e-4
-1.417, 8.024e-4
-1.418, 8.095e-4
-1.419, 8.160e-4
-1.420, 8.229e-4
-1.421, 8.289e-4
-1.422, 8.352e-4
-1.423, 8.420e-4
-1.424, 8.485e-4
-1.425, 8.554e-4
-1.426, 8.622e-4
-1.427, 8.679e-4
-1.428, 8.748e-4
-1.429, 8.807e-4
-1.430, 8.871e-4
-1.431, 8.944e-4
-1.432, 9.004e-4
-1.433, 9.071e-4
-1.434, 9.144e-4
-1.435, 9.201e-4
-1.436, 9.268e-4
-1.437, 9.341e-4
-1.438, 9.393e-4
-1.439, 9.460e-4
-1.440, 9.527e-4
-1.441, 9.586e-4
-1.442, 9.649e-4
-1.443, 9.717e-4
-1.444, 9.790e-4
-1.445, 9.855e-4
-1.446, 9.925e-4
-1.447, 9.983e-4
-1.448, 1.005e-3
-1.449, 1.011e-3
-1.450, 1.018e-3
-1.451, 1.024e-3
-1.452, 1.031e-3
-1.453, 1.038e-3
-1.454, 1.045e-3
-1.455, 1.051e-3
-1.456, 1.058e-3
-1.457, 1.065e-3
-1.458, 1.071e-3
-1.459, 1.078e-3
-1.460, 1.083e-3
-1.461, 1.090e-3
-1.462, 1.097e-3
-1.463, 1.104e-3
-1.464, 1.110e-3
-1.465, 1.118e-3
-1.466, 1.124e-3
-1.467, 1.131e-3
-1.468, 1.139e-3
-1.469, 1.145e-3
-1.470, 1.151e-3
-1.471, 1.158e-3
-1.472, 1.165e-3
-1.473, 1.172e-3
-1.474, 1.178e-3
-1.475, 1.184e-3
-1.476, 1.192e-3
-1.477, 1.198e-3
-1.478, 1.205e-3
-1.479, 1.211e-3
-1.480, 1.219e-3
-1.481, 1.225e-3
-1.482, 1.231e-3
-1.483, 1.237e-3
-1.484, 1.244e-3
-1.485, 1.253e-3
-1.486, 1.260e-3
-1.487, 1.267e-3
-1.488, 1.275e-3
-1.489, 1.281e-3
-1.490, 1.288e-3
-1.491, 1.295e-3
-1.492, 1.302e-3
-1.493, 1.309e-3
-1.494, 1.314e-3
-1.495, 1.320e-3
-1.496, 1.329e-3
-1.497, 1.337e-3
-1.498, 1.345e-3
-1.499, 1.352e-3
-1.500, 1.360e-3
-1.501, 1.367e-3
-1.502, 1.375e-3
-1.503, 1.382e-3
-1.504, 1.389e-3
-1.505, 1.396e-3
-1.506, 1.405e-3
-1.507, 1.412e-3
-1.508, 1.420e-3
-1.509, 1.426e-3
-1.510, 1.434e-3
-1.511, 1.442e-3
-1.512, 1.451e-3
-1.513, 1.458e-3
-1.514, 1.462e-3
-1.515, 1.469e-3
-1.516, 1.477e-3
-1.517, 1.486e-3
-1.518, 1.496e-3
-1.519, 1.504e-3
-1.520, 1.512e-3
-1.521, 1.521e-3
-1.522, 1.529e-3
-1.523, 1.538e-3
-1.524, 1.547e-3
-1.525, 1.553e-3
-1.526, 1.561e-3
-1.527, 1.569e-3
-1.528, 1.577e-3
-1.529, 1.586e-3
-1.530, 1.595e-3
-1.531, 1.605e-3
-1.532, 1.614e-3
-1.533, 1.623e-3
-1.534, 1.631e-3
-1.535, 1.639e-3
-1.536, 1.649e-3
-1.537, 1.657e-3
-1.538, 1.668e-3
-1.539, 1.676e-3
-1.540, 1.685e-3
-1.541, 1.696e-3
-1.542, 1.704e-3
-1.543, 1.712e-3
-1.544, 1.723e-3
-1.545, 1.733e-3
-1.546, 1.741e-3
-1.547, 1.750e-3
-1.548, 1.761e-3
-1.549, 1.771e-3
-1.550, 1.782e-3
-1.551, 1.793e-3
-1.552, 1.802e-3
-1.553, 1.814e-3
-1.554, 1.823e-3
-1.555, 1.835e-3
-1.556, 1.843e-3
-1.557, 1.855e-3
-1.558, 1.864e-3
-1.559, 1.878e-3
-1.560, 1.889e-3
-1.561, 1.901e-3
-1.562, 1.915e-3
-1.563, 1.922e-3
-1.564, 1.934e-3
-1.565, 1.946e-3
-1.566, 1.954e-3
-1.567, 1.966e-3
-1.568, 1.979e-3
-1.569, 1.994e-3
-1.570, 2.008e-3
-1.571, 2.022e-3
-1.572, 2.033e-3
-1.573, 2.047e-3
-1.574, 2.060e-3
-1.575, 2.071e-3
-1.576, 2.085e-3
-1.577, 2.098e-3
-1.578, 2.111e-3
-1.579, 2.124e-3
-1.580, 2.140e-3
-1.581, 2.156e-3
-1.582, 2.168e-3
-1.583, 2.183e-3
-1.584, 2.196e-3
-1.585, 2.210e-3
-1.586, 2.227e-3
-1.587, 2.241e-3
-1.588, 2.255e-3
-1.589, 2.274e-3
-1.590, 2.290e-3
-1.591, 2.305e-3
-1.592, 2.320e-3
-1.593, 2.337e-3
-1.594, 2.352e-3
-1.595, 2.367e-3
-1.596, 2.381e-3
-1.597, 2.403e-3
-1.598, 2.421e-3
-1.599, 2.438e-3
-1.600, 2.458e-3
-1.601, 2.473e-3
-1.602, 2.493e-3
-1.603, 2.512e-3
-1.604, 2.534e-3
-1.605, 2.552e-3
-1.606, 2.570e-3
-1.607, 2.591e-3
-1.608, 2.605e-3
-1.609, 2.626e-3
-1.610, 2.646e-3
-1.611, 2.665e-3
-1.612, 2.686e-3
-1.613, 2.711e-3
-1.614, 2.731e-3
-1.615, 2.755e-3
-1.616, 2.772e-3
-1.617, 2.796e-3
-1.618, 2.813e-3
-1.619, 2.840e-3
-1.620, 2.861e-3
-1.621, 2.877e-3
-1.622, 2.904e-3
-1.623, 2.928e-3
-1.624, 2.952e-3
-1.625, 2.971e-3
-1.626, 2.993e-3
-1.627, 3.019e-3
-1.628, 3.044e-3
-1.629, 3.074e-3
-1.630, 3.099e-3
-1.631, 3.126e-3
-1.632, 3.149e-3
-1.633, 3.178e-3
-1.634, 3.215e-3
-1.635, 3.237e-3
-1.636, 3.263e-3
-1.637, 3.288e-3
-1.638, 3.315e-3
-1.639, 3.340e-3
-1.640, 3.363e-3
-1.641, 3.392e-3
-1.642, 3.415e-3
-1.643, 3.448e-3
-1.644, 3.483e-3
-1.645, 3.516e-3
-1.646, 3.552e-3
-1.647, 3.582e-3
-1.648, 3.617e-3
-1.649, 3.648e-3
-1.650, 3.677e-3
-1.651, 3.708e-3
-1.652, 3.737e-3
-1.653, 3.763e-3
-1.654, 3.791e-3
-1.655, 3.826e-3
-1.656, 3.864e-3
-1.657, 3.903e-3
-1.658, 3.939e-3
-1.659, 3.970e-3
-1.660, 4.005e-3
-1.661, 4.038e-3
-1.662, 4.069e-3
-1.663, 4.104e-3
-1.664, 4.151e-3
-1.665, 4.182e-3
-1.666, 4.217e-3
-1.667, 4.260e-3
-1.668, 4.298e-3
-1.669, 4.333e-3
-1.670, 4.367e-3
-1.671, 4.402e-3
-1.672, 4.430e-3
-1.673, 4.465e-3
-1.674, 4.496e-3
-1.675, 4.531e-3
-1.676, 4.580e-3
-1.677, 4.631e-3
-1.678, 4.676e-3
-1.679, 4.713e-3
-1.680, 4.746e-3
-1.681, 4.812e-3
-1.682, 4.847e-3
-1.683, 4.873e-3
-1.684, 4.915e-3
-1.685, 4.961e-3
-1.686, 4.997e-3
-1.687, 5.044e-3
-1.688, 5.091e-3
-1.689, 5.130e-3
-1.690, 5.182e-3
-1.691, 5.231e-3
-1.692, 5.258e-3
-1.693, 5.308e-3
-1.694, 5.358e-3
-1.695, 5.402e-3
-1.696, 5.444e-3
-1.697, 5.502e-3
-1.698, 5.552e-3
-1.699, 5.606e-3
-1.700, 5.606e-3
-1.699, 5.550e-3
-1.698, 5.501e-3
-1.697, 5.453e-3
-1.696, 5.409e-3
-1.695, 5.362e-3
-1.694, 5.304e-3
-1.693, 5.254e-3
-1.692, 5.201e-3
-1.691, 5.157e-3
-1.690, 5.102e-3
-1.689, 5.067e-3
-1.688, 5.018e-3
-1.687, 4.963e-3
-1.686, 4.913e-3
-1.685, 4.860e-3
-1.684, 4.802e-3
-1.683, 4.751e-3
-1.682, 4.710e-3
-1.681, 4.661e-3
-1.680, 4.610e-3
-1.679, 4.568e-3
-1.678, 4.518e-3
-1.677, 4.467e-3
-1.676, 4.416e-3
-1.675, 4.368e-3
-1.674, 4.320e-3
-1.673, 4.280e-3
-1.672, 4.237e-3
-1.671, 4.191e-3
-1.670, 4.155e-3
-1.669, 4.103e-3
-1.668, 4.053e-3
-1.667, 4.006e-3
-1.666, 3.964e-3
-1.665, 3.924e-3
-1.664, 3.861e-3
-1.663, 3.804e-3
-1.662, 3.762e-3
-1.661, 3.719e-3
-1.660, 3.682e-3
-1.659, 3.642e-3
-1.658, 3.599e-3
-1.657, 3.557e-3
-1.656, 3.518e-3
-1.655, 3.486e-3
-1.654, 3.444e-3
-1.653, 3.407e-3
-1.652, 3.363e-3
-1.651, 3.322e-3
-1.650, 3.274e-3
-1.649, 3.230e-3
-1.648, 3.191e-3
-1.647, 3.158e-3
-1.646, 3.122e-3
-1.645, 3.088e-3
-1.644, 3.051e-3
-1.643, 3.016e-3
-1.642, 2.974e-3
-1.641, 2.932e-3
-1.640, 2.893e-3
-1.639, 2.858e-3
-1.638, 2.826e-3
-1.637, 2.796e-3
-1.636, 2.763e-3
-1.635, 2.732e-3
-1.634, 2.698e-3
-1.633, 2.662e-3
-1.632, 2.629e-3
-1.631, 2.595e-3
-1.630, 2.562e-3
-1.629, 2.529e-3
-1.628, 2.497e-3
-1.627, 2.469e-3
-1.626, 2.441e-3
-1.625, 2.411e-3
-1.624, 2.381e-3
-1.623, 2.352e-3
-1.622, 2.321e-3
-1.621, 2.292e-3
-1.620, 2.265e-3
-1.619, 2.235e-3
-1.618, 2.223e-3
-1.617, 2.191e-3
-1.616, 2.165e-3
-1.615, 2.137e-3
-1.614, 2.112e-3
-1.613, 2.084e-3
-1.612, 2.058e-3
-1.611, 2.035e-3
-1.610, 2.008e-3
-1.609, 1.984e-3
-1.608, 1.959e-3
-1.607, 1.936e-3
-1.606, 1.910e-3
-1.605, 1.886e-3
-1.604, 1.863e-3
-1.603, 1.842e-3
-1.602, 1.819e-3
-1.601, 1.799e-3
-1.600, 1.776e-3
-1.599, 1.755e-3
-1.598, 1.734e-3
-1.597, 1.714e-3
-1.596, 1.694e-3
-1.595, 1.674e-3
-1.594, 1.655e-3
-1.593, 1.635e-3
-1.592, 1.618e-3
-1.591, 1.603e-3
-1.590, 1.582e-3
-1.589, 1.565e-3
-1.588, 1.545e-3
-1.587, 1.528e-3
-1.586, 1.511e-3
-1.585, 1.494e-3
-1.584, 1.476e-3
-1.583, 1.457e-3
-1.582, 1.440e-3
-1.581, 1.426e-3
-1.580, 1.410e-3
-1.579, 1.397e-3
-1.578, 1.381e-3
-1.577, 1.366e-3
-1.576, 1.352e-3
-1.575, 1.337e-3
-1.574, 1.327e-3
-1.573, 1.311e-3
-1.572, 1.297e-3
-1.571, 1.282e-3
-1.570, 1.268e-3
-1.569, 1.256e-3
-1.568, 1.240e-3
-1.567, 1.226e-3
-1.566, 1.214e-3
-1.565, 1.202e-3
-1.564, 1.192e-3
-1.563, 1.181e-3
-1.562, 1.167e-3
-1.561, 1.155e-3
-1.560, 1.144e-3
-1.559, 1.134e-3
-1.558, 1.122e-3
-1.557, 1.109e-3
-1.556, 1.098e-3
-1.555, 1.087e-3
-1.554, 1.076e-3
-1.553, 1.066e-3
-1.552, 1.056e-3
-1.551, 1.044e-3
-1.550, 1.034e-3
-1.549, 1.024e-3
-1.548, 1.014e-3
-1.547, 1.005e-3
-1.546, 9.974e-4
-1.545, 9.872e-4
-1.544, 9.777e-4
-1.543, 9.679e-4
-1.542, 9.601e-4
-1.541, 9.535e-4
-1.540, 9.445e-4
-1.539, 9.345e-4
-1.538, 9.252e-4
-1.537, 9.165e-4
-1.536, 9.085e-4
-1.535, 8.994e-4
-1.534, 8.911e-4
-1.533, 8.828e-4
-1.532, 8.753e-4
-1.531, 8.668e-4
-1.530, 8.598e-4
-1.529, 8.505e-4
-1.528, 8.433e-4
-1.527, 8.351e-4
-1.526, 8.283e-4
-1.525, 8.206e-4
-1.524, 8.129e-4
-1.523, 8.050e-4
-1.522, 7.977e-4
-1.521, 7.901e-4
-1.520, 7.827e-4
-1.519, 7.752e-4
-1.518, 7.679e-4
-1.517, 7.609e-4
-1.516, 7.550e-4
-1.515, 7.478e-4
-1.514, 7.411e-4
-1.513, 7.339e-4
-1.512, 7.281e-4
-1.511, 7.213e-4
-1.510, 7.142e-4
-1.509, 7.079e-4
-1.508, 7.013e-4
-1.507, 6.946e-4
-1.506, 6.888e-4
-1.505, 6.821e-4
-1.504, 6.760e-4
-1.503, 6.696e-4
-1.502, 6.632e-4
-1.501, 6.574e-4
-1.500, 6.509e-4
-1.499, 6.448e-4
-1.498, 6.387e-4
-1.497, 6.322e-4
-1.496, 6.269e-4
-1.495, 6.205e-4
-1.494, 6.149e-4
-1.493, 6.092e-4
-1.492, 6.034e-4
-1.491, 5.978e-4
-1.490, 5.922e-4
-1.489, 5.859e-4
-1.488, 5.807e-4
-1.487, 5.753e-4
-1.486, 5.690e-4
-1.485, 5.631e-4
-1.484, 5.573e-4
-1.483, 5.522e-4
-1.482, 5.467e-4
-1.481, 5.422e-4
-1.480, 5.373e-4
-1.479, 5.312e-4
-1.478, 5.257e-4
-1.477, 5.209e-4
-1.476, 5.155e-4
-1.475, 5.103e-4
-1.474, 5.050e-4
-1.473, 5.000e-4
-1.472, 4.942e-4
-1.471, 4.889e-4
-1.470, 4.835e-4
-1.469, 4.792e-4
-1.468, 4.738e-4
-1.467, 4.688e-4
-1.466, 4.643e-4
-1.465, 4.591e-4
-1.464, 4.539e-4
-1.463, 4.484e-4
-1.462, 4.433e-4
-1.461, 4.386e-4
-1.460, 4.331e-4
-1.459, 4.284e-4
-1.458, 4.237e-4
-1.457, 4.187e-4
-1.456, 4.140e-4
-1.455, 4.097e-4
-1.454, 4.046e-4
-1.453, 4.000e-4
-1.452, 3.949e-4
-1.451, 3.910e-4
-1.450, 3.863e-4
-1.449, 3.814e-4
-1.448, 3.760e-4
-1.447, 3.719e-4
-1.446, 3.671e-4
-1.445, 3.622e-4
-1.444, 3.579e-4
-1.443, 3.536e-4
-1.442, 3.491e-4
-1.441, 3.441e-4
-1.440, 3.396e-4
-1.439, 3.351e-4
-1.438, 3.302e-4
-1.437, 3.257e-4
-1.436, 3.223e-4
-1.435, 3.181e-4
-1.434, 3.132e-4
-1.433, 3.090e-4
-1.432, 3.046e-4
-1.431, 3.006e-4
-1.430, 2.966e-4
-1.429, 2.924e-4
-1.428, 2.880e-4
-1.427, 2.839e-4
-1.426, 2.799e-4
-1.425, 2.758e-4
-1.424, 2.718e-4
-1.423, 2.679e-4
-1.422, 2.641e-4
-1.421, 2.608e-4
-1.420, 2.568e-4
-1.419, 2.529e-4
-1.418, 2.491e-4
-1.417, 2.452e-4
-1.416, 2.418e-4
-1.415, 2.384e-4
-1.414, 2.346e-4
-1.413, 2.312e-4
-1.412, 2.276e-4
-1.411, 2.242e-4
-1.410, 2.209e-4
-1.409, 2.173e-4
-1.408, 2.137e-4
-1.407, 2.104e-4
-1.406, 2.071e-4
-1.405, 2.040e-4
-1.404, 2.007e-4
-1.403, 1.972e-4
-1.402, 1.943e-4
-1.401, 1.910e-4
-1.400, 1.879e-4
-1.399, 1.846e-4
-1.398, 1.814e-4
-1.397, 1.788e-4
-1.396, 1.759e-4
-1.395, 1.729e-4
-1.394, 1.700e-4
-1.393, 1.670e-4
-1.392, 1.643e-4
-1.391, 1.618e-4
-1.390, 1.590e-4
-1.389, 1.562e-4
-1.388, 1.533e-4
-1.387, 1.507e-4
-1.386, 1.481e-4
-1.385, 1.456e-4
-1.384, 1.431e-4
-1.383, 1.406e-4
-1.382, 1.378e-4
-1.381, 1.356e-4
-1.380, 1.332e-4
-1.379, 1.306e-4
-1.378, 1.282e-4
-1.377, 1.257e-4
-1.376, 1.235e-4
-1.375, 1.212e-4
-1.374, 1.188e-4
-1.373, 1.166e-4
-1.372, 1.147e-4
-1.371, 1.124e-4
-1.370, 1.103e-4
-1.369, 1.081e-4
-1.368, 1.061e-4
-1.367, 1.042e-4
-1.366, 1.021e-4
-1.365, 1.001e-4
-1.364, 9.811e-5
-1.363, 9.606e-5
-1.362, 9.414e-5
-1.361, 9.228e-5
-1.360, 9.073e-5
-1.359, 8.873e-5
-1.358, 8.679e-5
-1.357, 8.501e-5
-1.356, 8.347e-5
-1.355, 8.176e-5
-1.354, 8.002e-5
-1.353, 7.814e-5
-1.352, 7.661e-5
-1.351, 7.502e-5
-1.350, 7.323e-5
-1.349, 7.187e-5
-1.348, 7.023e-5
-1.347, 6.868e-5
-1.346, 6.750e-5
-1.345, 6.579e-5
-1.344, 6.440e-5
-1.343, 6.293e-5
-1.342, 6.142e-5
-1.341, 6.023e-5
-1.340, 5.893e-5
-1.339, 5.757e-5
-1.338, 5.600e-5
-1.337, 5.459e-5
-1.336, 5.350e-5
-1.335, 5.231e-5
-1.334, 5.087e-5
-1.333, 4.966e-5
-1.332, 4.844e-5
-1.331, 4.701e-5
-1.330, 4.599e-5
-1.329, 4.468e-5
-1.328, 4.356e-5
-1.327, 4.251e-5
-1.326, 4.127e-5
-1.325, 4.023e-5
-1.324, 3.908e-5
-1.323, 3.776e-5
-1.322, 3.679e-5
-1.321, 3.561e-5
-1.320, 3.487e-5
-1.319, 3.379e-5
-1.318, 3.247e-5
-1.317, 3.158e-5
-1.316, 3.075e-5
-1.315, 2.966e-5
-1.314, 2.876e-5
-1.313, 2.764e-5
-1.312, 2.681e-5
-1.311, 2.596e-5
-1.310, 2.496e-5
-1.309, 2.415e-5
-1.308, 2.317e-5
-1.307, 2.232e-5
-1.306, 2.159e-5
-1.305, 2.072e-5
-1.304, 1.987e-5
-1.303, 1.908e-5
-1.302, 1.808e-5
-1.301, 1.760e-5
-1.300, 1.681e-5
-1.299, 1.574e-5
-1.298, 1.507e-5
-1.297, 1.429e-5
-1.296, 1.382e-5
-1.295, 1.299e-5
-1.294, 1.238e-5
-1.293, 1.153e-5
-1.292, 1.086e-5
-1.291, 1.030e-5
-1.290, 9.677e-6
-1.289, 8.818e-6
-1.288, 8.276e-6
-1.287, 7.693e-6
-1.286, 6.983e-6
-1.285, 6.598e-6
-1.284, 5.770e-6
-1.283, 5.188e-6
-1.282, 4.744e-6
-1.281, 4.152e-6
-1.280, 3.392e-6
-1.279, 2.889e-6
-1.278, 2.277e-6
-1.277, 1.813e-6
-1.276, 1.330e-6
-1.275, 1.004e-6
-1.274, 2.940e-7
-1.273, -3.177e-7
-1.272, -5.742e-7
-1.271, -1.028e-6
-1.270, -1.590e-6
-1.269, -2.054e-6
-1.268, -2.577e-6
-1.267, -3.120e-6
-1.266, -3.366e-6
-1.265, -3.929e-6
-1.264, -4.274e-6
-1.263, -4.728e-6
-1.262, -5.330e-6
-1.261, -5.418e-6
-1.260, -5.843e-6
-1.259, -6.444e-6
-1.258, -6.879e-6
-1.257, -7.244e-6
-1.256, -7.382e-6
-1.255, -7.826e-6
-1.254, -8.358e-6
-1.253, -8.714e-6
-1.252, -9.128e-6
-1.251, -9.345e-6
-1.250, -9.641e-6
-1.249, -1.009e-5
-1.248, -1.041e-5
-1.247, -1.064e-5
-1.246, -1.101e-5
-1.245, -1.124e-5
-1.244, -1.155e-5
-1.243, -1.201e-5
-1.242, -1.220e-5
-1.241, -1.267e-5
-1.240, -1.280e-5
-1.239, -1.309e-5
-1.238, -1.356e-5
-1.237, -1.373e-5
-1.236, -1.378e-5
-1.235, -1.418e-5
-1.234, -1.448e-5
-1.233, -1.491e-5
-1.232, -1.496e-5
-1.231, -1.514e-5
-1.230, -1.548e-5
-1.229, -1.620e-5
-1.228, -1.624e-5
-1.227, -1.648e-5
-1.226, -1.644e-5
-1.225, -1.677e-5
-1.224, -1.694e-5
-1.223, -1.724e-5
-1.222, -1.744e-5
-1.221, -1.751e-5
-1.220, -1.772e-5
-1.219, -1.818e-5
-1.218, -1.816e-5
-1.217, -1.855e-5
-1.216, -1.857e-5
-1.215, -1.871e-5
-1.214, -1.913e-5
-1.213, -1.926e-5
-1.212, -1.943e-5
-1.211, -1.966e-5
-1.210, -1.973e-5
-1.209, -2.008e-5
-1.208, -2.024e-5
-1.207, -2.034e-5
-1.206, -2.059e-5
-1.205, -2.051e-5
-1.204, -2.095e-5
-1.203, -2.129e-5
-1.202, -2.139e-5
-1.201, -2.150e-5
-1.200, -2.152e-5
-1.199, -2.181e-5
-1.198, -2.214e-5
-1.197, -2.204e-5
-1.196, -2.218e-5
-1.195, -2.229e-5
-1.194, -2.245e-5
-1.193, -2.274e-5
-1.192, -2.279e-5
-1.191, -2.286e-5
-1.190, -2.309e-5
-1.189, -2.320e-5
-1.188, -2.334e-5
-1.187, -2.361e-5
-1.186, -2.347e-5
-1.185, -2.381e-5
-1.184, -2.369e-5
-1.183, -2.397e-5
-1.182, -2.415e-5
-1.181, -2.408e-5
-1.180, -2.428e-5
-1.179, -2.459e-5
-1.178, -2.479e-5
-1.177, -2.487e-5
-1.176, -2.483e-5
-1.175, -2.495e-5
-1.174, -2.531e-5
-1.173, -2.530e-5
-1.172, -2.537e-5
-1.171, -2.544e-5
-1.170, -2.556e-5
-1.169, -2.580e-5
-1.168, -2.576e-5
-1.167, -2.595e-5
-1.166, -2.617e-5
-1.165, -2.609e-5
-1.164, -2.658e-5
-1.163, -2.667e-5
-1.162, -2.656e-5
-1.161, -2.679e-5
-1.160, -2.679e-5
-1.159, -2.701e-5
-1.158, -2.732e-5
-1.157, -2.720e-5
-1.156, -2.727e-5
-1.155, -2.746e-5
-1.154, -2.761e-5
-1.153, -2.790e-5
-1.152, -2.778e-5
-1.151, -2.792e-5
-1.150, -2.831e-5
-1.149, -2.825e-5
-1.148, -2.846e-5
-1.147, -2.862e-5
-1.146, -2.856e-5
-1.145, -2.873e-5
-1.144, -2.909e-5
-1.143, -2.906e-5
-1.142, -2.926e-5
-1.141, -2.917e-5
-1.140, -2.937e-5
-1.139, -2.982e-5
-1.138, -2.972e-5
-1.137, -2.995e-5
-1.136, -2.994e-5
-1.135, -3.006e-5
-1.134, -3.053e-5
-1.133, -3.051e-5
-1.132, -3.058e-5
-1.131, -3.074e-5
-1.130, -3.078e-5
-1.129, -3.116e-5
-1.128, -3.124e-5
-1.127, -3.124e-5
-1.126, -3.155e-5
-1.125, -3.156e-5
-1.124, -3.174e-5
-1.123, -3.215e-5
-1.122, -3.209e-5
-1.121, -3.227e-5
-1.120, -3.233e-5
-1.119, -3.251e-5
-1.118, -3.298e-5
-1.117, -3.293e-5
-1.116, -3.307e-5
-1.115, -3.312e-5
-1.114, -3.356e-5
-1.113, -3.377e-5
-1.112, -3.370e-5
-1.111, -3.382e-5
-1.110, -3.401e-5
-1.109, -3.419e-5
-1.108, -3.444e-5
-1.107, -3.466e-5
-1.106, -3.463e-5
-1.105, -3.499e-5
-1.104, -3.513e-5
-1.103, -3.541e-5
-1.102, -3.558e-5
-1.101, -3.562e-5
-1.100, -3.579e-5
-1.099, -3.610e-5
-1.098, -3.620e-5
-1.097, -3.653e-5
-1.096, -3.652e-5
-1.095, -3.680e-5
-1.094, -3.712e-5
-1.093, -3.715e-5
-1.092, -3.744e-5
-1.091, -3.754e-5
-1.090, -3.772e-5
-1.089, -3.803e-5
-1.088, -3.826e-5
-1.087, -3.840e-5
-1.086, -3.858e-5
-1.085, -3.859e-5
-1.084, -3.900e-5
-1.083, -3.924e-5
-1.082, -3.917e-5
-1.081, -3.954e-5
-1.080, -3.950e-5
-1.079, -3.988e-5
-1.078, -4.025e-5
-1.077, -4.024e-5
-1.076, -4.059e-5
-1.075, -4.083e-5
-1.074, -4.100e-5
-1.073, -4.147e-5
-1.072, -4.155e-5
-1.071, -4.168e-5
-1.070, -4.196e-5
-1.069, -4.211e-5
-1.068, -4.247e-5
-1.067, -4.272e-5
-1.066, -4.283e-5
-1.065, -4.306e-5
-1.064, -4.335e-5
-1.063, -4.369e-5
-1.062, -4.411e-5
-1.061, -4.418e-5
-1.060, -4.437e-5
-1.059, -4.487e-5
-1.058, -4.505e-5
-1.057, -4.541e-5
-1.056, -4.560e-5
-1.055, -4.569e-5
-1.054, -4.634e-5
-1.053, -4.642e-5
-1.052, -4.683e-5
-1.051, -4.715e-5
-1.050, -4.744e-5
-1.049, -4.808e-5
-1.048, -4.838e-5
-1.047, -4.870e-5
-1.046, -4.901e-5
-1.045, -4.913e-5
-1.044, -4.976e-5
-1.043, -5.031e-5
-1.042, -5.027e-5
-1.041, -5.066e-5
-1.040, -5.101e-5
-1.039, -5.154e-5
-1.038, -5.206e-5
-1.037, -5.232e-5
-1.036, -5.270e-5
-1.035, -5.301e-5
-1.034, -5.340e-5
-1.033, -5.387e-5
-1.032, -5.412e-5
-1.031, -5.439e-5
-1.030, -5.498e-5
-1.029, -5.528e-5
-1.028, -5.565e-5
-1.027, -5.609e-5
-1.026, -5.630e-5
-1.025, -5.683e-5
-1.024, -5.739e-5
-1.023, -5.787e-5
-1.022, -5.807e-5
-1.021, -5.821e-5
-1.020, -5.860e-5
-1.019, -5.913e-5
-1.018, -5.956e-5
-1.017, -5.977e-5
-1.016, -6.005e-5
-1.015, -6.036e-5
-1.014, -6.100e-5
-1.013, -6.130e-5
-1.012, -6.141e-5
-1.011, -6.194e-5
-1.010, -6.242e-5
-1.009, -6.258e-5
-1.008, -6.285e-5
-1.007, -6.310e-5
-1.006, -6.349e-5
-1.005, -6.373e-5
-1.004, -6.407e-5
-1.003, -6.427e-5
-1.002, -6.455e-5
-1.001, -6.480e-5
