June 26, 2026   08:32:05
Cyclic Voltammetry
File: c:/users/guazh/data/20260623_doe_duplica2/2026-06-24-exp13\exp13-2026-06-26t08_14_24-arkoh\exp13_cv_sr_100mvs_efin_-1700mv.bin
Data Source:  Experiment
Instrument Model:  CHI760E
Header: CV ran at 100 mVs
Note: 

Init E (V) = -1
High E (V) = -1
Low E (V) = -1.7
Final E (V) = -1
Init P/N = N
Scan Rate (V/s) = 0.1
Segment = 3
Sample Interval (V) = 0.001
Quiet Time (sec) = 2
Sensitivity (A/V) = 0.01
Comp R (ohm) = 1.4

Results:

Channel 1:
Segment 1:

Segment 2:

Segment 3:

Potential/V, Current/A

-1.000, 1.573e-5
-1.001, 2.613e-5
-1.002, 2.732e-5
-1.003, 2.764e-5
-1.004, 2.827e-5
-1.005, 2.843e-5
-1.006, 2.854e-5
-1.007, 2.911e-5
-1.008, 2.907e-5
-1.009, 2.944e-5
-1.010, 2.942e-5
-1.011, 2.950e-5
-1.012, 3.010e-5
-1.013, 2.980e-5
-1.014, 2.991e-5
-1.015, 3.027e-5
-1.016, 3.007e-5
-1.017, 3.038e-5
-1.018, 3.022e-5
-1.019, 3.028e-5
-1.020, 3.063e-5
-1.021, 3.041e-5
-1.022, 3.074e-5
-1.023, 3.059e-5
-1.024, 3.088e-5
-1.025, 3.080e-5
-1.026, 3.087e-5
-1.027, 3.082e-5
-1.028, 3.104e-5
-1.029, 3.079e-5
-1.030, 3.116e-5
-1.031, 3.106e-5
-1.032, 3.115e-5
-1.033, 3.102e-5
-1.034, 3.125e-5
-1.035, 3.115e-5
-1.036, 3.124e-5
-1.037, 3.120e-5
-1.038, 3.112e-5
-1.039, 3.155e-5
-1.040, 3.130e-5
-1.041, 3.110e-5
-1.042, 3.141e-5
-1.043, 3.147e-5
-1.044, 3.150e-5
-1.045, 3.141e-5
-1.046, 3.126e-5
-1.047, 3.179e-5
-1.048, 3.130e-5
-1.049, 3.134e-5
-1.050, 3.169e-5
-1.051, 3.147e-5
-1.052, 3.196e-5
-1.053, 3.146e-5
-1.054, 3.169e-5
-1.055, 3.190e-5
-1.056, 3.166e-5
-1.057, 3.175e-5
-1.058, 3.194e-5
-1.059, 3.185e-5
-1.060, 3.173e-5
-1.061, 3.171e-5
-1.062, 3.187e-5
-1.063, 3.209e-5
-1.064, 3.174e-5
-1.065, 3.196e-5
-1.066, 3.172e-5
-1.067, 3.184e-5
-1.068, 3.195e-5
-1.069, 3.173e-5
-1.070, 3.202e-5
-1.071, 3.188e-5
-1.072, 3.168e-5
-1.073, 3.185e-5
-1.074, 3.214e-5
-1.075, 3.227e-5
-1.076, 3.218e-5
-1.077, 3.203e-5
-1.078, 3.211e-5
-1.079, 3.223e-5
-1.080, 3.185e-5
-1.081, 3.222e-5
-1.082, 3.230e-5
-1.083, 3.208e-5
-1.084, 3.207e-5
-1.085, 3.226e-5
-1.086, 3.200e-5
-1.087, 3.228e-5
-1.088, 3.217e-5
-1.089, 3.195e-5
-1.090, 3.225e-5
-1.091, 3.206e-5
-1.092, 3.234e-5
-1.093, 3.228e-5
-1.094, 3.208e-5
-1.095, 3.232e-5
-1.096, 3.221e-5
-1.097, 3.216e-5
-1.098, 3.244e-5
-1.099, 3.206e-5
-1.100, 3.243e-5
-1.101, 3.228e-5
-1.102, 3.231e-5
-1.103, 3.241e-5
-1.104, 3.215e-5
-1.105, 3.244e-5
-1.106, 3.246e-5
-1.107, 3.233e-5
-1.108, 3.249e-5
-1.109, 3.237e-5
-1.110, 3.222e-5
-1.111, 3.251e-5
-1.112, 3.241e-5
-1.113, 3.237e-5
-1.114, 3.235e-5
-1.115, 3.250e-5
-1.116, 3.244e-5
-1.117, 3.252e-5
-1.118, 3.245e-5
-1.119, 3.246e-5
-1.120, 3.226e-5
-1.121, 3.243e-5
-1.122, 3.263e-5
-1.123, 3.227e-5
-1.124, 3.249e-5
-1.125, 3.242e-5
-1.126, 3.235e-5
-1.127, 3.280e-5
-1.128, 3.259e-5
-1.129, 3.243e-5
-1.130, 3.279e-5
-1.131, 3.243e-5
-1.132, 3.277e-5
-1.133, 3.265e-5
-1.134, 3.244e-5
-1.135, 3.283e-5
-1.136, 3.245e-5
-1.137, 3.250e-5
-1.138, 3.279e-5
-1.139, 3.251e-5
-1.140, 3.265e-5
-1.141, 3.253e-5
-1.142, 3.274e-5
-1.143, 3.286e-5
-1.144, 3.245e-5
-1.145, 3.268e-5
-1.146, 3.258e-5
-1.147, 3.271e-5
-1.148, 3.300e-5
-1.149, 3.255e-5
-1.150, 3.280e-5
-1.151, 3.277e-5
-1.152, 3.291e-5
-1.153, 3.271e-5
-1.154, 3.302e-5
-1.155, 3.279e-5
-1.156, 3.314e-5
-1.157, 3.284e-5
-1.158, 3.294e-5
-1.159, 3.310e-5
-1.160, 3.290e-5
-1.161, 3.288e-5
-1.162, 3.319e-5
-1.163, 3.299e-5
-1.164, 3.306e-5
-1.165, 3.296e-5
-1.166, 3.322e-5
-1.167, 3.324e-5
-1.168, 3.307e-5
-1.169, 3.334e-5
-1.170, 3.335e-5
-1.171, 3.315e-5
-1.172, 3.349e-5
-1.173, 3.347e-5
-1.174, 3.344e-5
-1.175, 3.360e-5
-1.176, 3.327e-5
-1.177, 3.373e-5
-1.178, 3.378e-5
-1.179, 3.348e-5
-1.180, 3.402e-5
-1.181, 3.376e-5
-1.182, 3.377e-5
-1.183, 3.408e-5
-1.184, 3.384e-5
-1.185, 3.409e-5
-1.186, 3.405e-5
-1.187, 3.403e-5
-1.188, 3.432e-5
-1.189, 3.419e-5
-1.190, 3.442e-5
-1.191, 3.453e-5
-1.192, 3.443e-5
-1.193, 3.459e-5
-1.194, 3.481e-5
-1.195, 3.466e-5
-1.196, 3.482e-5
-1.197, 3.488e-5
-1.198, 3.497e-5
-1.199, 3.530e-5
-1.200, 3.508e-5
-1.201, 3.524e-5
-1.202, 3.562e-5
-1.203, 3.539e-5
-1.204, 3.573e-5
-1.205, 3.563e-5
-1.206, 3.592e-5
-1.207, 3.599e-5
-1.208, 3.593e-5
-1.209, 3.596e-5
-1.210, 3.651e-5
-1.211, 3.628e-5
-1.212, 3.679e-5
-1.213, 3.660e-5
-1.214, 3.676e-5
-1.215, 3.723e-5
-1.216, 3.702e-5
-1.217, 3.750e-5
-1.218, 3.756e-5
-1.219, 3.752e-5
-1.220, 3.797e-5
-1.221, 3.775e-5
-1.222, 3.813e-5
-1.223, 3.844e-5
-1.224, 3.851e-5
-1.225, 3.866e-5
-1.226, 3.900e-5
-1.227, 3.912e-5
-1.228, 3.959e-5
-1.229, 4.000e-5
-1.230, 4.013e-5
-1.231, 4.003e-5
-1.232, 4.036e-5
-1.233, 4.070e-5
-1.234, 4.106e-5
-1.235, 4.113e-5
-1.236, 4.155e-5
-1.237, 4.152e-5
-1.238, 4.199e-5
-1.239, 4.233e-5
-1.240, 4.252e-5
-1.241, 4.285e-5
-1.242, 4.316e-5
-1.243, 4.343e-5
-1.244, 4.394e-5
-1.245, 4.414e-5
-1.246, 4.436e-5
-1.247, 4.509e-5
-1.248, 4.519e-5
-1.249, 4.572e-5
-1.250, 4.594e-5
-1.251, 4.625e-5
-1.252, 4.693e-5
-1.253, 4.723e-5
-1.254, 4.766e-5
-1.255, 4.817e-5
-1.256, 4.841e-5
-1.257, 4.895e-5
-1.258, 4.945e-5
-1.259, 4.960e-5
-1.260, 5.050e-5
-1.261, 5.080e-5
-1.262, 5.119e-5
-1.263, 5.210e-5
-1.264, 5.212e-5
-1.265, 5.300e-5
-1.266, 5.358e-5
-1.267, 5.409e-5
-1.268, 5.484e-5
-1.269, 5.517e-5
-1.270, 5.586e-5
-1.271, 5.636e-5
-1.272, 5.702e-5
-1.273, 5.785e-5
-1.274, 5.840e-5
-1.275, 5.902e-5
-1.276, 5.989e-5
-1.277, 6.029e-5
-1.278, 6.120e-5
-1.279, 6.185e-5
-1.280, 6.297e-5
-1.281, 6.340e-5
-1.282, 6.411e-5
-1.283, 6.497e-5
-1.284, 6.591e-5
-1.285, 6.651e-5
-1.286, 6.722e-5
-1.287, 6.857e-5
-1.288, 6.911e-5
-1.289, 6.995e-5
-1.290, 7.079e-5
-1.291, 7.172e-5
-1.292, 7.295e-5
-1.293, 7.365e-5
-1.294, 7.452e-5
-1.295, 7.573e-5
-1.296, 7.651e-5
-1.297, 7.784e-5
-1.298, 7.875e-5
-1.299, 7.968e-5
-1.300, 8.101e-5
-1.301, 8.182e-5
-1.302, 8.302e-5
-1.303, 8.453e-5
-1.304, 8.516e-5
-1.305, 8.641e-5
-1.306, 8.797e-5
-1.307, 8.897e-5
-1.308, 9.028e-5
-1.309, 9.133e-5
-1.310, 9.295e-5
-1.311, 9.412e-5
-1.312, 9.546e-5
-1.313, 9.644e-5
-1.314, 9.817e-5
-1.315, 9.949e-5
-1.316, 1.007e-4
-1.317, 1.022e-4
-1.318, 1.036e-4
-1.319, 1.051e-4
-1.320, 1.065e-4
-1.321, 1.078e-4
-1.322, 1.097e-4
-1.323, 1.110e-4
-1.324, 1.127e-4
-1.325, 1.141e-4
-1.326, 1.156e-4
-1.327, 1.175e-4
-1.328, 1.187e-4
-1.329, 1.204e-4
-1.330, 1.224e-4
-1.331, 1.238e-4
-1.332, 1.258e-4
-1.333, 1.275e-4
-1.334, 1.290e-4
-1.335, 1.311e-4
-1.336, 1.326e-4
-1.337, 1.349e-4
-1.338, 1.368e-4
-1.339, 1.383e-4
-1.340, 1.405e-4
-1.341, 1.422e-4
-1.342, 1.445e-4
-1.343, 1.465e-4
-1.344, 1.480e-4
-1.345, 1.504e-4
-1.346, 1.527e-4
-1.347, 1.545e-4
-1.348, 1.567e-4
-1.349, 1.588e-4
-1.350, 1.611e-4
-1.351, 1.634e-4
-1.352, 1.653e-4
-1.353, 1.677e-4
-1.354, 1.704e-4
-1.355, 1.721e-4
-1.356, 1.747e-4
-1.357, 1.771e-4
-1.358, 1.793e-4
-1.359, 1.820e-4
-1.360, 1.842e-4
-1.361, 1.869e-4
-1.362, 1.897e-4
-1.363, 1.920e-4
-1.364, 1.948e-4
-1.365, 1.973e-4
-1.366, 1.999e-4
-1.367, 2.029e-4
-1.368, 2.055e-4
-1.369, 2.084e-4
-1.370, 2.112e-4
-1.371, 2.139e-4
-1.372, 2.171e-4
-1.373, 2.200e-4
-1.374, 2.227e-4
-1.375, 2.258e-4
-1.376, 2.287e-4
-1.377, 2.320e-4
-1.378, 2.354e-4
-1.379, 2.380e-4
-1.380, 2.419e-4
-1.381, 2.451e-4
-1.382, 2.484e-4
-1.383, 2.519e-4
-1.384, 2.552e-4
-1.385, 2.590e-4
-1.386, 2.625e-4
-1.387, 2.662e-4
-1.388, 2.703e-4
-1.389, 2.741e-4
-1.390, 2.777e-4
-1.391, 2.817e-4
-1.392, 2.857e-4
-1.393, 2.896e-4
-1.394, 2.939e-4
-1.395, 2.979e-4
-1.396, 3.022e-4
-1.397, 3.066e-4
-1.398, 3.105e-4
-1.399, 3.153e-4
-1.400, 3.202e-4
-1.401, 3.245e-4
-1.402, 3.292e-4
-1.403, 3.339e-4
-1.404, 3.391e-4
-1.405, 3.439e-4
-1.406, 3.484e-4
-1.407, 3.539e-4
-1.408, 3.591e-4
-1.409, 3.646e-4
-1.410, 3.701e-4
-1.411, 3.752e-4
-1.412, 3.815e-4
-1.413, 3.868e-4
-1.414, 3.920e-4
-1.415, 3.984e-4
-1.416, 4.042e-4
-1.417, 4.099e-4
-1.418, 4.158e-4
-1.419, 4.221e-4
-1.420, 4.290e-4
-1.421, 4.346e-4
-1.422, 4.408e-4
-1.423, 4.483e-4
-1.424, 4.552e-4
-1.425, 4.620e-4
-1.426, 4.689e-4
-1.427, 4.763e-4
-1.428, 4.837e-4
-1.429, 4.903e-4
-1.430, 4.978e-4
-1.431, 5.055e-4
-1.432, 5.131e-4
-1.433, 5.216e-4
-1.434, 5.295e-4
-1.435, 5.374e-4
-1.436, 5.460e-4
-1.437, 5.541e-4
-1.438, 5.628e-4
-1.439, 5.718e-4
-1.440, 5.801e-4
-1.441, 5.885e-4
-1.442, 5.975e-4
-1.443, 6.067e-4
-1.444, 6.156e-4
-1.445, 6.243e-4
-1.446, 6.335e-4
-1.447, 6.437e-4
-1.448, 6.532e-4
-1.449, 6.628e-4
-1.450, 6.734e-4
-1.451, 6.838e-4
-1.452, 6.941e-4
-1.453, 7.042e-4
-1.454, 7.148e-4
-1.455, 7.260e-4
-1.456, 7.361e-4
-1.457, 7.470e-4
-1.458, 7.582e-4
-1.459, 7.699e-4
-1.460, 7.814e-4
-1.461, 7.928e-4
-1.462, 8.047e-4
-1.463, 8.170e-4
-1.464, 8.291e-4
-1.465, 8.413e-4
-1.466, 8.539e-4
-1.467, 8.663e-4
-1.468, 8.788e-4
-1.469, 8.911e-4
-1.470, 9.048e-4
-1.471, 9.185e-4
-1.472, 9.316e-4
-1.473, 9.445e-4
-1.474, 9.590e-4
-1.475, 9.733e-4
-1.476, 9.876e-4
-1.477, 1.001e-3
-1.478, 1.015e-3
-1.479, 1.030e-3
-1.480, 1.045e-3
-1.481, 1.060e-3
-1.482, 1.075e-3
-1.483, 1.090e-3
-1.484, 1.106e-3
-1.485, 1.123e-3
-1.486, 1.138e-3
-1.487, 1.153e-3
-1.488, 1.169e-3
-1.489, 1.187e-3
-1.490, 1.203e-3
-1.491, 1.219e-3
-1.492, 1.236e-3
-1.493, 1.255e-3
-1.494, 1.273e-3
-1.495, 1.290e-3
-1.496, 1.307e-3
-1.497, 1.326e-3
-1.498, 1.345e-3
-1.499, 1.362e-3
-1.500, 1.381e-3
-1.501, 1.401e-3
-1.502, 1.420e-3
-1.503, 1.440e-3
-1.504, 1.459e-3
-1.505, 1.481e-3
-1.506, 1.502e-3
-1.507, 1.523e-3
-1.508, 1.543e-3
-1.509, 1.565e-3
-1.510, 1.587e-3
-1.511, 1.608e-3
-1.512, 1.630e-3
-1.513, 1.654e-3
-1.514, 1.675e-3
-1.515, 1.697e-3
-1.516, 1.721e-3
-1.517, 1.746e-3
-1.518, 1.770e-3
-1.519, 1.792e-3
-1.520, 1.817e-3
-1.521, 1.843e-3
-1.522, 1.868e-3
-1.523, 1.891e-3
-1.524, 1.916e-3
-1.525, 1.943e-3
-1.526, 1.969e-3
-1.527, 1.994e-3
-1.528, 2.021e-3
-1.529, 2.049e-3
-1.530, 2.076e-3
-1.531, 2.103e-3
-1.532, 2.132e-3
-1.533, 2.162e-3
-1.534, 2.189e-3
-1.535, 2.218e-3
-1.536, 2.248e-3
-1.537, 2.276e-3
-1.538, 2.305e-3
-1.539, 2.334e-3
-1.540, 2.368e-3
-1.541, 2.398e-3
-1.542, 2.428e-3
-1.543, 2.458e-3
-1.544, 2.491e-3
-1.545, 2.523e-3
-1.546, 2.554e-3
-1.547, 2.586e-3
-1.548, 2.621e-3
-1.549, 2.655e-3
-1.550, 2.689e-3
-1.551, 2.723e-3
-1.552, 2.758e-3
-1.553, 2.787e-3
-1.554, 2.819e-3
-1.555, 2.856e-3
-1.556, 2.893e-3
-1.557, 2.928e-3
-1.558, 2.964e-3
-1.559, 3.003e-3
-1.560, 3.042e-3
-1.561, 3.079e-3
-1.562, 3.115e-3
-1.563, 3.153e-3
-1.564, 3.193e-3
-1.565, 3.229e-3
-1.566, 3.265e-3
-1.567, 3.305e-3
-1.568, 3.347e-3
-1.569, 3.386e-3
-1.570, 3.424e-3
-1.571, 3.466e-3
-1.572, 3.508e-3
-1.573, 3.549e-3
-1.574, 3.590e-3
-1.575, 3.632e-3
-1.576, 3.671e-3
-1.577, 3.717e-3
-1.578, 3.760e-3
-1.579, 3.804e-3
-1.580, 3.847e-3
-1.581, 3.891e-3
-1.582, 3.939e-3
-1.583, 3.989e-3
-1.584, 4.033e-3
-1.585, 4.075e-3
-1.586, 4.119e-3
-1.587, 4.167e-3
-1.588, 4.211e-3
-1.589, 4.255e-3
-1.590, 4.301e-3
-1.591, 4.351e-3
-1.592, 4.395e-3
-1.593, 4.442e-3
-1.594, 4.492e-3
-1.595, 4.545e-3
-1.596, 4.595e-3
-1.597, 4.642e-3
-1.598, 4.695e-3
-1.599, 4.745e-3
-1.600, 4.795e-3
-1.601, 4.847e-3
-1.602, 4.902e-3
-1.603, 4.954e-3
-1.604, 5.002e-3
-1.605, 5.054e-3
-1.606, 5.110e-3
-1.607, 5.159e-3
-1.608, 5.207e-3
-1.609, 5.260e-3
-1.610, 5.321e-3
-1.611, 5.375e-3
-1.612, 5.427e-3
-1.613, 5.483e-3
-1.614, 5.545e-3
-1.615, 5.601e-3
-1.616, 5.655e-3
-1.617, 5.709e-3
-1.618, 5.771e-3
-1.619, 5.828e-3
-1.620, 5.882e-3
-1.621, 5.938e-3
-1.622, 5.997e-3
-1.623, 6.051e-3
-1.624, 6.105e-3
-1.625, 6.166e-3
-1.626, 6.227e-3
-1.627, 6.288e-3
-1.628, 6.349e-3
-1.629, 6.413e-3
-1.630, 6.478e-3
-1.631, 6.540e-3
-1.632, 6.597e-3
-1.633, 6.662e-3
-1.634, 6.722e-3
-1.635, 6.783e-3
-1.636, 6.842e-3
-1.637, 6.912e-3
-1.638, 6.976e-3
-1.639, 7.034e-3
-1.640, 7.098e-3
-1.641, 7.170e-3
-1.642, 7.232e-3
-1.643, 7.293e-3
-1.644, 7.356e-3
-1.645, 7.432e-3
-1.646, 7.498e-3
-1.647, 7.555e-3
-1.648, 7.615e-3
-1.649, 7.687e-3
-1.650, 7.751e-3
-1.651, 7.808e-3
-1.652, 7.869e-3
-1.653, 7.943e-3
-1.654, 8.011e-3
-1.655, 8.070e-3
-1.656, 8.127e-3
-1.657, 8.208e-3
-1.658, 8.276e-3
-1.659, 8.335e-3
-1.660, 8.395e-3
-1.661, 8.462e-3
-1.662, 8.525e-3
-1.663, 8.580e-3
-1.664, 8.646e-3
-1.665, 8.713e-3
-1.666, 8.776e-3
-1.667, 8.840e-3
-1.668, 8.914e-3
-1.669, 8.986e-3
-1.670, 9.049e-3
-1.671, 9.106e-3
-1.672, 9.181e-3
-1.673, 9.248e-3
-1.674, 9.309e-3
-1.675, 9.364e-3
-1.676, 9.433e-3
-1.677, 9.496e-3
-1.678, 9.554e-3
-1.679, 9.625e-3
-1.680, 9.703e-3
-1.681, 9.767e-3
-1.682, 9.822e-3
-1.683, 9.878e-3
-1.684, 9.938e-3
-1.685, 9.993e-3
-1.686, 1.004e-2
-1.687, 1.010e-2
-1.688, 1.017e-2
-1.689, 1.022e-2
-1.690, 1.027e-2
-1.691, 1.033e-2
-1.692, 1.040e-2
-1.693, 1.045e-2
-1.694, 1.051e-2
-1.695, 1.059e-2
-1.696, 1.064e-2
-1.697, 1.069e-2
-1.698, 1.074e-2
-1.699, 1.081e-2
-1.700, 1.079e-2
-1.699, 1.069e-2
-1.698, 1.059e-2
-1.697, 1.051e-2
-1.696, 1.041e-2
-1.695, 1.030e-2
-1.694, 1.020e-2
-1.693, 1.013e-2
-1.692, 1.004e-2
-1.691, 9.949e-3
-1.690, 9.871e-3
-1.689, 9.804e-3
-1.688, 9.716e-3
-1.687, 9.616e-3
-1.686, 9.519e-3
-1.685, 9.442e-3
-1.684, 9.345e-3
-1.683, 9.252e-3
-1.682, 9.185e-3
-1.681, 9.113e-3
-1.680, 9.041e-3
-1.679, 8.958e-3
-1.678, 8.883e-3
-1.677, 8.815e-3
-1.676, 8.723e-3
-1.675, 8.629e-3
-1.674, 8.553e-3
-1.673, 8.483e-3
-1.672, 8.406e-3
-1.671, 8.329e-3
-1.670, 8.265e-3
-1.669, 8.188e-3
-1.668, 8.127e-3
-1.667, 8.054e-3
-1.666, 7.987e-3
-1.665, 7.930e-3
-1.664, 7.857e-3
-1.663, 7.779e-3
-1.662, 7.723e-3
-1.661, 7.653e-3
-1.660, 7.573e-3
-1.659, 7.497e-3
-1.658, 7.456e-3
-1.657, 7.400e-3
-1.656, 7.328e-3
-1.655, 7.266e-3
-1.654, 7.202e-3
-1.653, 7.136e-3
-1.652, 7.064e-3
-1.651, 6.984e-3
-1.650, 6.923e-3
-1.649, 6.857e-3
-1.648, 6.806e-3
-1.647, 6.741e-3
-1.646, 6.685e-3
-1.645, 6.619e-3
-1.644, 6.550e-3
-1.643, 6.492e-3
-1.642, 6.432e-3
-1.641, 6.368e-3
-1.640, 6.299e-3
-1.639, 6.241e-3
-1.638, 6.194e-3
-1.637, 6.145e-3
-1.636, 6.082e-3
-1.635, 6.015e-3
-1.634, 5.971e-3
-1.633, 5.913e-3
-1.632, 5.860e-3
-1.631, 5.810e-3
-1.630, 5.764e-3
-1.629, 5.706e-3
-1.628, 5.640e-3
-1.627, 5.592e-3
-1.626, 5.537e-3
-1.625, 5.487e-3
-1.624, 5.436e-3
-1.623, 5.383e-3
-1.622, 5.332e-3
-1.621, 5.277e-3
-1.620, 5.233e-3
-1.619, 5.192e-3
-1.618, 5.143e-3
-1.617, 5.091e-3
-1.616, 5.033e-3
-1.615, 4.985e-3
-1.614, 4.935e-3
-1.613, 4.887e-3
-1.612, 4.831e-3
-1.611, 4.780e-3
-1.610, 4.725e-3
-1.609, 4.673e-3
-1.608, 4.623e-3
-1.607, 4.590e-3
-1.606, 4.543e-3
-1.605, 4.503e-3
-1.604, 4.468e-3
-1.603, 4.423e-3
-1.602, 4.372e-3
-1.601, 4.322e-3
-1.600, 4.281e-3
-1.599, 4.229e-3
-1.598, 4.188e-3
-1.597, 4.137e-3
-1.596, 4.104e-3
-1.595, 4.058e-3
-1.594, 4.013e-3
-1.593, 3.975e-3
-1.592, 3.942e-3
-1.591, 3.899e-3
-1.590, 3.853e-3
-1.589, 3.809e-3
-1.588, 3.776e-3
-1.587, 3.738e-3
-1.586, 3.690e-3
-1.585, 3.649e-3
-1.584, 3.612e-3
-1.583, 3.571e-3
-1.582, 3.535e-3
-1.581, 3.495e-3
-1.580, 3.470e-3
-1.579, 3.433e-3
-1.578, 3.393e-3
-1.577, 3.357e-3
-1.576, 3.321e-3
-1.575, 3.283e-3
-1.574, 3.244e-3
-1.573, 3.214e-3
-1.572, 3.174e-3
-1.571, 3.137e-3
-1.570, 3.102e-3
-1.569, 3.069e-3
-1.568, 3.045e-3
-1.567, 3.005e-3
-1.566, 2.971e-3
-1.565, 2.939e-3
-1.564, 2.904e-3
-1.563, 2.869e-3
-1.562, 2.835e-3
-1.561, 2.804e-3
-1.560, 2.772e-3
-1.559, 2.736e-3
-1.558, 2.705e-3
-1.557, 2.677e-3
-1.556, 2.645e-3
-1.555, 2.611e-3
-1.554, 2.579e-3
-1.553, 2.557e-3
-1.552, 2.536e-3
-1.551, 2.498e-3
-1.550, 2.469e-3
-1.549, 2.442e-3
-1.548, 2.414e-3
-1.547, 2.384e-3
-1.546, 2.358e-3
-1.545, 2.328e-3
-1.544, 2.298e-3
-1.543, 2.269e-3
-1.542, 2.242e-3
-1.541, 2.216e-3
-1.540, 2.185e-3
-1.539, 2.158e-3
-1.538, 2.135e-3
-1.537, 2.109e-3
-1.536, 2.082e-3
-1.535, 2.056e-3
-1.534, 2.036e-3
-1.533, 2.013e-3
-1.532, 1.991e-3
-1.531, 1.966e-3
-1.530, 1.946e-3
-1.529, 1.920e-3
-1.528, 1.893e-3
-1.527, 1.869e-3
-1.526, 1.848e-3
-1.525, 1.823e-3
-1.524, 1.799e-3
-1.523, 1.777e-3
-1.522, 1.755e-3
-1.521, 1.734e-3
-1.520, 1.716e-3
-1.519, 1.690e-3
-1.518, 1.670e-3
-1.517, 1.647e-3
-1.516, 1.625e-3
-1.515, 1.605e-3
-1.514, 1.585e-3
-1.513, 1.562e-3
-1.512, 1.540e-3
-1.511, 1.524e-3
-1.510, 1.504e-3
-1.509, 1.480e-3
-1.508, 1.458e-3
-1.507, 1.439e-3
-1.506, 1.420e-3
-1.505, 1.400e-3
-1.504, 1.380e-3
-1.503, 1.361e-3
-1.502, 1.341e-3
-1.501, 1.323e-3
-1.500, 1.305e-3
-1.499, 1.289e-3
-1.498, 1.269e-3
-1.497, 1.255e-3
-1.496, 1.237e-3
-1.495, 1.219e-3
-1.494, 1.200e-3
-1.493, 1.183e-3
-1.492, 1.167e-3
-1.491, 1.151e-3
-1.490, 1.134e-3
-1.489, 1.117e-3
-1.488, 1.101e-3
-1.487, 1.087e-3
-1.486, 1.070e-3
-1.485, 1.053e-3
-1.484, 1.037e-3
-1.483, 1.023e-3
-1.482, 1.013e-3
-1.481, 9.947e-4
-1.480, 9.813e-4
-1.479, 9.668e-4
-1.478, 9.522e-4
-1.477, 9.383e-4
-1.476, 9.240e-4
-1.475, 9.120e-4
-1.474, 8.975e-4
-1.473, 8.829e-4
-1.472, 8.694e-4
-1.471, 8.557e-4
-1.470, 8.428e-4
-1.469, 8.289e-4
-1.468, 8.173e-4
-1.467, 8.058e-4
-1.466, 7.929e-4
-1.465, 7.808e-4
-1.464, 7.701e-4
-1.463, 7.585e-4
-1.462, 7.462e-4
-1.461, 7.353e-4
-1.460, 7.250e-4
-1.459, 7.149e-4
-1.458, 7.012e-4
-1.457, 6.902e-4
-1.456, 6.804e-4
-1.455, 6.696e-4
-1.454, 6.591e-4
-1.453, 6.497e-4
-1.452, 6.398e-4
-1.451, 6.299e-4
-1.450, 6.208e-4
-1.449, 6.120e-4
-1.448, 6.031e-4
-1.447, 5.940e-4
-1.446, 5.849e-4
-1.445, 5.764e-4
-1.444, 5.674e-4
-1.443, 5.583e-4
-1.442, 5.491e-4
-1.441, 5.412e-4
-1.440, 5.332e-4
-1.439, 5.248e-4
-1.438, 5.164e-4
-1.437, 5.093e-4
-1.436, 5.007e-4
-1.435, 4.927e-4
-1.434, 4.854e-4
-1.433, 4.807e-4
-1.432, 4.710e-4
-1.431, 4.636e-4
-1.430, 4.567e-4
-1.429, 4.505e-4
-1.428, 4.433e-4
-1.427, 4.360e-4
-1.426, 4.287e-4
-1.425, 4.224e-4
-1.424, 4.168e-4
-1.423, 4.105e-4
-1.422, 4.041e-4
-1.421, 3.980e-4
-1.420, 3.918e-4
-1.419, 3.852e-4
-1.418, 3.796e-4
-1.417, 3.736e-4
-1.416, 3.678e-4
-1.415, 3.620e-4
-1.414, 3.565e-4
-1.413, 3.514e-4
-1.412, 3.453e-4
-1.411, 3.398e-4
-1.410, 3.348e-4
-1.409, 3.298e-4
-1.408, 3.244e-4
-1.407, 3.190e-4
-1.406, 3.139e-4
-1.405, 3.093e-4
-1.404, 3.038e-4
-1.403, 2.989e-4
-1.402, 2.946e-4
-1.401, 2.894e-4
-1.400, 2.849e-4
-1.399, 2.803e-4
-1.398, 2.759e-4
-1.397, 2.710e-4
-1.396, 2.665e-4
-1.395, 2.620e-4
-1.394, 2.584e-4
-1.393, 2.535e-4
-1.392, 2.495e-4
-1.391, 2.450e-4
-1.390, 2.413e-4
-1.389, 2.373e-4
-1.388, 2.330e-4
-1.387, 2.290e-4
-1.386, 2.255e-4
-1.385, 2.216e-4
-1.384, 2.176e-4
-1.383, 2.137e-4
-1.382, 2.103e-4
-1.381, 2.064e-4
-1.380, 2.027e-4
-1.379, 1.998e-4
-1.378, 1.962e-4
-1.377, 1.921e-4
-1.376, 1.882e-4
-1.375, 1.853e-4
-1.374, 1.820e-4
-1.373, 1.786e-4
-1.372, 1.750e-4
-1.371, 1.716e-4
-1.370, 1.685e-4
-1.369, 1.650e-4
-1.368, 1.621e-4
-1.367, 1.589e-4
-1.366, 1.555e-4
-1.365, 1.534e-4
-1.364, 1.500e-4
-1.363, 1.472e-4
-1.362, 1.436e-4
-1.361, 1.401e-4
-1.360, 1.380e-4
-1.359, 1.352e-4
-1.358, 1.322e-4
-1.357, 1.292e-4
-1.356, 1.265e-4
-1.355, 1.240e-4
-1.354, 1.213e-4
-1.353, 1.184e-4
-1.352, 1.159e-4
-1.351, 1.134e-4
-1.350, 1.106e-4
-1.349, 1.082e-4
-1.348, 1.058e-4
-1.347, 1.033e-4
-1.346, 1.010e-4
-1.345, 9.829e-5
-1.344, 9.616e-5
-1.343, 9.386e-5
-1.342, 9.133e-5
-1.341, 8.942e-5
-1.340, 8.719e-5
-1.339, 8.483e-5
-1.338, 8.283e-5
-1.337, 8.048e-5
-1.336, 7.891e-5
-1.335, 7.655e-5
-1.334, 7.434e-5
-1.333, 7.257e-5
-1.332, 7.095e-5
-1.331, 6.859e-5
-1.330, 6.697e-5
-1.329, 6.500e-5
-1.328, 6.372e-5
-1.327, 6.160e-5
-1.326, 5.955e-5
-1.325, 5.841e-5
-1.324, 5.649e-5
-1.323, 5.462e-5
-1.322, 5.312e-5
-1.321, 5.125e-5
-1.320, 5.002e-5
-1.319, 4.833e-5
-1.318, 4.665e-5
-1.317, 4.517e-5
-1.316, 4.364e-5
-1.315, 4.209e-5
-1.314, 4.074e-5
-1.313, 3.941e-5
-1.312, 3.803e-5
-1.311, 3.658e-5
-1.310, 3.510e-5
-1.309, 3.385e-5
-1.308, 3.250e-5
-1.307, 3.108e-5
-1.306, 2.998e-5
-1.305, 2.844e-5
-1.304, 2.766e-5
-1.303, 2.627e-5
-1.302, 2.486e-5
-1.301, 2.377e-5
-1.300, 2.264e-5
-1.299, 2.134e-5
-1.298, 2.045e-5
-1.297, 1.921e-5
-1.296, 1.819e-5
-1.295, 1.728e-5
-1.294, 1.598e-5
-1.293, 1.533e-5
-1.292, 1.399e-5
-1.291, 1.293e-5
-1.290, 1.233e-5
-1.289, 1.108e-5
-1.288, 1.052e-5
-1.287, 9.716e-6
-1.286, 8.453e-6
-1.285, 7.861e-6
-1.284, 6.875e-6
-1.283, 6.095e-6
-1.282, 5.572e-6
-1.281, 4.231e-6
-1.280, 3.214e-6
-1.279, 2.760e-6
-1.278, 1.882e-6
-1.277, 1.360e-6
-1.276, 4.321e-7
-1.275, -2.289e-7
-1.274, -7.321e-7
-1.273, -1.679e-6
-1.272, -2.153e-6
-1.271, -2.912e-6
-1.270, -3.643e-6
-1.269, -4.205e-6
-1.268, -4.728e-6
-1.267, -5.586e-6
-1.266, -5.951e-6
-1.265, -6.701e-6
-1.264, -7.115e-6
-1.263, -7.766e-6
-1.262, -8.546e-6
-1.261, -8.684e-6
-1.260, -9.513e-6
-1.259, -1.006e-5
-1.258, -1.047e-5
-1.257, -1.112e-5
-1.256, -1.155e-5
-1.255, -1.216e-5
-1.254, -1.291e-5
-1.253, -1.294e-5
-1.252, -1.368e-5
-1.251, -1.427e-5
-1.250, -1.447e-5
-1.249, -1.503e-5
-1.248, -1.533e-5
-1.247, -1.562e-5
-1.246, -1.671e-5
-1.245, -1.640e-5
-1.244, -1.725e-5
-1.243, -1.759e-5
-1.242, -1.784e-5
-1.241, -1.860e-5
-1.240, -1.865e-5
-1.239, -1.952e-5
-1.238, -2.010e-5
-1.237, -2.018e-5
-1.236, -2.038e-5
-1.235, -2.087e-5
-1.234, -2.124e-5
-1.233, -2.152e-5
-1.232, -2.162e-5
-1.231, -2.213e-5
-1.230, -2.243e-5
-1.229, -2.343e-5
-1.228, -2.301e-5
-1.227, -2.332e-5
-1.226, -2.361e-5
-1.225, -2.391e-5
-1.224, -2.416e-5
-1.223, -2.425e-5
-1.222, -2.491e-5
-1.221, -2.483e-5
-1.220, -2.501e-5
-1.219, -2.565e-5
-1.218, -2.550e-5
-1.217, -2.583e-5
-1.216, -2.617e-5
-1.215, -2.635e-5
-1.214, -2.669e-5
-1.213, -2.672e-5
-1.212, -2.690e-5
-1.211, -2.727e-5
-1.210, -2.719e-5
-1.209, -2.776e-5
-1.208, -2.772e-5
-1.207, -2.768e-5
-1.206, -2.841e-5
-1.205, -2.832e-5
-1.204, -2.860e-5
-1.203, -2.880e-5
-1.202, -2.899e-5
-1.201, -2.924e-5
-1.200, -2.920e-5
-1.199, -2.953e-5
-1.198, -2.962e-5
-1.197, -2.957e-5
-1.196, -2.985e-5
-1.195, -3.017e-5
-1.194, -3.034e-5
-1.193, -3.052e-5
-1.192, -3.069e-5
-1.191, -3.074e-5
-1.190, -3.100e-5
-1.189, -3.099e-5
-1.188, -3.135e-5
-1.187, -3.148e-5
-1.186, -3.149e-5
-1.185, -3.185e-5
-1.184, -3.177e-5
-1.183, -3.177e-5
-1.182, -3.212e-5
-1.181, -3.210e-5
-1.180, -3.218e-5
-1.179, -3.249e-5
-1.178, -3.280e-5
-1.177, -3.272e-5
-1.176, -3.264e-5
-1.175, -3.274e-5
-1.174, -3.294e-5
-1.173, -3.286e-5
-1.172, -3.298e-5
-1.171, -3.338e-5
-1.170, -3.316e-5
-1.169, -3.356e-5
-1.168, -3.340e-5
-1.167, -3.331e-5
-1.166, -3.395e-5
-1.165, -3.363e-5
-1.164, -3.383e-5
-1.163, -3.402e-5
-1.162, -3.376e-5
-1.161, -3.435e-5
-1.160, -3.400e-5
-1.159, -3.418e-5
-1.158, -3.440e-5
-1.157, -3.426e-5
-1.156, -3.460e-5
-1.155, -3.451e-5
-1.154, -3.450e-5
-1.153, -3.493e-5
-1.152, -3.468e-5
-1.151, -3.521e-5
-1.150, -3.497e-5
-1.149, -3.506e-5
-1.148, -3.526e-5
-1.147, -3.517e-5
-1.146, -3.518e-5
-1.145, -3.548e-5
-1.144, -3.534e-5
-1.143, -3.537e-5
-1.142, -3.566e-5
-1.141, -3.549e-5
-1.140, -3.571e-5
-1.139, -3.567e-5
-1.138, -3.563e-5
-1.137, -3.597e-5
-1.136, -3.586e-5
-1.135, -3.575e-5
-1.134, -3.621e-5
-1.133, -3.601e-5
-1.132, -3.614e-5
-1.131, -3.639e-5
-1.130, -3.616e-5
-1.129, -3.658e-5
-1.128, -3.617e-5
-1.127, -3.647e-5
-1.126, -3.677e-5
-1.125, -3.640e-5
-1.124, -3.681e-5
-1.123, -3.681e-5
-1.122, -3.664e-5
-1.121, -3.709e-5
-1.120, -3.681e-5
-1.119, -3.698e-5
-1.118, -3.713e-5
-1.117, -3.711e-5
-1.116, -3.713e-5
-1.115, -3.715e-5
-1.114, -3.713e-5
-1.113, -3.751e-5
-1.112, -3.746e-5
-1.111, -3.770e-5
-1.110, -3.790e-5
-1.109, -3.763e-5
-1.108, -3.766e-5
-1.107, -3.800e-5
-1.106, -3.797e-5
-1.105, -3.825e-5
-1.104, -3.793e-5
-1.103, -3.794e-5
-1.102, -3.827e-5
-1.101, -3.823e-5
-1.100, -3.832e-5
-1.099, -3.838e-5
-1.098, -3.835e-5
-1.097, -3.865e-5
-1.096, -3.852e-5
-1.095, -3.844e-5
-1.094, -3.894e-5
-1.093, -3.858e-5
-1.092, -3.875e-5
-1.091, -3.884e-5
-1.090, -3.878e-5
-1.089, -3.907e-5
-1.088, -3.906e-5
-1.087, -3.911e-5
-1.086, -3.936e-5
-1.085, -3.901e-5
-1.084, -3.925e-5
-1.083, -3.958e-5
-1.082, -3.938e-5
-1.081, -3.969e-5
-1.080, -3.944e-5
-1.079, -3.972e-5
-1.078, -3.988e-5
-1.077, -3.967e-5
-1.076, -4.001e-5
-1.075, -4.011e-5
-1.074, -3.990e-5
-1.073, -4.026e-5
-1.072, -4.009e-5
-1.071, -4.029e-5
-1.070, -4.035e-5
-1.069, -4.034e-5
-1.068, -4.032e-5
-1.067, -4.063e-5
-1.066, -4.060e-5
-1.065, -4.056e-5
-1.064, -4.063e-5
-1.063, -4.070e-5
-1.062, -4.111e-5
-1.061, -4.083e-5
-1.060, -4.101e-5
-1.059, -4.128e-5
-1.058, -4.113e-5
-1.057, -4.138e-5
-1.056, -4.141e-5
-1.055, -4.136e-5
-1.054, -4.163e-5
-1.053, -4.140e-5
-1.052, -4.164e-5
-1.051, -4.184e-5
-1.050, -4.191e-5
-1.049, -4.218e-5
-1.048, -4.184e-5
-1.047, -4.200e-5
-1.046, -4.239e-5
-1.045, -4.212e-5
-1.044, -4.250e-5
-1.043, -4.247e-5
-1.042, -4.248e-5
-1.041, -4.278e-5
-1.040, -4.260e-5
-1.039, -4.272e-5
-1.038, -4.297e-5
-1.037, -4.299e-5
-1.036, -4.299e-5
-1.035, -4.329e-5
-1.034, -4.296e-5
-1.033, -4.351e-5
-1.032, -4.335e-5
-1.031, -4.347e-5
-1.030, -4.373e-5
-1.029, -4.370e-5
-1.028, -4.377e-5
-1.027, -4.387e-5
-1.026, -4.395e-5
-1.025, -4.434e-5
-1.024, -4.452e-5
-1.023, -4.443e-5
-1.022, -4.474e-5
-1.021, -4.468e-5
-1.020, -4.461e-5
-1.019, -4.490e-5
-1.018, -4.476e-5
-1.017, -4.535e-5
-1.016, -4.506e-5
-1.015, -4.515e-5
-1.014, -4.570e-5
-1.013, -4.555e-5
-1.012, -4.579e-5
-1.011, -4.609e-5
-1.010, -4.576e-5
-1.009, -4.612e-5
-1.008, -4.599e-5
-1.007, -4.626e-5
-1.006, -4.657e-5
-1.005, -4.654e-5
-1.004, -4.661e-5
-1.003, -4.689e-5
-1.002, -4.694e-5
-1.001, -4.725e-5
