Potential V vs RHE, Current mA cm-2
0.013299999999999867,1.1218660607929742
0.012299999999999978,-0.5467859173978367
0.011299999999999866,-1.7146300954364246
0.010299999999999976,-2.4700859295643536
0.009299999999999864,-3.2665683913883696
0.008299999999999974,-3.7249348525446417
0.007299999999999862,-4.21018082839835
0.006299999999999972,-4.655814887855835
0.00529999999999986,-4.921780612230462
0.0042999999999999705,-5.377317650787004
0.0032999999999998586,-5.582450789267434
0.0022999999999999687,-5.871051894439902
0.0012999999999998568,-6.141261752714124
0.00029999999999996696,-6.226144430706027
-0.000700000000000145,-6.5317220714768744
-0.0017000000000000348,-6.653387243265268
-0.0027000000000001467,-6.872667494744348
-0.0037000000000000366,-7.117412549621
-0.0047000000000001485,-7.200880516313037
-0.005700000000000038,-7.4824080649861795
-0.00670000000000015,-7.567290742978082
-0.00770000000000004,-7.739885521561616
-0.008700000000000152,-7.95775106174083
-0.009700000000000042,-8.01433951373543
-0.010700000000000154,-8.26049927991195
-0.011700000000000044,-8.312843598006955
-0.012700000000000156,-8.47129126359184
-0.013700000000000045,-8.64247133087551
-0.014700000000000157,-8.68208324727173
-0.015700000000000047,-8.93531656994757
-0.01670000000000016,-9.013125691440148
-0.01770000000000005,-9.184305758723816
-0.01870000000000016,-9.371047650306002
-0.01970000000000005,-9.396512453703574
-0.020700000000000163,-9.6341839520809
-0.021700000000000053,-9.676625291076851
-0.022700000000000164,-9.835072956661735
-0.023700000000000054,-9.983617643147563
-0.024700000000000166,-10.000594178745946
-0.025700000000000056,-10.26373048052084
-0.026700000000000168,-10.310415953416387
-0.027700000000000058,-10.471693041601002
-0.02870000000000017,-10.624481861986427
-0.02970000000000006,-10.644287820184536
-0.03070000000000017,-10.872056339462807
-0.03170000000000006,-10.839517979565912
-0.03270000000000017,-11.017771603348905
-0.03370000000000006,-11.200269361031495
-0.034700000000000175,-11.191781093232304
-0.035700000000000065,-11.425208457710037
-0.03670000000000018,-11.467649796705988
-0.03770000000000007,-11.638829863989658
-0.03870000000000018,-11.817083487772651
-0.03970000000000007,-11.838304157270626
-0.04070000000000018,-12.078805078247685
-0.04170000000000007,-12.112758149444444
-0.04270000000000018,-12.291011773227439
-0.04370000000000007,-12.465021263110838
-0.044700000000000184,-12.37023560601988
-0.045700000000000074,-12.576783455800177
-0.046700000000000186,-12.53009798290463
-0.047700000000000076,-12.728157564885736
-0.04870000000000019,-12.913484745168056
-0.04970000000000008,-12.86396984967278
-0.05070000000000019,-13.095982502850644
-0.05170000000000008,-13.115788461048757
-0.05270000000000019,-13.257259591035258
-0.05370000000000008,-13.432683792218524
-0.05470000000000019,-13.432683792218524
-0.05570000000000008,-13.70430836179261
-0.056700000000000195,-13.70713778439234
-0.057700000000000085,-13.845779491779115
-0.058700000000000196,-13.992909466965077
-0.059700000000000086,-13.967444663567507
-0.0607000000000002,-14.189554337646317
-0.06170000000000009,-14.161260111649016
-0.0627000000000002,-14.316878354634172
-0.06370000000000009,-14.444202371622024
-0.0647000000000002,-14.444202371622024
-0.06570000000000009,-14.71299751859638
-0.0667000000000002,-14.67055617960043
-0.0677000000000001,-14.854468648582884
-0.0687000000000002,-15.01008689156804
-0.0697000000000001,-14.953498439573437
-0.07070000000000021,-15.165705134553193
-0.0717000000000001,-15.137410908555893
-0.07270000000000021,-15.250587812545096
-0.0737000000000001,-15.406206055530248
-0.07470000000000021,-15.4769416205235
-0.0757000000000001,-15.70329542850191
-0.07670000000000021,-15.731589654499205
-0.0777000000000001,-15.858913671487063
-0.07870000000000021,-16.000384801473565
-0.0797000000000001,-16.014531914472215
-0.08070000000000022,-16.24088572245062
-0.0817000000000001,-16.24088572245062
-0.08270000000000022,-16.354062626439823
-0.08370000000000011,-16.495533756426326
-0.08470000000000022,-16.50968086942498
-0.08570000000000011,-16.764328903400685
-0.08670000000000022,-16.806770242396635
-0.08770000000000011,-16.93409425938449
-0.08870000000000022,-17.047271163373694
-0.08970000000000011,-17.047271163373694
-0.09070000000000022,-17.259477858353446
-0.09170000000000011,-17.3302134233467
-0.09270000000000023,-17.48583166633185
-0.09370000000000012,-17.641449909317007
-0.09470000000000023,-17.698038361311607
-0.09570000000000012,-17.910245056291366
-0.09670000000000023,-17.896097943292716
-0.09770000000000012,-18.05171618627787
-0.09870000000000023,-18.207334429263025
-0.09970000000000012,-18.27806999425627
-0.10070000000000023,-18.57515936722793
-0.10170000000000012,-18.645894932221182
-0.10270000000000024,-18.77321894920904
-0.10370000000000013,-18.872248740199588
-0.10470000000000024,-18.858101627200938
-0.10570000000000013,-19.084455435179343
-0.10670000000000024,-19.112749661176647
-0.10770000000000013,-19.296662130159103
-0.10870000000000024,-19.466427486142905
-0.10970000000000013,-19.466427486142905
-0.11070000000000024,-19.65033995512536
-0.11170000000000013,-19.636192842126707
-0.11270000000000002,-19.820105311109163
-0.11370000000000013,-19.98987066709297
-0.11470000000000002,-20.046459119087572
-0.11570000000000014,-20.301107153063278
-0.11670000000000003,-20.301107153063278
-0.11770000000000014,-20.414284057052477
-0.11870000000000003,-20.51331384804303
-0.11970000000000014,-20.499166735044383
-0.12070000000000003,-20.711373430024135
-0.12170000000000014,-20.72552054302279
-0.12270000000000003,-20.85284456001064
-0.12370000000000014,-21.008462802995794
-0.12470000000000003,-21.065051254990397
-0.12570000000000014,-21.347993514963402
-0.12670000000000003,-21.347993514963402
-0.12770000000000015,-21.404581966958006
-0.12870000000000004,-21.489464644949905
-0.12970000000000015,-21.503611757948562
-0.13070000000000004,-21.659230000933714
-0.13170000000000015,-21.659230000933714
-0.13270000000000004,-21.786554017921564
-0.13370000000000015,-21.94217226090672
-0.13470000000000004,-22.04120205189727
-0.13570000000000015,-22.253408746877028
-0.13670000000000004,-22.182673181883775
-0.13770000000000016,-22.210967407881075
-0.13870000000000005,-22.253408746877028
-0.13970000000000016,-22.196820294882425
-0.14070000000000005,-22.352438537867577
-0.14170000000000016,-22.33829142486893
-0.14270000000000005,-22.42317410286083
-0.14370000000000016,-22.479762554855434
-0.14470000000000005,-22.39487987686353
-0.14570000000000016,-22.607086571843286
-0.14670000000000005,-22.592939458844636
-0.14770000000000016,-22.748557701829792
-0.14870000000000005,-22.819293266823045
-0.14970000000000017,-22.734410588831135
-0.15070000000000006,-22.890028831816295
-0.15170000000000017,-22.80514615382439
-0.15270000000000006,-22.861734605818995
-0.15370000000000017,-22.91832305781359
-0.15470000000000006,-22.890028831816295
-0.15570000000000017,-23.017352848804148
-0.15670000000000006,-22.890028831816295
-0.15770000000000017,-22.932470170812245
-0.15870000000000006,-22.989058622806844
-0.15970000000000018,-22.890028831816295
-0.16070000000000007,-23.059794187800097
-0.16170000000000018,-22.960764396809545
-0.16270000000000007,-23.045647074801447
-0.16370000000000018,-23.215412430785253
-0.16470000000000007,-23.257853769781203
-0.16570000000000018,-23.385177786769056
-0.16670000000000007,-23.257853769781203
-0.16770000000000018,-23.24370665678255
-0.16870000000000007,-23.286147995778503
-0.16970000000000018,-23.13052975279335
-0.17070000000000007,-23.1729710917893
-0.17170000000000019,-22.974911509808198
-0.17270000000000008,-22.960764396809545
-0.1737000000000002,-23.1163826397947
-0.17470000000000008,-22.989058622806844
-0.1757000000000002,-23.059794187800097
-0.17670000000000008,-22.946617283810895
-0.1777000000000002,-22.80514615382439
-0.17870000000000008,-22.790999040825742
-0.1797000000000002,-22.734410588831135
-0.18070000000000008,-22.80514615382439
-0.1817000000000002,-22.607086571843286
-0.18270000000000008,-22.578792345845983
-0.1837000000000002,-22.550498119848687
-0.1847000000000001,-22.451468328858134
-0.1857000000000002,-22.578792345845983
-0.1867000000000001,-22.522203893851387
-0.1877000000000002,-22.536351006850033
-0.1887000000000001,-22.437321215859484
-0.1897000000000002,-22.225114520879725
-0.1907000000000001,-22.309997198871628
-0.1917000000000001,-22.182673181883775
-0.19269999999999998,-22.225114520879725
-0.1937000000000001,-22.182673181883775
-0.19469999999999998,-22.04120205189727
-0.1957000000000001,-22.140231842887825
-0.19669999999999999,-21.885583808912116
-0.1977000000000001,-21.800701130920213
-0.1987,-21.744112678925614
-0.1997000000000001,-21.61678866193776
-0.2007,-21.68752422693101
-0.2017000000000001,-21.531905983945855
-0.2027,-21.51775887094721
-0.2037000000000001,-21.43287619295531
-0.2047,-21.291405062968803
-0.2057000000000001,-21.376287740960702
-0.2067,-21.19237527197825
-0.2077000000000001,-21.065051254990397
-0.2087,-21.036757028993097
-0.2097000000000001,-20.85284456001064
-0.2107,-20.93772723800254
-0.2117000000000001,-20.75381476902009
-0.2127,-20.654784978029536
-0.2137000000000001,-20.668932091028186
-0.2147,-20.555755187038983
-0.2157000000000001,-20.541608074040333
-0.2167,-20.202077362072725
-0.21770000000000012,-20.202077362072725
-0.2187,-20.159636023076775
-0.21970000000000012,-19.98987066709297
-0.2207,-19.947429328097016
-0.22170000000000012,-19.749369746115914
-0.2227,-19.664487068124007
-0.22370000000000012,-19.593751503130758
-0.2247,-19.452280373144255
-0.22570000000000012,-19.537163051136158
-0.2267,-19.353250582153702
-0.22770000000000012,-19.31080924315775
-0.22870000000000001,-19.2683679041618
-0.22970000000000013,-19.084455435179343
-0.23070000000000002,-19.112749661176647
-0.23170000000000013,-18.900542966196888
-0.23270000000000002,-18.858101627200938
-0.23370000000000013,-18.829807401203638
-0.23470000000000002,-18.645894932221182
-0.23570000000000013,-18.716630497214435
-0.23670000000000002,-18.518570915233333
-0.2376999999999999,-18.49027668923603
-0.23870000000000002,-18.461982463238726
-0.2396999999999999,-18.27806999425627
-0.24070000000000003,-18.334658446250877
-0.24169999999999991,-18.13659886426977
-0.24270000000000003,-18.08001041227517
-0.24369999999999992,-18.03756907327922
-0.24470000000000003,-17.881950830294063
-0.24569999999999992,-17.910245056291366
-0.24670000000000003,-17.782921039303513
-0.24769999999999992,-17.782921039303513
-0.24870000000000003,-17.74047970030756
-0.24969999999999992,-17.584861457322408
-0.25070000000000003,-17.599008570321057
-0.2516999999999999,-17.471684553333205
-0.25270000000000004,-17.48583166633185
-0.2536999999999999,-17.471684553333205
-0.25470000000000004,-17.386801875341302
-0.2556999999999999,-17.429243214337255
-0.25670000000000004,-17.2736249713521
-0.25769999999999993,-17.301919197349395
-0.25870000000000004,-17.259477858353446
-0.25969999999999993,-17.132153841365596
-0.26070000000000004,-17.217036519357496
-0.26169999999999993,-17.103859615368293
-0.26270000000000004,-17.146300954364243
-0.26369999999999993,-17.146300954364243
-0.26470000000000005,-17.047271163373694
-0.26569999999999994,-17.118006728366943
-0.26670000000000005,-17.047271163373694
-0.26769999999999994,-17.118006728366943
-0.26870000000000005,-17.089712502369647
-0.26969999999999994,-16.99068271137909
-0.27070000000000005,-17.07556538937099
-0.27169999999999994,-16.99068271137909
-0.27270000000000005,-17.061418276372343
-0.27369999999999994,-17.061418276372343
-0.27470000000000006,-17.00482982437774
-0.27569999999999995,-17.160448067362896
-0.27670000000000006,-17.047271163373694
-0.27769999999999995,-17.047271163373694
-0.27870000000000006,-17.03312405037504
-0.27969999999999995,-16.919947146385837
-0.28070000000000006,-17.061418276372343
-0.28169999999999995,-17.018976937376394
-0.28270000000000006,-17.061418276372343
-0.28369999999999995,-17.160448067362896
-0.28470000000000006,-17.174595180361546
-0.28569999999999995,-17.34436053634535
-0.28670000000000007,-17.217036519357496
-0.28769999999999996,-17.2736249713521
-0.28870000000000007,-17.2736249713521
-0.28969999999999996,-17.118006728366943
-0.29070000000000007,-17.259477858353446
-0.29169999999999996,-17.188742293360193
-0.29270000000000007,-17.316066310348052
-0.29369999999999996,-17.4150961013386
-0.2947000000000001,-17.37265476234265
-0.29569999999999996,-17.528273005327804
-0.2967000000000001,-17.471684553333205
-0.29769999999999996,-17.627302796318357
-0.2987000000000001,-17.71218547431026
-0.29969999999999997,-17.641449909317007
-0.3007000000000001,-17.75462681330621
-0.30169999999999997,-17.669744135314307
-0.3027000000000001,-17.75462681330621
-0.30369999999999997,-17.81121526530081
-0.3047000000000001,-17.797068152302163
-0.30569999999999997,-17.995127734283265
-0.3067000000000001,-17.980980621284615
-0.3077,-18.10830463827247
-0.3087000000000001,-18.15074597726842
-0.3097,-18.13659886426977
-0.3107000000000001,-18.348805559249524
-0.3117,-18.221481542261674
-0.3127000000000001,-18.292217107254928
-0.3137,-18.377099785246827
-0.3147000000000001,-18.391246898245473
-0.3157,-18.645894932221182
-0.3167000000000001,-18.617600706223882
-0.3177,-18.716630497214435
-0.3187000000000001,-18.77321894920904
-0.3197,-18.744924723211735
-0.3207000000000001,-18.97127853119014
-0.3217,-18.999572757187444
-0.3227000000000001,-19.084455435179343
-0.3237,-19.1834852261699
-0.3247000000000001,-19.197632339168546
-0.3257,-19.395691921149652
-0.3267000000000001,-19.367397695152352
-0.3277,-19.480574599141555
-0.3287000000000001,-19.537163051136158
-0.3297,-19.537163051136158
-0.3307000000000001,-19.721075520118614
-0.3317,-19.70692840711996
-0.3327000000000001,-19.820105311109163
-0.3337,-19.97572355409432
-0.3347000000000001,-19.947429328097016
-0.3357,-20.14548891007812
-0.3367000000000001,-20.13134179707947
-0.3377,-20.25866581406732
-0.3387000000000001,-20.400136944053827
-0.3397,-20.38598983105518
-0.3407000000000001,-20.52746096104168
-0.3417,-20.499166735044383
-0.3427000000000001,-20.640637865030882
-0.3437,-20.79625610801604
-0.3447000000000001,-20.85284456001064
-0.3457,-21.093345480987697
-0.3467000000000001,-21.079198367989047
-0.3477,-21.291405062968803
-0.3487000000000001,-21.43287619295531
-0.3497,-21.47531753195126
-0.3507000000000001,-21.68752422693101
-0.3517,-21.659230000933714
-0.3527000000000001,-21.828995356917517
-0.3537,-21.94217226090672
-0.3547000000000001,-21.97046648690402
-0.3557,-22.182673181883775
-0.35670000000000013,-22.210967407881075
-0.3577,-22.38073276386488
-0.35870000000000013,-22.564645232847337
-0.3597,-22.649527910839236
-0.36070000000000013,-22.946617283810895
-0.3617,-22.932470170812245
-0.3626999999999999,-23.102235526796047
-0.3637,-23.300295108777156
-0.3646999999999999,-23.385177786769056
-0.3657,-23.696414272739364
-0.3666999999999999,-23.753002724733967
-0.3677,-23.97935653271237
-0.3686999999999999,-24.17741611469348
-0.36970000000000003,-24.304740131681328
-0.3706999999999999,-24.61597661765164
-0.37170000000000003,-24.729153521640843
-0.3726999999999999,-25.026242894612498
-0.37370000000000003,-25.309185154585506
-0.3746999999999999,-25.49309762356796
-0.37570000000000003,-25.80433410953827
-0.3766999999999999,-25.91751101352747
-0.37770000000000004,-26.242894612496432
-0.3786999999999999,-26.59657243746269
-0.37970000000000004,-26.89366181043435
-0.3806999999999999,-27.40295787838576
-0.38170000000000004,-27.671753025360115
-0.38269999999999993,-28.209343319308836
-0.38370000000000004,-28.619609596269694
-0.38469999999999993,-29.044022986229205
-0.38570000000000004,-29.751378636161718
-0.38669999999999993,-28.379108675292635
-0.38570000000000004,-26.087276369511276
-0.38469999999999993,-24.814036199632742
-0.38370000000000004,-23.88032674172182
-0.38269999999999993,-23.286147995778503
-0.38170000000000004,-22.72026347583249
-0.3806999999999999,-22.46561544185678
-0.37970000000000004,-22.253408746877028
-0.3786999999999999,-21.98461359990267
-0.37770000000000004,-21.899730921910766
-0.3766999999999999,-21.61678866193776
-0.37570000000000003,-21.489464644949905
-0.3746999999999999,-21.333846401964752
-0.37370000000000003,-21.16408104598095
-0.3726999999999999,-21.19237527197825
-0.37170000000000003,-21.008462802995794
-0.3706999999999999,-21.008462802995794
-0.36970000000000003,-20.881138786007945
-0.3686999999999999,-20.711373430024135
-0.3677,-20.75381476902009
-0.3666999999999999,-20.569902300037633
-0.3657,-20.52746096104168
-0.3646999999999999,-20.42843117005113
-0.3637,-20.187930249074075
-0.3626999999999999,-20.117194684080822
-0.3617,-19.862546650105116
-0.36070000000000013,-19.791811085111863
-0.3597,-19.664487068124007
-0.35870000000000013,-19.452280373144255
-0.3577,-19.339103469155052
-0.35670000000000013,-18.92883719219419
-0.3557,-18.759071836210385
-0.3547000000000001,-18.617600706223882
-0.3537,-18.292217107254928
-0.3527000000000001,-18.164893090267068
-0.3517,-17.74047970030756
-0.3507000000000001,-17.542420118326454
-0.3497,-17.28777208435075
-0.3487000000000001,-16.90580003338719
-0.3477,-16.764328903400685
-0.3467000000000001,-16.354062626439823
-0.3457,-16.141855931460068
-0.3447000000000001,-15.816472332491113
-0.3437,-15.3920589425316
-0.3427000000000001,-15.179852247551842
-0.3417,-14.684703292599082
-0.3407000000000001,-14.401761032626075
-0.3397,-14.048083207659815
-0.3387000000000001,-13.616596261200979
-0.3377,-13.432683792218524
-0.3367000000000001,-12.929046569466571
-0.3357,-12.694204493688973
-0.3347000000000001,-12.36174733822069
-0.3337,-11.94299279346064
-0.3327000000000001,-11.74917734537913
-0.3317,-11.224319453129201
-0.3307000000000001,-10.949865460955383
-0.3297,-10.62589657328629
-0.3287000000000001,-10.205727317226374
-0.3277,-10.020400136944055
-0.3267000000000001,-9.546471851489269
-0.3257,-9.31162977571167
-0.3247000000000001,-8.991905021942173
-0.3237,-8.559003364183472
-0.3227000000000001,-8.387823296899802
-0.3217,-7.916724434044746
-0.3207000000000001,-7.69885889386553
-0.3197,-7.391866541794816
-0.3187000000000001,-6.968867863135171
-0.3177,-6.811834908850152
-0.3167000000000001,-6.363371426792935
-0.3157,-6.155408865712774
-0.3147000000000001,-5.8951019865376075
-0.3137,-5.535765316371888
-0.3127000000000001,-5.3815617846866
-0.3117,-4.9571483947270885
-0.3107000000000001,-4.749185833646928
-0.3097,-4.4846348205721664
-0.3087000000000001,-4.1295422843060425
-0.3077,-4.000803556018323
-0.3067000000000001,-3.6244903502542236
-0.30569999999999997,-3.4617985507697444
-0.3047000000000001,-3.2184682071929585
-0.30369999999999997,-2.9058170099227856
-0.3027000000000001,-2.8124460641316933
-0.30169999999999997,-2.437547569667458
-0.3007000000000001,-2.3045647074801447
-0.29969999999999997,-2.0866991673009294
-0.2987000000000001,-1.7980980621284617
-0.29769999999999996,-1.7061418276372344
-0.2967000000000001,-1.3823144110981274
-0.29569999999999996,-1.2528683271604766
-0.2947000000000001,-1.0434910547804512
-0.29369999999999996,-0.7841744735151899
-0.29270000000000007,-0.7128730240019919
-0.29169999999999996,-0.40333419159152195
-0.29070000000000007,-0.3064264675507669
-0.28969999999999996,-0.12921973012967244
-0.28870000000000007,0.1137852298481449
-0.28769999999999996,0.16877505807389886
-0.28670000000000007,0.45398085612669026
-0.28569999999999995,0.5571133098868515
-0.28470000000000006,0.7113168415721405
-0.28369999999999995,0.948563926559507
-0.28270000000000006,0.9682284136276312
-0.28169999999999995,1.2339111957422848
-0.28070000000000006,1.3189353448641736
-0.27969999999999995,1.4500790823616625
-0.27870000000000006,1.6594563547416883
-0.27769999999999995,1.6792623129397986
-0.27670000000000006,1.9197632339168547
-0.27569999999999995,1.9791811085111866
-0.27470000000000006,2.1008462802995793
-0.27369999999999994,2.3045647074801447
-0.27270000000000005,2.3201265317786604
-0.27169999999999994,2.536577360658011
-0.27070000000000005,2.5945805239524775
-0.26969999999999994,2.7148309844410052
