Potential V vs RHE, Current mA cm-2
0.013299999999999867,1.4472496597619326
0.012299999999999978,0.17896097943292713
0.011299999999999866,-0.5407026588084171
0.010299999999999976,-1.0316074798615846
0.009299999999999864,-1.423199567664227
0.008299999999999974,-1.7457537440334552
0.007299999999999862,-2.051331384804303
0.006299999999999972,-2.272026347583249
0.00529999999999986,-2.4417917035670533
0.0042999999999999705,-2.6356071516485633
0.0032999999999998586,-2.819519620631018
0.0022999999999999687,-3.006261512213203
0.0012999999999998568,-3.159050332598627
0.00029999999999996696,-3.2665683913883696
-0.000700000000000145,-3.3769158727778423
-0.0017000000000000348,-3.5169722914644814
-0.0027000000000001467,-3.6683464005500404
-0.0037000000000000366,-3.791426283638298
-0.0047000000000001485,-3.869235405130875
-0.005700000000000038,-3.975338752620753
-0.00670000000000015,-4.097003924409146
-0.00770000000000004,-4.201692560599159
-0.008700000000000152,-4.280916393391601
-0.009700000000000042,-4.367213782683368
-0.010700000000000154,-4.461999439774326
-0.011700000000000044,-4.575176343763529
-0.012700000000000156,-4.688353247752731
-0.013700000000000045,-4.766162369245309
-0.014700000000000157,-4.836897934238561
-0.015700000000000047,-4.896315808832893
-0.01670000000000016,-5.0052485789225
-0.01770000000000005,-5.109937215112512
-0.01870000000000016,-5.17642864620617
-0.01970000000000005,-5.235846520800501
-0.020700000000000163,-5.319314487492538
-0.021700000000000053,-5.407026588084171
-0.022700000000000164,-5.493323977375938
-0.023700000000000054,-5.5668889649689195
-0.024700000000000166,-5.640453952561901
-0.025700000000000056,-5.694212981956773
-0.026700000000000168,-5.764948546950024
-0.027700000000000058,-5.858319492741117
-0.02870000000000017,-5.914907944735719
-0.02970000000000006,-5.963008128931129
-0.03070000000000017,-6.064867342521412
-0.03170000000000006,-6.122870505815879
-0.03270000000000017,-6.224729719406161
-0.03370000000000006,-6.291221150499819
-0.034700000000000175,-6.328003644296309
-0.035700000000000065,-6.404398054489021
-0.03670000000000018,-6.487866021181058
-0.03770000000000007,-6.533136782776739
-0.03870000000000018,-6.574163410472826
-0.03970000000000007,-6.619434172068506
-0.04070000000000018,-6.6887550257618935
-0.04170000000000007,-6.765149435954606
-0.04270000000000018,-6.871252783444484
-0.04370000000000007,-6.95189132753679
-0.044700000000000184,-6.994332666532741
-0.045700000000000074,-7.018382758630446
-0.046700000000000186,-7.1089242818218095
-0.047700000000000076,-7.179659846815062
-0.04870000000000019,-7.236248298809663
-0.04970000000000008,-7.278689637805614
-0.05070000000000019,-7.311227997702509
-0.05170000000000008,-7.37347529489657
-0.05270000000000019,-7.48523748758591
-0.05370000000000008,-7.544655362180241
-0.05470000000000019,-7.555973052579161
-0.05570000000000008,-7.553143629979432
-0.056700000000000195,-7.630952751472008
-0.057700000000000085,-7.715835429463911
-0.058700000000000196,-7.7851562831572965
-0.059700000000000086,-7.831841756052842
-0.0607000000000002,-7.950677505241506
-0.06170000000000009,-8.000192400736783
-0.0627000000000002,-8.059610275331114
-0.06370000000000009,-8.124686995124907
-0.0647000000000002,-8.171372468020452
-0.06570000000000009,-8.182690158419373
-0.0667000000000002,-8.194007848818291
-0.0677000000000001,-8.295867062408576
-0.0687000000000002,-8.423191079396428
-0.0697000000000001,-8.393482142099263
-0.07070000000000021,-8.448655882793998
-0.0717000000000001,-8.52505029298671
-0.07270000000000021,-8.614177104878209
-0.0737000000000001,-8.691986226370785
-0.07470000000000021,-8.699059782870112
-0.0757000000000001,-8.772624770463093
-0.07670000000000021,-8.841945624156478
-0.0777000000000001,-8.863166293654455
-0.07870000000000021,-8.959366662045278
-0.0797000000000001,-9.02161395923934
-0.08070000000000022,-9.093764235532456
-0.0817000000000001,-9.160255666626112
-0.08270000000000022,-9.167329223125439
-0.08370000000000011,-9.276261993215044
-0.08470000000000022,-9.32577688871032
-0.08570000000000011,-9.351241692107893
-0.08670000000000022,-9.463003884797232
-0.08770000000000011,-9.552130696688728
-0.08870000000000022,-9.598816169584273
-0.08970000000000011,-9.663892889378065
-0.09070000000000022,-9.723310763972396
-0.09170000000000011,-9.796875751565379
-0.09270000000000023,-9.910052655554582
-0.09370000000000012,-9.935517458952152
-0.09470000000000023,-9.935517458952152
-0.09570000000000012,-9.993520622246619
-0.09670000000000023,-10.115185794035014
-0.09770000000000012,-10.183091936428536
-0.09870000000000023,-10.197239049427184
-0.09970000000000012,-10.259486346621246
-0.10070000000000023,-10.381151518409638
-0.10170000000000012,-10.412275167006669
-0.10270000000000024,-10.477351886800463
-0.10370000000000013,-10.518378514496549
-0.10470000000000024,-10.560819853492498
-0.10570000000000013,-10.60326119248845
-0.10670000000000024,-10.662679067082781
-0.10770000000000013,-10.765952991972927
-0.10870000000000024,-10.814053176168342
-0.10970000000000013,-10.822541443967529
-0.11070000000000024,-10.896106431560511
-0.11170000000000013,-10.924400657557813
-0.11270000000000002,-11.006453912949986
-0.11370000000000013,-11.06162765364472
-0.11470000000000002,-11.070115921443913
-0.11570000000000014,-11.138022063837434
-0.11670000000000003,-11.262516658225557
-0.11770000000000014,-11.309202131121104
-0.11870000000000003,-11.351643470117054
-0.11970000000000014,-11.362961160515976
-0.12070000000000003,-11.345984624917593
-0.12170000000000014,-11.382767118714085
-0.12270000000000003,-11.461990951506527
-0.12370000000000014,-11.508676424402074
-0.12470000000000003,-11.54687362949843
-0.12570000000000014,-11.56950901029627
-0.12670000000000003,-11.596388524993706
-0.12770000000000015,-11.712394851582639
-0.12870000000000004,-11.743518500179668
-0.12970000000000015,-11.699662449883853
-0.13070000000000004,-11.696833027284123
-0.13170000000000015,-11.723712541981559
-0.13270000000000004,-11.801521663474135
-0.13370000000000015,-11.836889445970762
-0.13470000000000004,-11.808595219973462
-0.13570000000000015,-11.82274233297211
-0.13670000000000004,-11.899136743164824
-0.13770000000000016,-11.918942701362935
-0.13870000000000005,-11.941578082160774
-0.13970000000000016,-11.97128701945794
-0.14070000000000005,-11.938748659561044
-0.14170000000000016,-11.952895772559694
-0.14270000000000005,-12.022216626253082
-0.14370000000000016,-12.037778450551597
-0.14470000000000005,-11.986848843756457
-0.14570000000000016,-11.958554617759154
-0.14670000000000005,-12.008069513254432
-0.14770000000000016,-12.051925563550247
-0.14870000000000005,-12.03070489405227
-0.14970000000000017,-12.029290182752407
-0.15070000000000006,-12.032119605352138
-0.15170000000000017,-12.066072676548897
-0.15270000000000006,-12.092952191246333
-0.15370000000000017,-12.049096140950518
-0.15470000000000006,-11.964213462958616
-0.15570000000000017,-11.98826355505632
-0.15670000000000006,-12.029290182752407
-0.15770000000000017,-12.006654801954566
-0.15870000000000006,-11.99392240025578
-0.15970000000000018,-11.93450452566145
-0.16070000000000007,-11.950066349959965
-0.16170000000000018,-11.957139906459291
-0.16270000000000007,-11.986848843756457
-0.16370000000000018,-12.010898935854163
-0.16470000000000007,-11.950066349959965
-0.16570000000000018,-11.880745496266577
-0.16670000000000007,-11.903380877064418
-0.16770000000000018,-11.87791607366685
-0.16870000000000007,-11.884989630166173
-0.16970000000000018,-11.815668776472787
-0.17070000000000007,-11.723712541981559
-0.17170000000000019,-11.754836190578589
-0.17270000000000008,-11.798692240874407
-0.1737000000000002,-11.795862818274676
-0.17470000000000008,-11.692588893384528
-0.1757000000000002,-11.623268039691142
-0.17670000000000008,-11.596388524993706
-0.1777000000000002,-11.613365060592086
-0.17870000000000008,-11.579411989395325
-0.1797000000000002,-11.54970305209816
-0.18070000000000008,-11.435111436809091
-0.1817000000000002,-11.418134901210712
-0.18270000000000008,-11.457746817606932
-0.1837000000000002,-11.402573076912194
-0.1847000000000001,-11.319105110220159
-0.1857000000000002,-11.312031553720834
-0.1867000000000001,-11.289396172922991
-0.1877000000000002,-11.33891106841827
-0.1887000000000001,-11.242710700027445
-0.1897000000000002,-11.17056042373433
-0.1907000000000001,-11.108313126540267
-0.1917000000000001,-11.104068992640675
-0.19269999999999998,-11.106898415240401
-0.1937000000000001,-11.04465111804634
-0.19469999999999998,-10.9654272852539
-0.1957000000000001,-10.898935854160243
-0.19669999999999999,-10.833859134366449
-0.1977000000000001,-10.843762113465505
-0.1987,-10.790003084070635
-0.1997000000000001,-10.686729159180487
-0.2007,-10.649946665383997
-0.2017000000000001,-10.666923200982376
-0.2027,-10.644287820184536
-0.2037000000000001,-10.621652439386695
-0.2047,-10.548087451793712
-0.2057000000000001,-10.45471650600262
-0.2067,-10.447642949503296
-0.2077000000000001,-10.461790062501947
-0.2087,-10.408031033107076
-0.2097000000000001,-10.313245376016118
-0.2107,-10.266559903120571
-0.2117000000000001,-10.245339233622596
-0.2127,-10.205727317226374
-0.2137000000000001,-10.185921359028264
-0.2147,-10.191580204227723
-0.2157000000000001,-10.171774246029615
-0.2167,-10.089720990637442
-0.21770000000000012,-10.099623969736497
-0.2187,-10.037376672542434
-0.21970000000000012,-9.977958797948103
-0.2207,-9.902979099055257
-0.22170000000000012,-9.84780535836052
-0.2227,-9.870440739158362
-0.22370000000000012,-9.870440739158362
-0.2247,-9.8364876679616
-0.22570000000000012,-9.765752102968348
-0.2267,-9.764337391668482
-0.22770000000000012,-9.786972772466322
-0.22870000000000001,-9.743116722170507
-0.22970000000000013,-9.710578362273612
-0.23070000000000002,-9.726140186572128
-0.23170000000000013,-9.683698847576176
-0.23270000000000002,-9.64550164247982
-0.23370000000000013,-9.607304437383464
-0.23470000000000002,-9.570521943586973
-0.23570000000000013,-9.587498479185355
-0.23670000000000002,-9.60306030348387
-0.2376999999999999,-9.601645592184004
-0.23870000000000002,-9.563448387087647
-0.2396999999999999,-9.53656887239021
-0.24070000000000003,-9.512518780292506
-0.24169999999999991,-9.530910027190751
-0.24270000000000003,-9.529495315890887
-0.24369999999999992,-9.532324738490617
-0.24470000000000003,-9.506859935093045
-0.24569999999999992,-9.472906863896286
-0.24670000000000003,-9.529495315890887
-0.24769999999999992,-9.547886562789131
-0.24870000000000003,-9.547886562789131
-0.24969999999999992,-9.523836470691428
-0.25070000000000003,-9.530910027190751
-0.2516999999999999,-9.525251181991292
-0.25270000000000004,-9.547886562789131
-0.2536999999999999,-9.564863098387514
-0.25470000000000004,-9.570521943586973
-0.2556999999999999,-9.540813006289808
-0.25670000000000004,-9.576180788786434
-0.25769999999999993,-9.61720741648252
-0.25870000000000004,-9.601645592184004
-0.25969999999999993,-9.595986746984543
-0.26070000000000004,-9.605889726083598
-0.26169999999999993,-9.61720741648252
-0.26270000000000004,-9.676625291076851
-0.26369999999999993,-9.69643124927496
-0.26470000000000005,-9.743116722170507
-0.26569999999999994,-9.728969609171857
-0.26670000000000005,-9.703504805774287
-0.26769999999999994,-9.784143349866595
-0.26870000000000005,-9.854878914859846
-0.26969999999999994,-9.778484504667134
-0.27070000000000005,-9.812437575863894
-0.27169999999999994,-9.870440739158362
-0.27270000000000005,-9.917126212053908
-0.27369999999999994,-9.962396973649588
-0.27470000000000006,-9.945420438051208
-0.27569999999999995,-9.946835149351072
-0.27670000000000006,-9.997764756146214
-0.27769999999999995,-10.058597342040411
-0.27870000000000006,-10.112356371435283
-0.27969999999999995,-10.091135701937308
-0.28070000000000006,-10.069915032439331
-0.28169999999999995,-10.118015216634742
-0.28270000000000006,-10.139235886132717
-0.28369999999999995,-10.292024706518141
-0.28470000000000006,-10.379736807109774
-0.28569999999999995,-10.330221911614498
-0.28670000000000007,-10.365589694111124
-0.28769999999999996,-10.351442581112472
-0.28870000000000007,-10.386810363609099
-0.28969999999999996,-10.464619485101677
-0.29070000000000007,-10.522622648396142
-0.29169999999999996,-10.504231401497897
-0.29270000000000007,-10.562234564792364
-0.29369999999999996,-10.664093778382647
-0.2947000000000001,-10.695217426979678
-0.29569999999999996,-10.700876272179137
-0.2967000000000001,-10.731999920776168
-0.29769999999999996,-10.809809042268745
-0.2987000000000001,-10.8480062473651
-0.29969999999999997,-10.856494515164291
-0.3007000000000001,-10.891862297660918
-0.30169999999999997,-10.958353728754572
-0.3027000000000001,-11.027674582447961
-0.30369999999999997,-11.078604189243103
-0.3047000000000001,-11.113971971739728
-0.30569999999999997,-11.135192641237705
-0.3067000000000001,-11.191781093232304
-0.3077,-11.343155202317865
-0.3087000000000001,-11.40398778821206
-0.3097,-11.385596541313816
-0.3107000000000001,-11.436526148108957
-0.3117,-11.515749980901399
-0.3127000000000001,-11.536970650399374
-0.3137,-11.623268039691142
-0.3147000000000001,-11.664294667387228
-0.3157,-11.679856491685744
-0.3167000000000001,-11.759080324478186
-0.3177,-11.855280692869009
-0.3187000000000001,-11.899136743164824
-0.3197,-11.937333948261179
-0.3207000000000001,-11.98260470985686
-0.3217,-12.064657965249033
-0.3227000000000001,-12.175005446638504
-0.3237,-12.233008609932972
-0.3247000000000001,-12.262717547230139
-0.3257,-12.309403020125684
-0.3267000000000001,-12.37023560601988
-0.3277,-12.474924242209893
-0.3287000000000001,-12.582442300999638
-0.3297,-12.658836711192349
-0.3307000000000001,-12.705522184087895
-0.3317,-12.831431489775884
-0.3327000000000001,-12.950267238964546
-0.3337,-13.018173381358068
-0.3347000000000001,-13.043638184755638
-0.3357,-13.192182871241465
-0.3367000000000001,-13.301115641331073
-0.3377,-13.411463122720548
-0.3387000000000001,-13.585472612603946
-0.3397,-13.68733182619423
-0.3407000000000001,-13.711381918291936
-0.3417,-13.8868061194752
-0.3427000000000001,-14.025447826861972
-0.3437,-14.189554337646317
-0.3447000000000001,-14.373466806628771
-0.3457,-14.529085049613924
-0.3467000000000001,-14.69885040559773
-0.3477,-14.925204213576137
-0.3487000000000001,-15.123263795557243
-0.3497,-15.349617603535648
-0.3507000000000001,-15.604265637511356
-0.3517,-15.87306078448571
-0.3527000000000001,-16.25503283544927
-0.3537,-16.55212220842093
-0.3547000000000001,-16.835064468393938
-0.3557,-17.2736249713521
-0.35670000000000013,-17.655597022315657
-0.3577,-18.19318731626437
-0.35870000000000013,-18.88639585319824
-0.3597,-19.49472171214021
-0.36070000000000013,-20.13134179707947
-0.3617,-20.994315689997144
-0.3626999999999999,-21.99876071290132
-0.3637,-23.102235526796047
-0.3646999999999999,-24.27644590568403
-0.3657,-25.634568753554465
-0.3666999999999999,-27.204898296404657
-0.3677,-28.97328742123595
-0.3686999999999999,-31.08120725803486
-0.36970000000000003,-33.203274207832415
-0.3706999999999999,-35.297046931632664
-0.37170000000000003,-37.687909028404576
-0.3726999999999999,-40.545625854131956
-0.37370000000000003,-43.134547532884966
-0.3746999999999999,-45.86494034162449
-0.37570000000000003,-48.83583407134107
-0.3766999999999999,-51.792580688059
-0.37770000000000004,-54.70688596578097
-0.3786999999999999,-58.00316329446651
-0.37970000000000004,-61.29944062315204
-0.3806999999999999,-64.36936414385917
-0.38170000000000004,-67.70808281154066
-0.38269999999999993,-71.0043601402262
-0.38370000000000004,-74.58357972888473
-0.38469999999999993,-77.99303396155948
-0.38570000000000004,-81.33175262924095
-0.38669999999999993,-82.8596408330952
-0.38570000000000004,-83.029406189079
-0.38469999999999993,-83.75090895201016
-0.38370000000000004,-84.13288100297372
-0.38269999999999993,-84.37338192395079
-0.38170000000000004,-84.72705974891704
-0.3806999999999999,-84.96756066989411
-0.37970000000000004,-85.06659046088465
-0.3786999999999999,-85.052443347886
-0.37770000000000004,-84.81194242690896
-0.3766999999999999,-84.58558861893054
-0.37570000000000003,-84.26020501996159
-0.3746999999999999,-84.14702811597239
-0.37370000000000003,-83.86408585599938
-0.3726999999999999,-83.15673020606685
-0.37170000000000003,-82.78890526810196
-0.3706999999999999,-82.39278610413973
-0.36970000000000003,-82.39278610413973
-0.3686999999999999,-81.88349003618832
-0.3677,-81.16198727325715
-0.3666999999999999,-80.93563346527876
-0.3657,-80.45463162332464
-0.3646999999999999,-79.70483463439616
-0.3637,-79.1530972274488
-0.3626999999999999,-78.44574157751629
-0.3617,-77.66765036259052
-0.36070000000000013,-77.05932450364854
-0.3597,-76.33782174071737
-0.35870000000000013,-75.31922960481455
-0.3577,-74.35722592090633
-0.35670000000000013,-73.74890006196436
-0.3557,-72.63127813507097
-0.3547000000000001,-71.6551273381641
-0.3537,-70.80630055824508
-0.3527000000000001,-69.84429687433686
-0.3517,-68.75496917344077
-0.3507000000000001,-67.79296548953256
-0.3497,-66.66119644964053
-0.3487000000000001,-65.57186874874445
-0.3477,-64.36936414385917
-0.3467000000000001,-63.49224313794284
-0.3457,-62.459503889041365
-0.3447000000000001,-61.12967526716824
-0.3437,-59.983759114277554
-0.3427000000000001,-58.83784296138688
-0.3417,-57.7768094864881
-0.3407000000000001,-57.012865384560975
-0.3397,-56.30550973462846
-0.3387000000000001,-54.975681112755325
-0.3377,-53.603411151886235
-0.3367000000000001,-52.37261232100366
-0.3357,-51.29743173310623
-0.3347000000000001,-50.3637222751953
-0.3337,-49.26024746130057
-0.3327000000000001,-48.156772647405845
-0.3317,-47.02500360751382
-0.3307000000000001,-45.949823019616396
-0.3297,-44.73317130173246
-0.3287000000000001,-43.558960922844484
-0.3277,-42.51207456094435
-0.3267000000000001,-41.606659329030734
-0.3257,-40.630508532123855
-0.3247000000000001,-39.55532794422642
-0.3237,-38.49429446932764
-0.3227000000000001,-37.48984944642347
-0.3217,-36.5136986495166
-0.3207000000000001,-35.45266517461782
-0.3197,-34.53310282970554
-0.3187000000000001,-33.712570275783825
-0.3177,-32.6090954618891
-0.3167000000000001,-31.64709177798087
-0.3157,-30.741676546067247
-0.3147000000000001,-29.935291105144174
-0.3137,-29.114758551222454
-0.3127000000000001,-28.15275486731423
-0.3117,-27.303928087395207
-0.3107000000000001,-26.511689759470787
-0.3097,-25.648715866553115
-0.3087000000000001,-24.799889086634096
-0.3077,-24.035944984706973
-0.3067000000000001,-23.229559543783903
-0.30569999999999997,-22.493909667854084
-0.3047000000000001,-21.885583808912116
-0.30369999999999997,-21.093345480987697
-0.3027000000000001,-20.25866581406732
-0.30169999999999997,-19.73522263311726
-0.3007000000000001,-19.056161209182044
-0.29969999999999997,-18.306364220253574
-0.2987000000000001,-17.584861457322408
-0.29769999999999996,-16.962388485381787
-0.2967000000000001,-16.29747417444522
-0.29569999999999996,-15.689148315503255
-0.2947000000000001,-15.151558021554543
-0.29369999999999996,-14.57152638860988
-0.29270000000000007,-13.939150437570206
-0.29169999999999996,-13.349215825526485
-0.29070000000000007,-12.832846201075748
-0.28969999999999996,-12.292426484527304
-0.28870000000000007,-11.774642148776701
-0.28769999999999996,-11.276663771224207
-0.28670000000000007,-10.753220590274143
-0.28569999999999995,-10.287780572618546
-0.28470000000000006,-9.840731801861196
-0.28369999999999995,-9.362559382506815
-0.28270000000000006,-8.877313406653105
-0.28169999999999995,-8.433094058495483
-0.28070000000000006,-8.055366141431518
-0.27969999999999995,-7.670564667868228
-0.27870000000000006,-7.258883679607503
-0.27769999999999995,-6.844373268747047
-0.27670000000000006,-6.4793777533818675
-0.27569999999999995,-6.155408865712774
-0.27470000000000006,-5.811634019845571
-0.27369999999999994,-5.463615040078771
-0.27270000000000005,-5.084472411714942
-0.27169999999999994,-4.759088812745984
-0.27070000000000005,-4.476146552772976
-0.26969999999999994,-4.21018082839835
-0.26870000000000005,-3.9116767441268263
-0.26769999999999994,-3.630149195453684
-0.26670000000000005,-3.307595019084456
