Potential V vs RHE, Current mA cm-2
0.05339999999999995,5.421173701082821
0.05239999999999995,5.315070353592943
0.051399999999999946,5.1863316253052245
0.050399999999999945,5.067495876116562
0.049399999999999944,4.955733683427223
0.04839999999999994,4.846800913337615
0.04739999999999994,4.7406975658477375
0.04639999999999994,4.636008929657725
0.04539999999999994,4.529905582167847
0.04439999999999994,4.426631657277699
0.04339999999999994,4.3205283097878215
0.04239999999999994,4.217254384897673
0.04139999999999994,4.113980460007527
0.040399999999999936,4.0121212464172435
0.039399999999999935,3.9116767441268263
0.038399999999999934,3.8098175305365434
0.03739999999999993,3.7093730282461257
0.03639999999999993,3.6117579485554394
0.03539999999999993,3.5141428688647514
0.03439999999999993,3.4179425004739286
0.03339999999999993,3.321742132083106
0.03239999999999993,3.2269564749921487
0.03139999999999993,3.1335855292010564
0.030399999999999927,3.041629294709829
0.029399999999999926,2.949673060218602
0.028399999999999925,2.859131537027239
0.027399999999999924,2.770004725135742
0.026399999999999924,2.6808779132442444
0.025399999999999923,2.5945805239524775
0.024399999999999922,2.50828313466071
0.02339999999999992,2.4219857453689424
0.02239999999999992,2.3385177786769056
0.02139999999999992,2.2564645232847336
0.020399999999999918,2.174411267892561
0.019399999999999917,2.0937727238002544
0.018399999999999916,2.014548891007812
0.017399999999999916,1.9367397695152353
0.016399999999999915,1.8589306480226582
0.015399999999999914,1.7825362378299463
0.014399999999999913,1.7089712502369643
0.013399999999999912,1.6339915513441174
0.012399999999999911,1.5618412750510005
0.01139999999999991,1.4896909987578837
0.01039999999999991,1.4189554337646317
0.009399999999999908,1.350766349111137
0.008399999999999908,1.2825772644576423
0.007399999999999907,1.2152370065840665
0.006399999999999906,1.1495944022703288
0.005399999999999905,1.0848006247365103
0.004399999999999904,1.0214215585025566
0.003399999999999903,0.9588913190485219
0.002399999999999902,0.8967854929844468
0.0013999999999999013,0.8366602627401827
0.00039999999999990044,0.7776668015358106
-0.0006000000000001005,0.7195221671113576
-0.0016000000000001013,0.6625093017267967
-0.0026000000000001022,0.6057793786022087
-0.003600000000000103,0.5508885801674454
-0.004600000000000104,0.49727102190256034
-0.005600000000000105,0.444360819287608
-0.006600000000000106,0.39258238571254767
-0.007600000000000107,0.34108689439746037
-0.008600000000000108,0.29100611438223806
-0.009600000000000108,0.24276445905684027
-0.01060000000000011,0.19494721712140206
-0.01160000000000011,0.14741291744593682
-0.012600000000000111,0.09965226396249319
-0.013600000000000112,0.053589264038887585
-0.014600000000000113,0.01010103868103636
-0.015600000000000114,-0.03289203772186211
-0.016600000000000115,-0.07567290742978082
-0.017600000000000116,-0.1176049503577805
-0.018600000000000116,-0.1587306078448571
-0.019600000000000117,-0.19820105311109162
-0.020600000000000118,-0.23696414272739363
-0.02160000000000012,-0.27572723234369567
-0.02260000000000012,-0.31378296631006514
-0.02360000000000012,-0.3509898734965156
-0.024600000000000122,-0.3869235405130875
-0.025600000000000123,-0.42172543848976746
-0.026600000000000124,-0.45666880759643386
-0.027600000000000124,-0.4911877633131407
-0.028600000000000125,-0.5248578922499286
-0.029600000000000126,-0.5573962521468245
-0.030600000000000127,-0.5890857852638013
-0.03160000000000013,-0.6209167895107646
-0.03260000000000013,-0.6523233803677684
-0.03360000000000013,-0.6828811444448531
-0.03460000000000002,-0.7127315528720055
-0.03560000000000002,-0.7415916633892523
-0.03660000000000002,-0.7705932450364854
-0.03760000000000002,-0.7997362978137053
-0.03860000000000002,-0.8278890526810195
-0.039600000000000024,-0.8547685673784552
-0.040600000000000025,-0.8813651398159178
-0.041600000000000026,-0.9079617122533805
-0.04260000000000003,-0.9346997558208296
-0.04360000000000003,-0.9603060303483869
-0.04460000000000003,-0.9854878914859844
-0.04560000000000003,-1.0102453392336226
-0.04660000000000003,-1.0344369024613147
-0.04760000000000003,-1.0593358213389397
-0.04860000000000003,-1.0832444423066585
-0.04960000000000003,-1.1063042364944589
-0.050600000000000034,-1.1296469729422318
-0.051600000000000035,-1.1525652960000454
-0.052600000000000036,-1.1753421479278725
-0.053600000000000037,-1.1978360575957268
-0.05460000000000004,-1.219339669353675
-0.05560000000000004,-1.2407018099816371
-0.05660000000000004,-1.2624883639995588
-0.05760000000000004,-1.284416389147467
-0.05860000000000004,-1.305495587515456
-0.05960000000000004,-1.3258674302335123
-0.06060000000000004,-1.3458148595616095
-0.061600000000000044,-1.366469644539639
-0.06260000000000004,-1.3868414872576953
-0.06360000000000005,-1.4072133299757519
-0.06460000000000005,-1.426028990263957
-0.06560000000000005,-1.4458349484620676
-0.06660000000000005,-1.4656409066601779
-0.06760000000000005,-1.4854468648582886
-0.06860000000000005,-1.5038381117565338
-0.06960000000000005,-1.5222293586547795
-0.07060000000000005,-1.540620605553025
-0.07160000000000005,-1.5590118524512704
-0.07260000000000005,-1.5788178106493809
-0.07360000000000005,-1.5957943462477613
-0.07460000000000006,-1.614185593146007
-0.07560000000000006,-1.6311621287443874
-0.07660000000000006,-1.6495533756426328
-0.07760000000000006,-1.6679446225408785
-0.07860000000000006,-1.6849211581392587
-0.07960000000000006,-1.7033124050375041
-0.08060000000000006,-1.7188742293360195
-0.08160000000000006,-1.7358507649344
-0.08260000000000006,-1.7542420118326456
-0.08360000000000006,-1.771218547431026
-0.08460000000000006,-1.7881950830294064
-0.08560000000000006,-1.8037569073279218
-0.08660000000000007,-1.8207334429263025
-0.08760000000000007,-1.8377099785246829
-0.08860000000000007,-1.8546865141230628
-0.08960000000000007,-1.8702483384215782
-0.09060000000000007,-1.8858101627200938
-0.09160000000000007,-1.9027866983184742
-0.09260000000000007,-1.9183485226169896
-0.09360000000000007,-1.93532505821537
-0.09460000000000007,-1.9494721712140204
-0.09560000000000007,-1.9650339955125358
-0.09660000000000007,-1.9820105311109162
-0.09760000000000008,-1.9975723554094316
-0.09860000000000008,-2.013134179707947
-0.09960000000000008,-2.0272812927065975
-0.10060000000000008,-2.042843117005113
-0.10160000000000008,-2.0584049413036287
-0.10260000000000008,-2.073966765602144
-0.10360000000000008,-2.0895285899006595
-0.10460000000000008,-2.10367570289931
-0.10560000000000008,-2.11782281589796
-0.10660000000000008,-2.133384640196476
-0.10760000000000008,-2.148946464494991
-0.10860000000000009,-2.1630935774936413
-0.10960000000000009,-2.177240690492291
-0.11060000000000009,-2.1913878034909415
-0.11160000000000009,-2.205534916489592
-0.11260000000000009,-2.2210967407881075
-0.11360000000000009,-2.235243853786758
-0.11460000000000009,-2.250805678085273
-0.11560000000000009,-2.2649527910839233
-0.11660000000000009,-2.279099904082574
-0.1176000000000001,-2.2946617283810897
-0.1186000000000001,-2.307394130079875
-0.1196000000000001,-2.321541243078525
-0.1206000000000001,-2.3356883560771755
-0.1216000000000001,-2.348420757775961
-0.1226000000000001,-2.362567870774611
-0.1236000000000001,-2.3767149837732613
-0.1246000000000001,-2.389447385472047
-0.1256000000000001,-2.4035944984706976
-0.1266000000000001,-2.4163269001694827
-0.1276000000000001,-2.430474013168133
-0.1286000000000001,-2.4432064148669186
-0.1296000000000001,-2.4559388165657037
-0.1306000000000001,-2.468671218264489
-0.1316000000000001,-2.4828183312631396
-0.1326000000000001,-2.4955507329619246
-0.1336000000000001,-2.509697845960575
-0.1346000000000001,-2.5210155363594953
-0.1356000000000001,-2.533747938058281
-0.1366000000000001,-2.546480339757066
-0.1376000000000001,-2.5592127414558514
-0.1386000000000001,-2.5719451431546365
-0.1396000000000001,-2.583262833553557
-0.1406000000000001,-2.5959952352523423
-0.14160000000000011,-2.6073129256512626
-0.14260000000000012,-2.6200453273500477
-0.14360000000000012,-2.631363017748968
-0.14460000000000012,-2.6426807081478887
-0.14560000000000012,-2.6539983985468085
-0.14660000000000012,-2.6653160889457292
-0.14760000000000012,-2.6780484906445143
-0.14860000000000012,-2.689366181043435
-0.14960000000000012,-2.700683871442355
-0.15060000000000012,-2.7105868505414104
-0.15160000000000012,-2.7219045409403306
-0.15260000000000012,-2.7332222313392514
-0.15360000000000013,-2.744539921738171
-0.15460000000000013,-2.7558576121370915
-0.15560000000000013,-2.765760591236147
-0.15660000000000013,-2.775663570335202
-0.15760000000000013,-2.7869812607341222
-0.15860000000000013,-2.798298951133043
-0.15960000000000002,-2.8082019302320975
-0.16060000000000002,-2.818104909331153
-0.16160000000000002,-2.8294225997300737
-0.16260000000000002,-2.840740290128994
-0.16360000000000002,-2.8506432692280486
-0.16460000000000002,-2.8605462483271045
-0.16560000000000002,-2.8718639387260247
-0.16660000000000003,-2.8845963404248094
-0.16760000000000003,-2.8959140308237297
-0.16860000000000003,-2.9058170099227856
-0.16960000000000003,-2.91571998902184
-0.17060000000000003,-2.925622968120896
-0.17160000000000003,-2.9369406585198163
-0.17260000000000003,-2.9482583489187366
-0.17360000000000003,-2.9595760393176564
-0.17460000000000003,-2.9694790184167124
-0.17560000000000003,-2.9793819975157674
-0.17660000000000003,-2.990699687914687
-0.17760000000000004,-3.003432089613473
-0.17860000000000004,-3.0147497800123935
-0.17960000000000004,-3.0260674704113137
-0.18060000000000004,-3.0387998721100984
-0.18160000000000004,-3.050117562509019
-0.18260000000000004,-3.0628499642078046
-0.18360000000000004,-3.0755823659065897
-0.18460000000000004,-3.0883147676053753
-0.18560000000000004,-3.10104716930416
-0.18660000000000004,-3.1151942823028107
-0.18760000000000004,-3.129341395301461
-0.18860000000000005,-3.1434885083001114
-0.18960000000000005,-3.1576356212987617
-0.19060000000000005,-3.171782734297412
-0.19160000000000005,-3.1873445585959277
-0.19260000000000005,-3.202906382894443
-0.19360000000000005,-3.2184682071929585
-0.19460000000000005,-3.2340300314914736
-0.19560000000000005,-3.2510065670898545
-0.19660000000000005,-3.2665683913883696
-0.19760000000000005,-3.2849596382866153
-0.19860000000000005,-3.3019361738849957
-0.19960000000000006,-3.3203274207832414
-0.20060000000000006,-3.3387186676814866
-0.20160000000000006,-3.357109914579732
-0.20260000000000006,-3.3769158727778423
-0.20360000000000006,-3.3967218309759533
-0.20460000000000006,-3.4165277891740633
-0.20560000000000006,-3.436333747372174
-0.20660000000000006,-3.4575544168701495
-0.20760000000000006,-3.4787750863681253
-0.20860000000000006,-3.5014104671659654
-0.20960000000000006,-3.522631136663941
-0.21060000000000006,-3.545266517461782
-0.21160000000000007,-3.569316609559488
-0.21260000000000007,-3.593366701657193
-0.21360000000000007,-3.6174167937548987
-0.21460000000000007,-3.641466885852605
-0.21560000000000007,-3.6655169779503103
-0.21660000000000007,-3.6923964926477457
-0.21760000000000007,-3.7192760073451816
-0.21860000000000007,-3.7461555220426166
-0.21960000000000007,-3.7716203254401877
-0.22060000000000007,-3.798499840137624
-0.22160000000000007,-3.8267940661349247
-0.22260000000000008,-3.855088292132225
-0.22360000000000008,-3.8833825181295256
-0.22460000000000008,-3.9116767441268263
-0.22560000000000008,-3.939970970124127
-0.22660000000000008,-3.969679907421293
-0.22760000000000008,-3.999388844718459
-0.22860000000000008,-4.030512493315489
-0.22960000000000008,-4.06163614191252
-0.23060000000000008,-4.091345079209686
-0.23160000000000008,-4.122468727806717
-0.23260000000000008,-4.155007087703612
-0.23360000000000009,-4.187545447600509
-0.2346000000000001,-4.218669096197539
-0.2356000000000001,-4.251207456094435
-0.2366000000000001,-4.283745815991331
-0.2376000000000001,-4.317698887188092
-0.2386000000000001,-4.350237247084988
-0.2396000000000001,-4.382775606981883
-0.2406000000000001,-4.416728678178644
-0.2416000000000001,-4.449267038075541
-0.2426000000000001,-4.4846348205721664
-0.2436000000000001,-4.518587891768927
-0.2446000000000001,-4.552540962965688
-0.2456000000000001,-4.585079322862584
-0.2466000000000001,-4.62044710535921
-0.2476000000000001,-4.654400176555971
-0.2486000000000001,-4.688353247752731
-0.2496000000000001,-4.722306318949492
-0.2506000000000001,-4.756259390146253
-0.2516000000000001,-4.790212461343015
-0.2526000000000001,-4.824165532539776
-0.2536000000000001,-4.8581186037365365
-0.2546000000000001,-4.889242252333567
-0.2556000000000001,-4.923195323530328
-0.2566000000000001,-4.955733683427223
-0.2576000000000001,-4.98827204332412
-0.2586000000000001,-5.01939569192115
-0.2596000000000001,-5.050519340518181
-0.2606000000000001,-5.0816429891152115
-0.2616000000000001,-5.111351926412377
-0.2626000000000001,-5.142475575009408
-0.2636000000000001,-5.170769801006709
-0.2646000000000001,-5.19906402700401
-0.2656000000000001,-5.2259435417014455
-0.2666000000000001,-5.252823056398881
-0.2676000000000001,-5.279702571096316
-0.2686000000000001,-5.303752663194023
-0.2696000000000001,-5.326388043991862
-0.2706000000000001,-5.347608713489839
-0.2716000000000001,-5.368829382987815
-0.2726000000000001,-5.3900500524857895
-0.2736000000000001,-5.408441299384036
-0.2746000000000001,-5.42400312368255
-0.2756000000000001,-5.439564947981066
-0.2766000000000001,-5.452297349679851
-0.2776000000000001,-5.463615040078771
-0.2786000000000001,-5.473518019177827
-0.2796000000000001,-5.482006286977017
-0.2806000000000001,-5.487665132176478
-0.28160000000000013,-5.490494554776207
-0.28260000000000013,-5.493323977375938
-0.28360000000000013,-5.491909266076072
-0.2846,-5.487665132176478
-0.2856,-5.482006286977017
-0.2866,-5.473518019177827
-0.2876,-5.463615040078771
-0.2886,-5.450882638379986
-0.2896,-5.433906102781606
-0.2906,-5.4169295671832245
-0.2916,-5.39570889768525
-0.2926,-5.374488228187275
-0.2936,-5.3504381360895685
-0.29460000000000003,-5.323558621392133
-0.29560000000000003,-5.293849684094967
-0.29660000000000003,-5.264140746797801
-0.29760000000000003,-5.23301709820077
-0.29860000000000003,-5.200478738303874
-0.29960000000000003,-5.166525667107114
-0.30060000000000003,-5.132572595910353
-0.30160000000000003,-5.098619524713592
-0.30260000000000004,-5.063251742216966
-0.30360000000000004,-5.027883959720341
-0.30460000000000004,-4.992516177223715
-0.30560000000000004,-4.9571483947270885
-0.30660000000000004,-4.923195323530328
-0.30760000000000004,-4.890656963633432
-0.30860000000000004,-4.8581186037365365
-0.30960000000000004,-4.826994955139505
-0.31060000000000004,-4.795871306542475
-0.31160000000000004,-4.767577080545174
-0.31260000000000004,-4.742112277147603
-0.31360000000000005,-4.718062185049897
-0.31460000000000005,-4.694012092952192
-0.31560000000000005,-4.672791423454216
-0.31660000000000005,-4.654400176555971
-0.31760000000000005,-4.63742364095759
-0.31860000000000005,-4.623276527958939
-0.31960000000000005,-4.610544126260154
-0.32060000000000005,-4.599226435861234
-0.32160000000000005,-4.5893234567621795
-0.32260000000000005,-4.582249900262854
-0.32360000000000005,-4.575176343763529
-0.32460000000000006,-4.569517498564068
-0.32560000000000006,-4.566688075964338
-0.32660000000000006,-4.5638586533646075
-0.32760000000000006,-4.5638586533646075
-0.32860000000000006,-4.562443942064744
-0.32960000000000006,-4.562443942064744
-0.33060000000000006,-4.5638586533646075
-0.33160000000000006,-4.5638586533646075
-0.33260000000000006,-4.566688075964338
-0.33360000000000006,-4.569517498564068
-0.33460000000000006,-4.570932209863933
-0.33560000000000006,-4.573761632463664
-0.33660000000000007,-4.5765910550633935
-0.33760000000000007,-4.578005766363259
-0.33860000000000007,-4.580835188962989
-0.33960000000000007,-4.583664611562719
-0.34060000000000007,-4.585079322862584
-0.34160000000000007,-4.586494034162449
-0.34260000000000007,-4.587908745462314
-0.34360000000000007,-4.5893234567621795
-0.3446000000000001,-4.5893234567621795
-0.3456000000000001,-4.587908745462314
-0.3466000000000001,-4.587908745462314
-0.34759999999999996,-4.586494034162449
-0.3486000000000001,-4.585079322862584
-0.34959999999999997,-4.582249900262854
-0.3506000000000001,-4.578005766363259
-0.35159999999999997,-4.575176343763529
-0.3526000000000001,-4.570932209863933
-0.35359999999999997,-4.565273364664473
-0.3546000000000001,-4.558199808165148
-0.35559999999999997,-4.551126251665823
-0.3566000000000001,-4.544052695166498
-0.3576,-4.535564427367307
-0.3586000000000001,-4.527076159568118
-0.3596,-4.5171731804690625
-0.3606000000000001,-4.505855490070142
-0.3616,-4.493123088371357
-0.3626000000000001,-4.481805397972437
-0.3636,-4.470487707573516
-0.3646000000000001,-4.456340594574866
-0.3656,-4.44077877027635
-0.3666000000000001,-4.426631657277699
-0.3676,-4.411069832979184
-0.3686000000000001,-4.395508008680669
-0.3696,-4.377116761782423
-0.3706000000000001,-4.360140226184043
-0.3716,-4.343163690585662
-0.3726000000000001,-4.324772443687417
-0.3736,-4.3063811967891725
-0.3746000000000001,-4.285160527291196
-0.3756,-4.265354569093086
-0.3766000000000001,-4.24413389959511
-0.3776,-4.224327941396999
-0.3786000000000001,-4.203107271899024
-0.3796,-4.181886602401049
-0.3806000000000001,-4.159251221603208
-0.3816,-4.136615840805367
-0.3826000000000001,-4.115395171307392
-0.3836,-4.09275979050955
-0.3846000000000001,-4.070124409711711
-0.3856,-4.046074317614004
-0.3866000000000001,-4.023438936816164
-0.3876,-4.000803556018323
-0.3886000000000001,-3.9781681752204827
-0.3896,-3.9541180831227782
-0.3906000000000001,-3.931482702324937
-0.3916,-3.9074326102272314
-0.3926000000000001,-3.884797229429391
-0.3936,-3.8607471373316855
-0.3946000000000001,-3.838111756533844
-0.3956,-3.8140616644361387
-0.3966000000000001,-3.791426283638298
-0.3976,-3.7702056141403233
-0.3986000000000001,-3.747570233342482
-0.3996,-3.7235201412447765
-0.4006000000000001,-3.700884760446936
-0.4016,-3.678249379649095
-0.4026000000000001,-3.65702871015112
-0.4036,-3.6358080406531443
-0.4046000000000001,-3.6131726598553033
-0.4056,-3.591951990357328
-0.40660000000000013,-3.5707313208593527
-0.4076,-3.5495106513613774
-0.40860000000000013,-3.5297046931632665
-0.4096,-3.508484023665291
-0.41060000000000013,-3.4872633541673155
-0.4116,-3.4674573959692045
-0.41260000000000013,-3.4490661490709593
-0.4136,-3.4292601908728493
-0.41460000000000014,-3.4094542326747383
-0.4156,-3.389648274476628
-0.41660000000000014,-3.371257027578382
-0.4176,-3.352865780680137
-0.41860000000000014,-3.3344745337818917
-0.41960000000000003,-3.317497998183511
-0.42060000000000014,-3.2991067512852656
-0.42160000000000003,-3.2821302156868852
-0.42260000000000014,-3.2665683913883696
-0.42360000000000003,-3.249591855789989
-0.42460000000000014,-3.232615320191609
-0.42560000000000003,-3.2156387845932284
-0.42660000000000015,-3.200076960294713
-0.42760000000000004,-3.1845151359961976
-0.42860000000000015,-3.168953311697682
-0.42960000000000004,-3.153391487399167
-0.43060000000000015,-3.1378296631006513
-0.43160000000000004,-3.123682550102001
-0.43260000000000015,-3.1095354371033506
-0.43360000000000004,-3.0953883241047
-0.43460000000000015,-3.08124121110605
-0.43560000000000004,-3.0685088094072643
-0.43660000000000015,-3.055776407708479
-0.43760000000000004,-3.043044006009694
-0.43860000000000016,-3.0303116043109086
-0.43960000000000005,-3.0175792026121235
-0.44060000000000016,-3.004846800913338
-0.44160000000000005,-2.9935291105144173
-0.44260000000000016,-2.9822114201154974
-0.44360000000000005,-2.972308441016442
-0.44460000000000016,-2.9609907506175217
-0.44560000000000005,-2.949673060218602
-0.44660000000000016,-2.9397700811195464
-0.44760000000000005,-2.9298671020204905
-0.44860000000000017,-2.9213788342213007
-0.44960000000000006,-2.9114758551222453
-0.45060000000000017,-2.90157287602319
-0.45160000000000006,-2.893084608224
-0.45260000000000017,-2.8845963404248094
-0.45360000000000006,-2.8761080726256196
-0.45460000000000017,-2.867619804826429
-0.45560000000000006,-2.8605462483271045
