Sept. 15, 2024   15:28:50
Linear Sweep Voltammetry
File: c:/users/guazh/data/20240903_batch_252_500/2024-09-03-exp361\regeneratedgce-2024-09-15t15_25_48-lsvinkoh\regeneratedgce_lsv_50mvs_efin_-1700mv.bin
Data Source:  Experiment
Instrument Model:  CHI760E
Header: LSV ran at 50 mVs with Efin at -1700mV
Note: 

Init E (V) = -0.6
Final E (V) = -1.7
Scan Rate (V/s) = 0.05
Sample Interval (V) = 0.001
Quiet Time (sec) = 2
Sensitivity (A/V) = 1e-4
Comp R (ohm) = 2.9

Results:

Channel 1:

Potential/V, Current/A

-0.600, 1.204e-6
-0.601, 1.302e-6
-0.602, 1.330e-6
-0.603, 1.343e-6
-0.604, 1.353e-6
-0.605, 1.358e-6
-0.606, 1.367e-6
-0.607, 1.372e-6
-0.608, 1.380e-6
-0.609, 1.387e-6
-0.610, 1.392e-6
-0.611, 1.397e-6
-0.612, 1.403e-6
-0.613, 1.407e-6
-0.614, 1.413e-6
-0.615, 1.419e-6
-0.616, 1.423e-6
-0.617, 1.427e-6
-0.618, 1.432e-6
-0.619, 1.435e-6
-0.620, 1.442e-6
-0.621, 1.444e-6
-0.622, 1.450e-6
-0.623, 1.454e-6
-0.624, 1.459e-6
-0.625, 1.464e-6
-0.626, 1.465e-6
-0.627, 1.469e-6
-0.628, 1.474e-6
-0.629, 1.477e-6
-0.630, 1.483e-6
-0.631, 1.486e-6
-0.632, 1.491e-6
-0.633, 1.495e-6
-0.634, 1.498e-6
-0.635, 1.502e-6
-0.636, 1.506e-6
-0.637, 1.507e-6
-0.638, 1.513e-6
-0.639, 1.517e-6
-0.640, 1.523e-6
-0.641, 1.525e-6
-0.642, 1.528e-6
-0.643, 1.532e-6
-0.644, 1.537e-6
-0.645, 1.540e-6
-0.646, 1.545e-6
-0.647, 1.548e-6
-0.648, 1.552e-6
-0.649, 1.556e-6
-0.650, 1.557e-6
-0.651, 1.562e-6
-0.652, 1.565e-6
-0.653, 1.570e-6
-0.654, 1.574e-6
-0.655, 1.579e-6
-0.656, 1.581e-6
-0.657, 1.586e-6
-0.658, 1.588e-6
-0.659, 1.592e-6
-0.660, 1.596e-6
-0.661, 1.597e-6
-0.662, 1.601e-6
-0.663, 1.606e-6
-0.664, 1.608e-6
-0.665, 1.613e-6
-0.666, 1.617e-6
-0.667, 1.618e-6
-0.668, 1.623e-6
-0.669, 1.626e-6
-0.670, 1.630e-6
-0.671, 1.631e-6
-0.672, 1.634e-6
-0.673, 1.639e-6
-0.674, 1.642e-6
-0.675, 1.647e-6
-0.676, 1.650e-6
-0.677, 1.652e-6
-0.678, 1.657e-6
-0.679, 1.660e-6
-0.680, 1.665e-6
-0.681, 1.669e-6
-0.682, 1.670e-6
-0.683, 1.674e-6
-0.684, 1.675e-6
-0.685, 1.680e-6
-0.686, 1.684e-6
-0.687, 1.686e-6
-0.688, 1.691e-6
-0.689, 1.694e-6
-0.690, 1.695e-6
-0.691, 1.699e-6
-0.692, 1.702e-6
-0.693, 1.705e-6
-0.694, 1.708e-6
-0.695, 1.713e-6
-0.696, 1.715e-6
-0.697, 1.717e-6
-0.698, 1.720e-6
-0.699, 1.724e-6
-0.700, 1.727e-6
-0.701, 1.729e-6
-0.702, 1.731e-6
-0.703, 1.736e-6
-0.704, 1.741e-6
-0.705, 1.745e-6
-0.706, 1.747e-6
-0.707, 1.750e-6
-0.708, 1.754e-6
-0.709, 1.757e-6
-0.710, 1.759e-6
-0.711, 1.762e-6
-0.712, 1.765e-6
-0.713, 1.769e-6
-0.714, 1.770e-6
-0.715, 1.775e-6
-0.716, 1.779e-6
-0.717, 1.782e-6
-0.718, 1.786e-6
-0.719, 1.789e-6
-0.720, 1.792e-6
-0.721, 1.794e-6
-0.722, 1.796e-6
-0.723, 1.801e-6
-0.724, 1.805e-6
-0.725, 1.807e-6
-0.726, 1.811e-6
-0.727, 1.813e-6
-0.728, 1.816e-6
-0.729, 1.820e-6
-0.730, 1.823e-6
-0.731, 1.825e-6
-0.732, 1.827e-6
-0.733, 1.830e-6
-0.734, 1.834e-6
-0.735, 1.837e-6
-0.736, 1.841e-6
-0.737, 1.845e-6
-0.738, 1.847e-6
-0.739, 1.852e-6
-0.740, 1.855e-6
-0.741, 1.857e-6
-0.742, 1.859e-6
-0.743, 1.862e-6
-0.744, 1.866e-6
-0.745, 1.870e-6
-0.746, 1.872e-6
-0.747, 1.876e-6
-0.748, 1.880e-6
-0.749, 1.882e-6
-0.750, 1.886e-6
-0.751, 1.888e-6
-0.752, 1.890e-6
-0.753, 1.895e-6
-0.754, 1.898e-6
-0.755, 1.902e-6
-0.756, 1.905e-6
-0.757, 1.907e-6
-0.758, 1.910e-6
-0.759, 1.912e-6
-0.760, 1.916e-6
-0.761, 1.920e-6
-0.762, 1.922e-6
-0.763, 1.926e-6
-0.764, 1.930e-6
-0.765, 1.931e-6
-0.766, 1.935e-6
-0.767, 1.937e-6
-0.768, 1.943e-6
-0.769, 1.945e-6
-0.770, 1.947e-6
-0.771, 1.949e-6
-0.772, 1.952e-6
-0.773, 1.956e-6
-0.774, 1.961e-6
-0.775, 1.964e-6
-0.776, 1.966e-6
-0.777, 1.968e-6
-0.778, 1.970e-6
-0.779, 1.973e-6
-0.780, 1.977e-6
-0.781, 1.981e-6
-0.782, 1.984e-6
-0.783, 1.987e-6
-0.784, 1.990e-6
-0.785, 1.994e-6
-0.786, 1.995e-6
-0.787, 2.000e-6
-0.788, 2.005e-6
-0.789, 2.007e-6
-0.790, 2.014e-6
-0.791, 2.017e-6
-0.792, 2.020e-6
-0.793, 2.024e-6
-0.794, 2.026e-6
-0.795, 2.028e-6
-0.796, 2.031e-6
-0.797, 2.032e-6
-0.798, 2.039e-6
-0.799, 2.043e-6
-0.800, 2.047e-6
-0.801, 2.051e-6
-0.802, 2.052e-6
-0.803, 2.055e-6
-0.804, 2.057e-6
-0.805, 2.058e-6
-0.806, 2.062e-6
-0.807, 2.066e-6
-0.808, 2.071e-6
-0.809, 2.074e-6
-0.810, 2.078e-6
-0.811, 2.082e-6
-0.812, 2.084e-6
-0.813, 2.086e-6
-0.814, 2.089e-6
-0.815, 2.091e-6
-0.816, 2.094e-6
-0.817, 2.098e-6
-0.818, 2.102e-6
-0.819, 2.109e-6
-0.820, 2.114e-6
-0.821, 2.112e-6
-0.822, 2.115e-6
-0.823, 2.118e-6
-0.824, 2.121e-6
-0.825, 2.125e-6
-0.826, 2.127e-6
-0.827, 2.132e-6
-0.828, 2.136e-6
-0.829, 2.138e-6
-0.830, 2.142e-6
-0.831, 2.143e-6
-0.832, 2.146e-6
-0.833, 2.150e-6
-0.834, 2.154e-6
-0.835, 2.158e-6
-0.836, 2.161e-6
-0.837, 2.161e-6
-0.838, 2.166e-6
-0.839, 2.168e-6
-0.840, 2.171e-6
-0.841, 2.175e-6
-0.842, 2.178e-6
-0.843, 2.182e-6
-0.844, 2.184e-6
-0.845, 2.188e-6
-0.846, 2.189e-6
-0.847, 2.192e-6
-0.848, 2.197e-6
-0.849, 2.200e-6
-0.850, 2.203e-6
-0.851, 2.206e-6
-0.852, 2.209e-6
-0.853, 2.212e-6
-0.854, 2.214e-6
-0.855, 2.219e-6
-0.856, 2.221e-6
-0.857, 2.224e-6
-0.858, 2.226e-6
-0.859, 2.232e-6
-0.860, 2.234e-6
-0.861, 2.237e-6
-0.862, 2.240e-6
-0.863, 2.243e-6
-0.864, 2.246e-6
-0.865, 2.251e-6
-0.866, 2.251e-6
-0.867, 2.256e-6
-0.868, 2.260e-6
-0.869, 2.264e-6
-0.870, 2.269e-6
-0.871, 2.273e-6
-0.872, 2.273e-6
-0.873, 2.278e-6
-0.874, 2.278e-6
-0.875, 2.283e-6
-0.876, 2.287e-6
-0.877, 2.290e-6
-0.878, 2.295e-6
-0.879, 2.298e-6
-0.880, 2.303e-6
-0.881, 2.306e-6
-0.882, 2.306e-6
-0.883, 2.310e-6
-0.884, 2.314e-6
-0.885, 2.316e-6
-0.886, 2.320e-6
-0.887, 2.323e-6
-0.888, 2.329e-6
-0.889, 2.334e-6
-0.890, 2.339e-6
-0.891, 2.341e-6
-0.892, 2.343e-6
-0.893, 2.346e-6
-0.894, 2.349e-6
-0.895, 2.353e-6
-0.896, 2.356e-6
-0.897, 2.360e-6
-0.898, 2.365e-6
-0.899, 2.368e-6
-0.900, 2.373e-6
-0.901, 2.376e-6
-0.902, 2.378e-6
-0.903, 2.382e-6
-0.904, 2.384e-6
-0.905, 2.388e-6
-0.906, 2.393e-6
-0.907, 2.397e-6
-0.908, 2.402e-6
-0.909, 2.404e-6
-0.910, 2.407e-6
-0.911, 2.410e-6
-0.912, 2.414e-6
-0.913, 2.420e-6
-0.914, 2.422e-6
-0.915, 2.426e-6
-0.916, 2.430e-6
-0.917, 2.432e-6
-0.918, 2.436e-6
-0.919, 2.438e-6
-0.920, 2.443e-6
-0.921, 2.448e-6
-0.922, 2.450e-6
-0.923, 2.455e-6
-0.924, 2.458e-6
-0.925, 2.462e-6
-0.926, 2.464e-6
-0.927, 2.467e-6
-0.928, 2.472e-6
-0.929, 2.475e-6
-0.930, 2.477e-6
-0.931, 2.484e-6
-0.932, 2.486e-6
-0.933, 2.490e-6
-0.934, 2.493e-6
-0.935, 2.496e-6
-0.936, 2.500e-6
-0.937, 2.504e-6
-0.938, 2.507e-6
-0.939, 2.511e-6
-0.940, 2.516e-6
-0.941, 2.520e-6
-0.942, 2.522e-6
-0.943, 2.526e-6
-0.944, 2.529e-6
-0.945, 2.534e-6
-0.946, 2.537e-6
-0.947, 2.542e-6
-0.948, 2.548e-6
-0.949, 2.552e-6
-0.950, 2.559e-6
-0.951, 2.561e-6
-0.952, 2.562e-6
-0.953, 2.568e-6
-0.954, 2.569e-6
-0.955, 2.574e-6
-0.956, 2.581e-6
-0.957, 2.584e-6
-0.958, 2.589e-6
-0.959, 2.593e-6
-0.960, 2.597e-6
-0.961, 2.600e-6
-0.962, 2.602e-6
-0.963, 2.606e-6
-0.964, 2.611e-6
-0.965, 2.616e-6
-0.966, 2.622e-6
-0.967, 2.625e-6
-0.968, 2.629e-6
-0.969, 2.633e-6
-0.970, 2.635e-6
-0.971, 2.640e-6
-0.972, 2.644e-6
-0.973, 2.652e-6
-0.974, 2.655e-6
-0.975, 2.659e-6
-0.976, 2.664e-6
-0.977, 2.666e-6
-0.978, 2.669e-6
-0.979, 2.674e-6
-0.980, 2.680e-6
-0.981, 2.685e-6
-0.982, 2.691e-6
-0.983, 2.695e-6
-0.984, 2.698e-6
-0.985, 2.700e-6
-0.986, 2.704e-6
-0.987, 2.706e-6
-0.988, 2.712e-6
-0.989, 2.717e-6
-0.990, 2.724e-6
-0.991, 2.728e-6
-0.992, 2.732e-6
-0.993, 2.735e-6
-0.994, 2.738e-6
-0.995, 2.742e-6
-0.996, 2.745e-6
-0.997, 2.750e-6
-0.998, 2.759e-6
-0.999, 2.763e-6
-1.000, 2.767e-6
-1.001, 2.771e-6
-1.002, 2.773e-6
-1.003, 2.777e-6
-1.004, 2.780e-6
-1.005, 2.787e-6
-1.006, 2.792e-6
-1.007, 2.796e-6
-1.008, 2.801e-6
-1.009, 2.804e-6
-1.010, 2.809e-6
-1.011, 2.812e-6
-1.012, 2.816e-6
-1.013, 2.821e-6
-1.014, 2.827e-6
-1.015, 2.831e-6
-1.016, 2.835e-6
-1.017, 2.839e-6
-1.018, 2.842e-6
-1.019, 2.847e-6
-1.020, 2.850e-6
-1.021, 2.855e-6
-1.022, 2.859e-6
-1.023, 2.864e-6
-1.024, 2.870e-6
-1.025, 2.874e-6
-1.026, 2.877e-6
-1.027, 2.880e-6
-1.028, 2.885e-6
-1.029, 2.888e-6
-1.030, 2.893e-6
-1.031, 2.899e-6
-1.032, 2.900e-6
-1.033, 2.907e-6
-1.034, 2.910e-6
-1.035, 2.914e-6
-1.036, 2.918e-6
-1.037, 2.921e-6
-1.038, 2.927e-6
-1.039, 2.931e-6
-1.040, 2.934e-6
-1.041, 2.942e-6
-1.042, 2.943e-6
-1.043, 2.949e-6
-1.044, 2.952e-6
-1.045, 2.956e-6
-1.046, 2.960e-6
-1.047, 2.963e-6
-1.048, 2.967e-6
-1.049, 2.973e-6
-1.050, 2.977e-6
-1.051, 2.982e-6
-1.052, 2.985e-6
-1.053, 2.988e-6
-1.054, 2.993e-6
-1.055, 2.996e-6
-1.056, 3.000e-6
-1.057, 3.005e-6
-1.058, 3.009e-6
-1.059, 3.015e-6
-1.060, 3.020e-6
-1.061, 3.023e-6
-1.062, 3.027e-6
-1.063, 3.030e-6
-1.064, 3.034e-6
-1.065, 3.038e-6
-1.066, 3.044e-6
-1.067, 3.047e-6
-1.068, 3.053e-6
-1.069, 3.056e-6
-1.070, 3.062e-6
-1.071, 3.067e-6
-1.072, 3.069e-6
-1.073, 3.074e-6
-1.074, 3.077e-6
-1.075, 3.083e-6
-1.076, 3.088e-6
-1.077, 3.091e-6
-1.078, 3.098e-6
-1.079, 3.102e-6
-1.080, 3.104e-6
-1.081, 3.109e-6
-1.082, 3.111e-6
-1.083, 3.115e-6
-1.084, 3.121e-6
-1.085, 3.126e-6
-1.086, 3.131e-6
-1.087, 3.133e-6
-1.088, 3.138e-6
-1.089, 3.144e-6
-1.090, 3.147e-6
-1.091, 3.150e-6
-1.092, 3.153e-6
-1.093, 3.158e-6
-1.094, 3.163e-6
-1.095, 3.168e-6
-1.096, 3.174e-6
-1.097, 3.178e-6
-1.098, 3.181e-6
-1.099, 3.185e-6
-1.100, 3.188e-6
-1.101, 3.192e-6
-1.102, 3.197e-6
-1.103, 3.202e-6
-1.104, 3.208e-6
-1.105, 3.213e-6
-1.106, 3.217e-6
-1.107, 3.220e-6
-1.108, 3.223e-6
-1.109, 3.225e-6
-1.110, 3.231e-6
-1.111, 3.235e-6
-1.112, 3.239e-6
-1.113, 3.245e-6
-1.114, 3.248e-6
-1.115, 3.252e-6
-1.116, 3.257e-6
-1.117, 3.260e-6
-1.118, 3.264e-6
-1.119, 3.269e-6
-1.120, 3.276e-6
-1.121, 3.283e-6
-1.122, 3.286e-6
-1.123, 3.290e-6
-1.124, 3.292e-6
-1.125, 3.294e-6
-1.126, 3.299e-6
-1.127, 3.304e-6
-1.128, 3.310e-6
-1.129, 3.317e-6
-1.130, 3.319e-6
-1.131, 3.325e-6
-1.132, 3.327e-6
-1.133, 3.330e-6
-1.134, 3.335e-6
-1.135, 3.337e-6
-1.136, 3.343e-6
-1.137, 3.347e-6
-1.138, 3.352e-6
-1.139, 3.358e-6
-1.140, 3.362e-6
-1.141, 3.366e-6
-1.142, 3.370e-6
-1.143, 3.371e-6
-1.144, 3.377e-6
-1.145, 3.381e-6
-1.146, 3.385e-6
-1.147, 3.390e-6
-1.148, 3.393e-6
-1.149, 3.398e-6
-1.150, 3.402e-6
-1.151, 3.407e-6
-1.152, 3.410e-6
-1.153, 3.415e-6
-1.154, 3.418e-6
-1.155, 3.423e-6
-1.156, 3.426e-6
-1.157, 3.430e-6
-1.158, 3.433e-6
-1.159, 3.437e-6
-1.160, 3.443e-6
-1.161, 3.450e-6
-1.162, 3.452e-6
-1.163, 3.457e-6
-1.164, 3.461e-6
-1.165, 3.464e-6
-1.166, 3.468e-6
-1.167, 3.471e-6
-1.168, 3.475e-6
-1.169, 3.481e-6
-1.170, 3.484e-6
-1.171, 3.489e-6
-1.172, 3.492e-6
-1.173, 3.495e-6
-1.174, 3.500e-6
-1.175, 3.502e-6
-1.176, 3.508e-6
-1.177, 3.513e-6
-1.178, 3.521e-6
-1.179, 3.523e-6
-1.180, 3.527e-6
-1.181, 3.529e-6
-1.182, 3.532e-6
-1.183, 3.535e-6
-1.184, 3.540e-6
-1.185, 3.546e-6
-1.186, 3.551e-6
-1.187, 3.555e-6
-1.188, 3.560e-6
-1.189, 3.560e-6
-1.190, 3.565e-6
-1.191, 3.568e-6
-1.192, 3.573e-6
-1.193, 3.578e-6
-1.194, 3.582e-6
-1.195, 3.587e-6
-1.196, 3.591e-6
-1.197, 3.595e-6
-1.198, 3.598e-6
-1.199, 3.602e-6
-1.200, 3.605e-6
-1.201, 3.612e-6
-1.202, 3.612e-6
-1.203, 3.618e-6
-1.204, 3.622e-6
-1.205, 3.626e-6
-1.206, 3.632e-6
-1.207, 3.637e-6
-1.208, 3.641e-6
-1.209, 3.645e-6
-1.210, 3.647e-6
-1.211, 3.652e-6
-1.212, 3.655e-6
-1.213, 3.660e-6
-1.214, 3.664e-6
-1.215, 3.667e-6
-1.216, 3.673e-6
-1.217, 3.676e-6
-1.218, 3.679e-6
-1.219, 3.684e-6
-1.220, 3.689e-6
-1.221, 3.693e-6
-1.222, 3.696e-6
-1.223, 3.699e-6
-1.224, 3.702e-6
-1.225, 3.707e-6
-1.226, 3.711e-6
-1.227, 3.714e-6
-1.228, 3.718e-6
-1.229, 3.730e-6
-1.230, 3.734e-6
-1.231, 3.739e-6
-1.232, 3.740e-6
-1.233, 3.743e-6
-1.234, 3.744e-6
-1.235, 3.750e-6
-1.236, 3.752e-6
-1.237, 3.756e-6
-1.238, 3.761e-6
-1.239, 3.766e-6
-1.240, 3.770e-6
-1.241, 3.776e-6
-1.242, 3.776e-6
-1.243, 3.780e-6
-1.244, 3.783e-6
-1.245, 3.786e-6
-1.246, 3.793e-6
-1.247, 3.798e-6
-1.248, 3.802e-6
-1.249, 3.807e-6
-1.250, 3.808e-6
-1.251, 3.811e-6
-1.252, 3.814e-6
-1.253, 3.815e-6
-1.254, 3.822e-6
-1.255, 3.827e-6
-1.256, 3.833e-6
-1.257, 3.836e-6
-1.258, 3.838e-6
-1.259, 3.842e-6
-1.260, 3.846e-6
-1.261, 3.849e-6
-1.262, 3.853e-6
-1.263, 3.855e-6
-1.264, 3.859e-6
-1.265, 3.864e-6
-1.266, 3.869e-6
-1.267, 3.873e-6
-1.268, 3.877e-6
-1.269, 3.880e-6
-1.270, 3.883e-6
-1.271, 3.888e-6
-1.272, 3.891e-6
-1.273, 3.895e-6
-1.274, 3.899e-6
-1.275, 3.910e-6
-1.276, 3.914e-6
-1.277, 3.910e-6
-1.278, 3.913e-6
-1.279, 3.917e-6
-1.280, 3.923e-6
-1.281, 3.929e-6
-1.282, 3.930e-6
-1.283, 3.935e-6
-1.284, 3.939e-6
-1.285, 3.941e-6
-1.286, 3.945e-6
-1.287, 3.947e-6
-1.288, 3.948e-6
-1.289, 3.954e-6
-1.290, 3.958e-6
-1.291, 3.964e-6
-1.292, 3.969e-6
-1.293, 3.972e-6
-1.294, 3.976e-6
-1.295, 3.977e-6
-1.296, 3.982e-6
-1.297, 3.985e-6
-1.298, 3.988e-6
-1.299, 3.991e-6
-1.300, 3.995e-6
-1.301, 3.998e-6
-1.302, 4.003e-6
-1.303, 4.005e-6
-1.304, 4.011e-6
-1.305, 4.017e-6
-1.306, 4.019e-6
-1.307, 4.022e-6
-1.308, 4.024e-6
-1.309, 4.025e-6
-1.310, 4.031e-6
-1.311, 4.033e-6
-1.312, 4.040e-6
-1.313, 4.044e-6
-1.314, 4.048e-6
-1.315, 4.051e-6
-1.316, 4.054e-6
-1.317, 4.055e-6
-1.318, 4.058e-6
-1.319, 4.062e-6
-1.320, 4.067e-6
-1.321, 4.074e-6
-1.322, 4.078e-6
-1.323, 4.082e-6
-1.324, 4.085e-6
-1.325, 4.086e-6
-1.326, 4.091e-6
-1.327, 4.091e-6
-1.328, 4.095e-6
-1.329, 4.101e-6
-1.330, 4.103e-6
-1.331, 4.109e-6
-1.332, 4.112e-6
-1.333, 4.115e-6
-1.334, 4.123e-6
-1.335, 4.126e-6
-1.336, 4.130e-6
-1.337, 4.134e-6
-1.338, 4.136e-6
-1.339, 4.137e-6
-1.340, 4.141e-6
-1.341, 4.144e-6
-1.342, 4.149e-6
-1.343, 4.152e-6
-1.344, 4.159e-6
-1.345, 4.162e-6
-1.346, 4.163e-6
-1.347, 4.166e-6
-1.348, 4.168e-6
-1.349, 4.171e-6
-1.350, 4.177e-6
-1.351, 4.181e-6
-1.352, 4.185e-6
-1.353, 4.188e-6
-1.354, 4.192e-6
-1.355, 4.195e-6
-1.356, 4.197e-6
-1.357, 4.200e-6
-1.358, 4.204e-6
-1.359, 4.208e-6
-1.360, 4.214e-6
-1.361, 4.220e-6
-1.362, 4.220e-6
-1.363, 4.224e-6
-1.364, 4.228e-6
-1.365, 4.230e-6
-1.366, 4.235e-6
-1.367, 4.238e-6
-1.368, 4.239e-6
-1.369, 4.244e-6
-1.370, 4.248e-6
-1.371, 4.253e-6
-1.372, 4.257e-6
-1.373, 4.260e-6
-1.374, 4.267e-6
-1.375, 4.273e-6
-1.376, 4.278e-6
-1.377, 4.280e-6
-1.378, 4.279e-6
-1.379, 4.284e-6
-1.380, 4.287e-6
-1.381, 4.290e-6
-1.382, 4.296e-6
-1.383, 4.302e-6
-1.384, 4.304e-6
-1.385, 4.309e-6
-1.386, 4.312e-6
-1.387, 4.318e-6
-1.388, 4.320e-6
-1.389, 4.324e-6
-1.390, 4.328e-6
-1.391, 4.331e-6
-1.392, 4.333e-6
-1.393, 4.338e-6
-1.394, 4.342e-6
-1.395, 4.350e-6
-1.396, 4.354e-6
-1.397, 4.353e-6
-1.398, 4.357e-6
-1.399, 4.359e-6
-1.400, 4.362e-6
-1.401, 4.369e-6
-1.402, 4.371e-6
-1.403, 4.376e-6
-1.404, 4.380e-6
-1.405, 4.383e-6
-1.406, 4.387e-6
-1.407, 4.388e-6
-1.408, 4.392e-6
-1.409, 4.398e-6
-1.410, 4.400e-6
-1.411, 4.407e-6
-1.412, 4.410e-6
-1.413, 4.415e-6
-1.414, 4.418e-6
-1.415, 4.419e-6
-1.416, 4.422e-6
-1.417, 4.426e-6
-1.418, 4.428e-6
-1.419, 4.433e-6
-1.420, 4.437e-6
-1.421, 4.444e-6
-1.422, 4.448e-6
-1.423, 4.450e-6
-1.424, 4.452e-6
-1.425, 4.455e-6
-1.426, 4.456e-6
-1.427, 4.462e-6
-1.428, 4.467e-6
-1.429, 4.472e-6
-1.430, 4.480e-6
-1.431, 4.482e-6
-1.432, 4.482e-6
-1.433, 4.483e-6
-1.434, 4.488e-6
-1.435, 4.493e-6
-1.436, 4.497e-6
-1.437, 4.502e-6
-1.438, 4.504e-6
-1.439, 4.507e-6
-1.440, 4.510e-6
-1.441, 4.514e-6
-1.442, 4.514e-6
-1.443, 4.518e-6
-1.444, 4.524e-6
-1.445, 4.526e-6
-1.446, 4.532e-6
-1.447, 4.534e-6
-1.448, 4.537e-6
-1.449, 4.544e-6
-1.450, 4.546e-6
-1.451, 4.553e-6
-1.452, 4.554e-6
-1.453, 4.553e-6
-1.454, 4.559e-6
-1.455, 4.560e-6
-1.456, 4.566e-6
-1.457, 4.569e-6
-1.458, 4.573e-6
-1.459, 4.581e-6
-1.460, 4.583e-6
-1.461, 4.586e-6
-1.462, 4.590e-6
-1.463, 4.589e-6
-1.464, 4.595e-6
-1.465, 4.597e-6
-1.466, 4.599e-6
-1.467, 4.603e-6
-1.468, 4.606e-6
-1.469, 4.611e-6
-1.470, 4.616e-6
-1.471, 4.618e-6
-1.472, 4.624e-6
-1.473, 4.628e-6
-1.474, 4.634e-6
-1.475, 4.639e-6
-1.476, 4.643e-6
-1.477, 4.644e-6
-1.478, 4.646e-6
-1.479, 4.646e-6
-1.480, 4.650e-6
-1.481, 4.656e-6
-1.482, 4.658e-6
-1.483, 4.666e-6
-1.484, 4.673e-6
-1.485, 4.683e-6
-1.486, 4.684e-6
-1.487, 4.685e-6
-1.488, 4.686e-6
-1.489, 4.693e-6
-1.490, 4.693e-6
-1.491, 4.696e-6
-1.492, 4.701e-6
-1.493, 4.704e-6
-1.494, 4.710e-6
-1.495, 4.715e-6
-1.496, 4.721e-6
-1.497, 4.730e-6
-1.498, 4.733e-6
-1.499, 4.739e-6
-1.500, 4.742e-6
-1.501, 4.744e-6
-1.502, 4.746e-6
-1.503, 4.746e-6
-1.504, 4.749e-6
-1.505, 4.755e-6
-1.506, 4.759e-6
-1.507, 4.765e-6
-1.508, 4.769e-6
-1.509, 4.775e-6
-1.510, 4.781e-6
-1.511, 4.786e-6
-1.512, 4.792e-6
-1.513, 4.796e-6
-1.514, 4.798e-6
-1.515, 4.803e-6
-1.516, 4.807e-6
-1.517, 4.809e-6
-1.518, 4.816e-6
-1.519, 4.824e-6
-1.520, 4.833e-6
-1.521, 4.841e-6
-1.522, 4.843e-6
-1.523, 4.845e-6
-1.524, 4.848e-6
-1.525, 4.851e-6
-1.526, 4.856e-6
-1.527, 4.861e-6
-1.528, 4.867e-6
-1.529, 4.877e-6
-1.530, 4.880e-6
-1.531, 4.887e-6
-1.532, 4.891e-6
-1.533, 4.893e-6
-1.534, 4.900e-6
-1.535, 4.905e-6
-1.536, 4.914e-6
-1.537, 4.920e-6
-1.538, 4.922e-6
-1.539, 4.930e-6
-1.540, 4.939e-6
-1.541, 4.944e-6
-1.542, 4.951e-6
-1.543, 4.955e-6
-1.544, 4.959e-6
-1.545, 4.967e-6
-1.546, 4.972e-6
-1.547, 4.979e-6
-1.548, 4.986e-6
-1.549, 4.998e-6
-1.550, 5.006e-6
-1.551, 5.011e-6
-1.552, 5.018e-6
-1.553, 5.023e-6
-1.554, 5.028e-6
-1.555, 5.036e-6
-1.556, 5.046e-6
-1.557, 5.053e-6
-1.558, 5.062e-6
-1.559, 5.070e-6
-1.560, 5.077e-6
-1.561, 5.088e-6
-1.562, 5.095e-6
-1.563, 5.100e-6
-1.564, 5.106e-6
-1.565, 5.111e-6
-1.566, 5.124e-6
-1.567, 5.128e-6
-1.568, 5.139e-6
-1.569, 5.155e-6
-1.570, 5.162e-6
-1.571, 5.170e-6
-1.572, 5.179e-6
-1.573, 5.183e-6
-1.574, 5.194e-6
-1.575, 5.199e-6
-1.576, 5.209e-6
-1.577, 5.222e-6
-1.578, 5.230e-6
-1.579, 5.246e-6
-1.580, 5.258e-6
-1.581, 5.266e-6
-1.582, 5.274e-6
-1.583, 5.280e-6
-1.584, 5.290e-6
-1.585, 5.302e-6
-1.586, 5.314e-6
-1.587, 5.332e-6
-1.588, 5.342e-6
-1.589, 5.349e-6
-1.590, 5.364e-6
-1.591, 5.373e-6
-1.592, 5.383e-6
-1.593, 5.396e-6
-1.594, 5.409e-6
-1.595, 5.422e-6
-1.596, 5.435e-6
-1.597, 5.447e-6
-1.598, 5.462e-6
-1.599, 5.474e-6
-1.600, 5.488e-6
-1.601, 5.503e-6
-1.602, 5.516e-6
-1.603, 5.531e-6
-1.604, 5.551e-6
-1.605, 5.566e-6
-1.606, 5.581e-6
-1.607, 5.593e-6
-1.608, 5.608e-6
-1.609, 5.625e-6
-1.610, 5.638e-6
-1.611, 5.658e-6
-1.612, 5.674e-6
-1.613, 5.691e-6
-1.614, 5.711e-6
-1.615, 5.727e-6
-1.616, 5.748e-6
-1.617, 5.769e-6
-1.618, 5.782e-6
-1.619, 5.804e-6
-1.620, 5.825e-6
-1.621, 5.847e-6
-1.622, 5.870e-6
-1.623, 5.886e-6
-1.624, 5.908e-6
-1.625, 5.924e-6
-1.626, 5.944e-6
-1.627, 5.967e-6
-1.628, 5.991e-6
-1.629, 6.012e-6
-1.630, 6.041e-6
-1.631, 6.064e-6
-1.632, 6.086e-6
-1.633, 6.111e-6
-1.634, 6.134e-6
-1.635, 6.164e-6
-1.636, 6.188e-6
-1.637, 6.213e-6
-1.638, 6.246e-6
-1.639, 6.281e-6
-1.640, 6.300e-6
-1.641, 6.332e-6
-1.642, 6.359e-6
-1.643, 6.390e-6
-1.644, 6.422e-6
-1.645, 6.452e-6
-1.646, 6.488e-6
-1.647, 6.520e-6
-1.648, 6.557e-6
-1.649, 6.593e-6
-1.650, 6.627e-6
-1.651, 6.666e-6
-1.652, 6.705e-6
-1.653, 6.743e-6
-1.654, 6.786e-6
-1.655, 6.825e-6
-1.656, 6.866e-6
-1.657, 6.911e-6
-1.658, 6.948e-6
-1.659, 6.996e-6
-1.660, 7.042e-6
-1.661, 7.092e-6
-1.662, 7.138e-6
-1.663, 7.184e-6
-1.664, 7.234e-6
-1.665, 7.285e-6
-1.666, 7.335e-6
-1.667, 7.393e-6
-1.668, 7.449e-6
-1.669, 7.503e-6
-1.670, 7.562e-6
-1.671, 7.620e-6
-1.672, 7.683e-6
-1.673, 7.747e-6
-1.674, 7.808e-6
-1.675, 7.883e-6
-1.676, 7.953e-6
-1.677, 8.020e-6
-1.678, 8.089e-6
-1.679, 8.158e-6
-1.680, 8.238e-6
-1.681, 8.319e-6
-1.682, 8.396e-6
-1.683, 8.482e-6
-1.684, 8.567e-6
-1.685, 8.649e-6
-1.686, 8.738e-6
-1.687, 8.824e-6
-1.688, 8.910e-6
-1.689, 9.006e-6
-1.690, 9.108e-6
-1.691, 9.208e-6
-1.692, 9.314e-6
-1.693, 9.416e-6
-1.694, 9.533e-6
-1.695, 9.640e-6
-1.696, 9.753e-6
-1.697, 9.868e-6
-1.698, 9.984e-6
-1.699, 1.010e-5
