Sept. 25, 2024   09:14:33
Cyclic Voltammetry
File: c:/users/guazh/data/20240922_batch_417_500/2024-09-22-exp443\exp443-2024-09-25t09_00_47-h2koh\exp443_cv_sr_100mvs_efin_-1600mv.bin
Data Source:  Experiment
Instrument Model:  CHI760E
Header: CV ran at 100 mVs
Note: 

Init E (V) = -1
High E (V) = -1
Low E (V) = -1.6
Final E (V) = -1
Init P/N = N
Scan Rate (V/s) = 0.1
Segment = 3
Sample Interval (V) = 0.001
Quiet Time (sec) = 2
Sensitivity (A/V) = 0.01
Comp R (ohm) = 2.1

Results:

Channel 1:
Segment 1:

Segment 2:

Segment 3:

Potential/V, Current/A

-1.000, 5.227e-6
-1.001, 1.654e-5
-1.002, 1.903e-5
-1.003, 2.000e-5
-1.004, 2.168e-5
-1.005, 2.183e-5
-1.006, 2.327e-5
-1.007, 2.375e-5
-1.008, 2.407e-5
-1.009, 2.542e-5
-1.010, 2.508e-5
-1.011, 2.589e-5
-1.012, 2.642e-5
-1.013, 2.663e-5
-1.014, 2.759e-5
-1.015, 2.746e-5
-1.016, 2.820e-5
-1.017, 2.851e-5
-1.018, 2.861e-5
-1.019, 2.943e-5
-1.020, 2.913e-5
-1.021, 2.996e-5
-1.022, 2.993e-5
-1.023, 3.018e-5
-1.024, 3.119e-5
-1.025, 3.043e-5
-1.026, 3.136e-5
-1.027, 3.140e-5
-1.028, 3.139e-5
-1.029, 3.205e-5
-1.030, 3.181e-5
-1.031, 3.240e-5
-1.032, 3.228e-5
-1.033, 3.235e-5
-1.034, 3.321e-5
-1.035, 3.269e-5
-1.036, 3.335e-5
-1.037, 3.329e-5
-1.038, 3.334e-5
-1.039, 3.427e-5
-1.040, 3.334e-5
-1.041, 3.397e-5
-1.042, 3.411e-5
-1.043, 3.390e-5
-1.044, 3.479e-5
-1.045, 3.410e-5
-1.046, 3.469e-5
-1.047, 3.468e-5
-1.048, 3.439e-5
-1.049, 3.530e-5
-1.050, 3.479e-5
-1.051, 3.527e-5
-1.052, 3.546e-5
-1.053, 3.503e-5
-1.054, 3.585e-5
-1.055, 3.528e-5
-1.056, 3.579e-5
-1.057, 3.559e-5
-1.058, 3.552e-5
-1.059, 3.637e-5
-1.060, 3.581e-5
-1.061, 3.617e-5
-1.062, 3.609e-5
-1.063, 3.623e-5
-1.064, 3.661e-5
-1.065, 3.594e-5
-1.066, 3.667e-5
-1.067, 3.639e-5
-1.068, 3.628e-5
-1.069, 3.689e-5
-1.070, 3.627e-5
-1.071, 3.702e-5
-1.072, 3.661e-5
-1.073, 3.653e-5
-1.074, 3.739e-5
-1.075, 3.664e-5
-1.076, 3.731e-5
-1.077, 3.697e-5
-1.078, 3.695e-5
-1.079, 3.774e-5
-1.080, 3.667e-5
-1.081, 3.740e-5
-1.082, 3.725e-5
-1.083, 3.698e-5
-1.084, 3.789e-5
-1.085, 3.676e-5
-1.086, 3.754e-5
-1.087, 3.747e-5
-1.088, 3.720e-5
-1.089, 3.784e-5
-1.090, 3.728e-5
-1.091, 3.785e-5
-1.092, 3.773e-5
-1.093, 3.731e-5
-1.094, 3.807e-5
-1.095, 3.735e-5
-1.096, 3.775e-5
-1.097, 3.799e-5
-1.098, 3.753e-5
-1.099, 3.806e-5
-1.100, 3.744e-5
-1.101, 3.812e-5
-1.102, 3.784e-5
-1.103, 3.787e-5
-1.104, 3.832e-5
-1.105, 3.752e-5
-1.106, 3.827e-5
-1.107, 3.787e-5
-1.108, 3.782e-5
-1.109, 3.850e-5
-1.110, 3.779e-5
-1.111, 3.853e-5
-1.112, 3.823e-5
-1.113, 3.804e-5
-1.114, 3.886e-5
-1.115, 3.777e-5
-1.116, 3.863e-5
-1.117, 3.835e-5
-1.118, 3.809e-5
-1.119, 3.915e-5
-1.120, 3.803e-5
-1.121, 3.874e-5
-1.122, 3.879e-5
-1.123, 3.838e-5
-1.124, 3.956e-5
-1.125, 3.837e-5
-1.126, 3.894e-5
-1.127, 3.922e-5
-1.128, 3.851e-5
-1.129, 3.929e-5
-1.130, 3.854e-5
-1.131, 3.922e-5
-1.132, 3.913e-5
-1.133, 3.897e-5
-1.134, 3.951e-5
-1.135, 3.885e-5
-1.136, 3.955e-5
-1.137, 3.941e-5
-1.138, 3.955e-5
-1.139, 3.977e-5
-1.140, 3.938e-5
-1.141, 3.964e-5
-1.142, 3.983e-5
-1.143, 3.976e-5
-1.144, 4.026e-5
-1.145, 3.968e-5
-1.146, 4.039e-5
-1.147, 4.029e-5
-1.148, 4.011e-5
-1.149, 4.096e-5
-1.150, 4.010e-5
-1.151, 4.079e-5
-1.152, 4.080e-5
-1.153, 4.079e-5
-1.154, 4.144e-5
-1.155, 4.094e-5
-1.156, 4.149e-5
-1.157, 4.134e-5
-1.158, 4.152e-5
-1.159, 4.233e-5
-1.160, 4.133e-5
-1.161, 4.224e-5
-1.162, 4.234e-5
-1.163, 4.198e-5
-1.164, 4.316e-5
-1.165, 4.215e-5
-1.166, 4.292e-5
-1.167, 4.314e-5
-1.168, 4.292e-5
-1.169, 4.393e-5
-1.170, 4.319e-5
-1.171, 4.401e-5
-1.172, 4.427e-5
-1.173, 4.417e-5
-1.174, 4.470e-5
-1.175, 4.450e-5
-1.176, 4.531e-5
-1.177, 4.545e-5
-1.178, 4.564e-5
-1.179, 4.624e-5
-1.180, 4.584e-5
-1.181, 4.688e-5
-1.182, 4.653e-5
-1.183, 4.689e-5
-1.184, 4.775e-5
-1.185, 4.733e-5
-1.186, 4.843e-5
-1.187, 4.851e-5
-1.188, 4.890e-5
-1.189, 4.946e-5
-1.190, 4.907e-5
-1.191, 5.037e-5
-1.192, 5.025e-5
-1.193, 5.084e-5
-1.194, 5.166e-5
-1.195, 5.123e-5
-1.196, 5.249e-5
-1.197, 5.246e-5
-1.198, 5.286e-5
-1.199, 5.421e-5
-1.200, 5.366e-5
-1.201, 5.503e-5
-1.202, 5.536e-5
-1.203, 5.567e-5
-1.204, 5.676e-5
-1.205, 5.666e-5
-1.206, 5.791e-5
-1.207, 5.825e-5
-1.208, 5.861e-5
-1.209, 6.001e-5
-1.210, 6.011e-5
-1.211, 6.132e-5
-1.212, 6.185e-5
-1.213, 6.217e-5
-1.214, 6.354e-5
-1.215, 6.365e-5
-1.216, 6.502e-5
-1.217, 6.562e-5
-1.218, 6.654e-5
-1.219, 6.765e-5
-1.220, 6.812e-5
-1.221, 6.950e-5
-1.222, 7.012e-5
-1.223, 7.118e-5
-1.224, 7.255e-5
-1.225, 7.287e-5
-1.226, 7.488e-5
-1.227, 7.534e-5
-1.228, 7.676e-5
-1.229, 7.878e-5
-1.230, 7.880e-5
-1.231, 8.065e-5
-1.232, 8.166e-5
-1.233, 8.290e-5
-1.234, 8.476e-5
-1.235, 8.486e-5
-1.236, 8.727e-5
-1.237, 8.807e-5
-1.238, 8.962e-5
-1.239, 9.164e-5
-1.240, 9.230e-5
-1.241, 9.461e-5
-1.242, 9.584e-5
-1.243, 9.735e-5
-1.244, 9.984e-5
-1.245, 1.007e-4
-1.246, 1.029e-4
-1.247, 1.046e-4
-1.248, 1.062e-4
-1.249, 1.086e-4
-1.250, 1.099e-4
-1.251, 1.126e-4
-1.252, 1.144e-4
-1.253, 1.162e-4
-1.254, 1.187e-4
-1.255, 1.204e-4
-1.256, 1.233e-4
-1.257, 1.252e-4
-1.258, 1.275e-4
-1.259, 1.303e-4
-1.260, 1.322e-4
-1.261, 1.355e-4
-1.262, 1.373e-4
-1.263, 1.400e-4
-1.264, 1.426e-4
-1.265, 1.448e-4
-1.266, 1.490e-4
-1.267, 1.515e-4
-1.268, 1.541e-4
-1.269, 1.576e-4
-1.270, 1.597e-4
-1.271, 1.637e-4
-1.272, 1.667e-4
-1.273, 1.698e-4
-1.274, 1.736e-4
-1.275, 1.764e-4
-1.276, 1.809e-4
-1.277, 1.837e-4
-1.278, 1.873e-4
-1.279, 1.919e-4
-1.280, 1.941e-4
-1.281, 1.985e-4
-1.282, 2.025e-4
-1.283, 2.062e-4
-1.284, 2.108e-4
-1.285, 2.148e-4
-1.286, 2.197e-4
-1.287, 2.234e-4
-1.288, 2.278e-4
-1.289, 2.331e-4
-1.290, 2.368e-4
-1.291, 2.420e-4
-1.292, 2.471e-4
-1.293, 2.517e-4
-1.294, 2.566e-4
-1.295, 2.609e-4
-1.296, 2.667e-4
-1.297, 2.713e-4
-1.298, 2.766e-4
-1.299, 2.827e-4
-1.300, 2.873e-4
-1.301, 2.934e-4
-1.302, 2.987e-4
-1.303, 3.046e-4
-1.304, 3.107e-4
-1.305, 3.165e-4
-1.306, 3.233e-4
-1.307, 3.289e-4
-1.308, 3.356e-4
-1.309, 3.427e-4
-1.310, 3.485e-4
-1.311, 3.555e-4
-1.312, 3.617e-4
-1.313, 3.685e-4
-1.314, 3.757e-4
-1.315, 3.814e-4
-1.316, 3.899e-4
-1.317, 3.965e-4
-1.318, 4.032e-4
-1.319, 4.115e-4
-1.320, 4.190e-4
-1.321, 4.267e-4
-1.322, 4.338e-4
-1.323, 4.419e-4
-1.324, 4.499e-4
-1.325, 4.562e-4
-1.326, 4.644e-4
-1.327, 4.732e-4
-1.328, 4.813e-4
-1.329, 4.895e-4
-1.330, 4.972e-4
-1.331, 5.067e-4
-1.332, 5.154e-4
-1.333, 5.246e-4
-1.334, 5.330e-4
-1.335, 5.407e-4
-1.336, 5.506e-4
-1.337, 5.599e-4
-1.338, 5.685e-4
-1.339, 5.776e-4
-1.340, 5.856e-4
-1.341, 5.955e-4
-1.342, 6.048e-4
-1.343, 6.155e-4
-1.344, 6.254e-4
-1.345, 6.346e-4
-1.346, 6.457e-4
-1.347, 6.531e-4
-1.348, 6.628e-4
-1.349, 6.750e-4
-1.350, 6.840e-4
-1.351, 6.948e-4
-1.352, 7.044e-4
-1.353, 7.135e-4
-1.354, 7.242e-4
-1.355, 7.342e-4
-1.356, 7.448e-4
-1.357, 7.552e-4
-1.358, 7.682e-4
-1.359, 7.799e-4
-1.360, 7.890e-4
-1.361, 8.012e-4
-1.362, 8.129e-4
-1.363, 8.210e-4
-1.364, 8.315e-4
-1.365, 8.460e-4
-1.366, 8.561e-4
-1.367, 8.629e-4
-1.368, 8.742e-4
-1.369, 8.867e-4
-1.370, 8.959e-4
-1.371, 9.080e-4
-1.372, 9.205e-4
-1.373, 9.334e-4
-1.374, 9.454e-4
-1.375, 9.567e-4
-1.376, 9.701e-4
-1.377, 9.815e-4
-1.378, 9.945e-4
-1.379, 1.008e-3
-1.380, 1.020e-3
-1.381, 1.030e-3
-1.382, 1.039e-3
-1.383, 1.048e-3
-1.384, 1.060e-3
-1.385, 1.074e-3
-1.386, 1.085e-3
-1.387, 1.097e-3
-1.388, 1.111e-3
-1.389, 1.125e-3
-1.390, 1.135e-3
-1.391, 1.149e-3
-1.392, 1.164e-3
-1.393, 1.177e-3
-1.394, 1.188e-3
-1.395, 1.197e-3
-1.396, 1.213e-3
-1.397, 1.226e-3
-1.398, 1.235e-3
-1.399, 1.247e-3
-1.400, 1.261e-3
-1.401, 1.275e-3
-1.402, 1.286e-3
-1.403, 1.300e-3
-1.404, 1.313e-3
-1.405, 1.322e-3
-1.406, 1.338e-3
-1.407, 1.354e-3
-1.408, 1.362e-3
-1.409, 1.376e-3
-1.410, 1.391e-3
-1.411, 1.403e-3
-1.412, 1.414e-3
-1.413, 1.431e-3
-1.414, 1.446e-3
-1.415, 1.456e-3
-1.416, 1.471e-3
-1.417, 1.484e-3
-1.418, 1.498e-3
-1.419, 1.511e-3
-1.420, 1.527e-3
-1.421, 1.544e-3
-1.422, 1.556e-3
-1.423, 1.569e-3
-1.424, 1.577e-3
-1.425, 1.587e-3
-1.426, 1.604e-3
-1.427, 1.616e-3
-1.428, 1.630e-3
-1.429, 1.650e-3
-1.430, 1.665e-3
-1.431, 1.677e-3
-1.432, 1.694e-3
-1.433, 1.712e-3
-1.434, 1.725e-3
-1.435, 1.739e-3
-1.436, 1.756e-3
-1.437, 1.768e-3
-1.438, 1.781e-3
-1.439, 1.798e-3
-1.440, 1.809e-3
-1.441, 1.822e-3
-1.442, 1.836e-3
-1.443, 1.851e-3
-1.444, 1.864e-3
-1.445, 1.875e-3
-1.446, 1.892e-3
-1.447, 1.904e-3
-1.448, 1.919e-3
-1.449, 1.934e-3
-1.450, 1.950e-3
-1.451, 1.967e-3
-1.452, 1.981e-3
-1.453, 1.995e-3
-1.454, 2.011e-3
-1.455, 2.025e-3
-1.456, 2.042e-3
-1.457, 2.055e-3
-1.458, 2.070e-3
-1.459, 2.086e-3
-1.460, 2.098e-3
-1.461, 2.114e-3
-1.462, 2.131e-3
-1.463, 2.146e-3
-1.464, 2.161e-3
-1.465, 2.177e-3
-1.466, 2.196e-3
-1.467, 2.216e-3
-1.468, 2.235e-3
-1.469, 2.251e-3
-1.470, 2.264e-3
-1.471, 2.280e-3
-1.472, 2.289e-3
-1.473, 2.300e-3
-1.474, 2.318e-3
-1.475, 2.332e-3
-1.476, 2.344e-3
-1.477, 2.360e-3
-1.478, 2.380e-3
-1.479, 2.398e-3
-1.480, 2.415e-3
-1.481, 2.435e-3
-1.482, 2.454e-3
-1.483, 2.470e-3
-1.484, 2.487e-3
-1.485, 2.504e-3
-1.486, 2.517e-3
-1.487, 2.536e-3
-1.488, 2.554e-3
-1.489, 2.569e-3
-1.490, 2.582e-3
-1.491, 2.604e-3
-1.492, 2.621e-3
-1.493, 2.635e-3
-1.494, 2.656e-3
-1.495, 2.673e-3
-1.496, 2.692e-3
-1.497, 2.710e-3
-1.498, 2.726e-3
-1.499, 2.742e-3
-1.500, 2.756e-3
-1.501, 2.773e-3
-1.502, 2.789e-3
-1.503, 2.806e-3
-1.504, 2.823e-3
-1.505, 2.837e-3
-1.506, 2.859e-3
-1.507, 2.879e-3
-1.508, 2.898e-3
-1.509, 2.921e-3
-1.510, 2.937e-3
-1.511, 2.948e-3
-1.512, 2.966e-3
-1.513, 2.990e-3
-1.514, 3.011e-3
-1.515, 3.033e-3
-1.516, 3.053e-3
-1.517, 3.060e-3
-1.518, 3.076e-3
-1.519, 3.107e-3
-1.520, 3.130e-3
-1.521, 3.146e-3
-1.522, 3.170e-3
-1.523, 3.194e-3
-1.524, 3.206e-3
-1.525, 3.221e-3
-1.526, 3.237e-3
-1.527, 3.257e-3
-1.528, 3.275e-3
-1.529, 3.289e-3
-1.530, 3.314e-3
-1.531, 3.338e-3
-1.532, 3.358e-3
-1.533, 3.380e-3
-1.534, 3.405e-3
-1.535, 3.424e-3
-1.536, 3.444e-3
-1.537, 3.463e-3
-1.538, 3.487e-3
-1.539, 3.508e-3
-1.540, 3.529e-3
-1.541, 3.549e-3
-1.542, 3.565e-3
-1.543, 3.588e-3
-1.544, 3.615e-3
-1.545, 3.636e-3
-1.546, 3.654e-3
-1.547, 3.677e-3
-1.548, 3.695e-3
-1.549, 3.711e-3
-1.550, 3.730e-3
-1.551, 3.748e-3
-1.552, 3.765e-3
-1.553, 3.787e-3
-1.554, 3.812e-3
-1.555, 3.836e-3
-1.556, 3.853e-3
-1.557, 3.873e-3
-1.558, 3.904e-3
-1.559, 3.933e-3
-1.560, 3.946e-3
-1.561, 3.968e-3
-1.562, 3.993e-3
-1.563, 4.017e-3
-1.564, 4.040e-3
-1.565, 4.061e-3
-1.566, 4.087e-3
-1.567, 4.113e-3
-1.568, 4.137e-3
-1.569, 4.157e-3
-1.570, 4.183e-3
-1.571, 4.209e-3
-1.572, 4.237e-3
-1.573, 4.263e-3
-1.574, 4.284e-3
-1.575, 4.300e-3
-1.576, 4.312e-3
-1.577, 4.329e-3
-1.578, 4.361e-3
-1.579, 4.370e-3
-1.580, 4.381e-3
-1.581, 4.417e-3
-1.582, 4.463e-3
-1.583, 4.490e-3
-1.584, 4.492e-3
-1.585, 4.520e-3
-1.586, 4.570e-3
-1.587, 4.580e-3
-1.588, 4.593e-3
-1.589, 4.638e-3
-1.590, 4.678e-3
-1.591, 4.695e-3
-1.592, 4.727e-3
-1.593, 4.751e-3
-1.594, 4.766e-3
-1.595, 4.784e-3
-1.596, 4.813e-3
-1.597, 4.833e-3
-1.598, 4.850e-3
-1.599, 4.877e-3
-1.600, 4.854e-3
-1.599, 4.804e-3
-1.598, 4.749e-3
-1.597, 4.698e-3
-1.596, 4.644e-3
-1.595, 4.599e-3
-1.594, 4.552e-3
-1.593, 4.503e-3
-1.592, 4.468e-3
-1.591, 4.440e-3
-1.590, 4.398e-3
-1.589, 4.353e-3
-1.588, 4.321e-3
-1.587, 4.278e-3
-1.586, 4.225e-3
-1.585, 4.184e-3
-1.584, 4.139e-3
-1.583, 4.091e-3
-1.582, 4.047e-3
-1.581, 4.004e-3
-1.580, 3.957e-3
-1.579, 3.921e-3
-1.578, 3.886e-3
-1.577, 3.843e-3
-1.576, 3.803e-3
-1.575, 3.775e-3
-1.574, 3.744e-3
-1.573, 3.704e-3
-1.572, 3.666e-3
-1.571, 3.629e-3
-1.570, 3.595e-3
-1.569, 3.563e-3
-1.568, 3.529e-3
-1.567, 3.493e-3
-1.566, 3.459e-3
-1.565, 3.424e-3
-1.564, 3.390e-3
-1.563, 3.358e-3
-1.562, 3.331e-3
-1.561, 3.296e-3
-1.560, 3.272e-3
-1.559, 3.238e-3
-1.558, 3.198e-3
-1.557, 3.167e-3
-1.556, 3.135e-3
-1.555, 3.104e-3
-1.554, 3.079e-3
-1.553, 3.046e-3
-1.552, 3.012e-3
-1.551, 2.986e-3
-1.550, 2.960e-3
-1.549, 2.932e-3
-1.548, 2.905e-3
-1.547, 2.882e-3
-1.546, 2.846e-3
-1.545, 2.807e-3
-1.544, 2.787e-3
-1.543, 2.773e-3
-1.542, 2.747e-3
-1.541, 2.719e-3
-1.540, 2.692e-3
-1.539, 2.665e-3
-1.538, 2.635e-3
-1.537, 2.614e-3
-1.536, 2.594e-3
-1.535, 2.570e-3
-1.534, 2.548e-3
-1.533, 2.526e-3
-1.532, 2.490e-3
-1.531, 2.462e-3
-1.530, 2.435e-3
-1.529, 2.407e-3
-1.528, 2.386e-3
-1.527, 2.367e-3
-1.526, 2.347e-3
-1.525, 2.324e-3
-1.524, 2.304e-3
-1.523, 2.286e-3
-1.522, 2.264e-3
-1.521, 2.246e-3
-1.520, 2.224e-3
-1.519, 2.204e-3
-1.518, 2.182e-3
-1.517, 2.159e-3
-1.516, 2.132e-3
-1.515, 2.108e-3
-1.514, 2.090e-3
-1.513, 2.068e-3
-1.512, 2.049e-3
-1.511, 2.033e-3
-1.510, 2.016e-3
-1.509, 1.996e-3
-1.508, 1.976e-3
-1.507, 1.958e-3
-1.506, 1.942e-3
-1.505, 1.921e-3
-1.504, 1.902e-3
-1.503, 1.886e-3
-1.502, 1.869e-3
-1.501, 1.849e-3
-1.500, 1.831e-3
-1.499, 1.816e-3
-1.498, 1.793e-3
-1.497, 1.778e-3
-1.496, 1.764e-3
-1.495, 1.751e-3
-1.494, 1.736e-3
-1.493, 1.717e-3
-1.492, 1.698e-3
-1.491, 1.682e-3
-1.490, 1.662e-3
-1.489, 1.642e-3
-1.488, 1.626e-3
-1.487, 1.613e-3
-1.486, 1.597e-3
-1.485, 1.582e-3
-1.484, 1.567e-3
-1.483, 1.549e-3
-1.482, 1.536e-3
-1.481, 1.521e-3
-1.480, 1.504e-3
-1.479, 1.491e-3
-1.478, 1.474e-3
-1.477, 1.457e-3
-1.476, 1.448e-3
-1.475, 1.435e-3
-1.474, 1.415e-3
-1.473, 1.405e-3
-1.472, 1.394e-3
-1.471, 1.383e-3
-1.470, 1.372e-3
-1.469, 1.354e-3
-1.468, 1.336e-3
-1.467, 1.323e-3
-1.466, 1.308e-3
-1.465, 1.291e-3
-1.464, 1.281e-3
-1.463, 1.270e-3
-1.462, 1.256e-3
-1.461, 1.246e-3
-1.460, 1.233e-3
-1.459, 1.220e-3
-1.458, 1.207e-3
-1.457, 1.196e-3
-1.456, 1.184e-3
-1.455, 1.169e-3
-1.454, 1.159e-3
-1.453, 1.149e-3
-1.452, 1.135e-3
-1.451, 1.123e-3
-1.450, 1.113e-3
-1.449, 1.101e-3
-1.448, 1.086e-3
-1.447, 1.078e-3
-1.446, 1.067e-3
-1.445, 1.058e-3
-1.444, 1.047e-3
-1.443, 1.035e-3
-1.442, 1.023e-3
-1.441, 1.013e-3
-1.440, 9.992e-4
-1.439, 9.877e-4
-1.438, 9.769e-4
-1.437, 9.669e-4
-1.436, 9.569e-4
-1.435, 9.454e-4
-1.434, 9.363e-4
-1.433, 9.229e-4
-1.432, 9.109e-4
-1.431, 9.034e-4
-1.430, 8.901e-4
-1.429, 8.818e-4
-1.428, 8.771e-4
-1.427, 8.660e-4
-1.426, 8.542e-4
-1.425, 8.449e-4
-1.424, 8.369e-4
-1.423, 8.236e-4
-1.422, 8.154e-4
-1.421, 8.075e-4
-1.420, 7.955e-4
-1.419, 7.858e-4
-1.418, 7.770e-4
-1.417, 7.658e-4
-1.416, 7.567e-4
-1.415, 7.478e-4
-1.414, 7.382e-4
-1.413, 7.288e-4
-1.412, 7.202e-4
-1.411, 7.131e-4
-1.410, 7.049e-4
-1.409, 6.947e-4
-1.408, 6.860e-4
-1.407, 6.765e-4
-1.406, 6.685e-4
-1.405, 6.604e-4
-1.404, 6.512e-4
-1.403, 6.427e-4
-1.402, 6.359e-4
-1.401, 6.242e-4
-1.400, 6.240e-4
-1.399, 6.154e-4
-1.398, 5.983e-4
-1.397, 5.918e-4
-1.396, 5.907e-4
-1.395, 5.771e-4
-1.394, 5.665e-4
-1.393, 5.649e-4
-1.392, 5.558e-4
-1.391, 5.431e-4
-1.390, 5.382e-4
-1.389, 5.342e-4
-1.388, 5.221e-4
-1.387, 5.149e-4
-1.386, 5.120e-4
-1.385, 5.018e-4
-1.384, 4.927e-4
-1.383, 4.866e-4
-1.382, 4.802e-4
-1.381, 4.724e-4
-1.380, 4.654e-4
-1.379, 4.590e-4
-1.378, 4.504e-4
-1.377, 4.431e-4
-1.376, 4.382e-4
-1.375, 4.305e-4
-1.374, 4.250e-4
-1.373, 4.192e-4
-1.372, 4.120e-4
-1.371, 4.046e-4
-1.370, 3.991e-4
-1.369, 3.934e-4
-1.368, 3.853e-4
-1.367, 3.789e-4
-1.366, 3.740e-4
-1.365, 3.667e-4
-1.364, 3.599e-4
-1.363, 3.542e-4
-1.362, 3.492e-4
-1.361, 3.435e-4
-1.360, 3.366e-4
-1.359, 3.317e-4
-1.358, 3.253e-4
-1.357, 3.182e-4
-1.356, 3.132e-4
-1.355, 3.081e-4
-1.354, 3.031e-4
-1.353, 2.967e-4
-1.352, 2.918e-4
-1.351, 2.867e-4
-1.350, 2.800e-4
-1.349, 2.758e-4
-1.348, 2.710e-4
-1.347, 2.671e-4
-1.346, 2.615e-4
-1.345, 2.554e-4
-1.344, 2.505e-4
-1.343, 2.453e-4
-1.342, 2.406e-4
-1.341, 2.366e-4
-1.340, 2.313e-4
-1.339, 2.279e-4
-1.338, 2.226e-4
-1.337, 2.177e-4
-1.336, 2.135e-4
-1.335, 2.088e-4
-1.334, 2.059e-4
-1.333, 2.016e-4
-1.332, 1.972e-4
-1.331, 1.930e-4
-1.330, 1.878e-4
-1.329, 1.834e-4
-1.328, 1.800e-4
-1.327, 1.769e-4
-1.326, 1.727e-4
-1.325, 1.682e-4
-1.324, 1.656e-4
-1.323, 1.614e-4
-1.322, 1.573e-4
-1.321, 1.535e-4
-1.320, 1.500e-4
-1.319, 1.469e-4
-1.318, 1.426e-4
-1.317, 1.399e-4
-1.316, 1.365e-4
-1.315, 1.318e-4
-1.314, 1.297e-4
-1.313, 1.259e-4
-1.312, 1.232e-4
-1.311, 1.202e-4
-1.310, 1.164e-4
-1.309, 1.141e-4
-1.308, 1.106e-4
-1.307, 1.076e-4
-1.306, 1.052e-4
-1.305, 1.019e-4
-1.304, 9.989e-5
-1.303, 9.652e-5
-1.302, 9.369e-5
-1.301, 9.127e-5
-1.300, 8.781e-5
-1.299, 8.584e-5
-1.298, 8.314e-5
-1.297, 8.041e-5
-1.296, 7.834e-5
-1.295, 7.520e-5
-1.294, 7.341e-5
-1.293, 7.050e-5
-1.292, 6.822e-5
-1.291, 6.615e-5
-1.290, 6.339e-5
-1.289, 6.176e-5
-1.288, 5.923e-5
-1.287, 5.688e-5
-1.286, 5.521e-5
-1.285, 5.251e-5
-1.284, 5.110e-5
-1.283, 4.860e-5
-1.282, 4.663e-5
-1.281, 4.494e-5
-1.280, 4.214e-5
-1.279, 4.115e-5
-1.278, 3.858e-5
-1.277, 3.702e-5
-1.276, 3.570e-5
-1.275, 3.305e-5
-1.274, 3.211e-5
-1.273, 2.963e-5
-1.272, 2.839e-5
-1.271, 2.682e-5
-1.270, 2.448e-5
-1.269, 2.427e-5
-1.268, 2.181e-5
-1.267, 2.008e-5
-1.266, 1.916e-5
-1.265, 1.664e-5
-1.264, 1.605e-5
-1.263, 1.395e-5
-1.262, 1.255e-5
-1.261, 1.151e-5
-1.260, 9.321e-6
-1.259, 8.700e-6
-1.258, 6.944e-6
-1.257, 5.454e-6
-1.256, 4.813e-6
-1.255, 2.701e-6
-1.254, 1.853e-6
-1.253, 6.590e-7
-1.252, -5.150e-7
-1.251, -1.452e-6
-1.250, -3.041e-6
-1.249, -3.702e-6
-1.248, -5.073e-6
-1.247, -5.931e-6
-1.246, -6.948e-6
-1.245, -8.319e-6
-1.244, -8.753e-6
-1.243, -1.018e-5
-1.242, -1.124e-5
-1.241, -1.193e-5
-1.240, -1.343e-5
-1.239, -1.358e-5
-1.238, -1.508e-5
-1.237, -1.572e-5
-1.236, -1.643e-5
-1.235, -1.784e-5
-1.234, -1.807e-5
-1.233, -1.935e-5
-1.232, -2.006e-5
-1.231, -2.056e-5
-1.230, -2.215e-5
-1.229, -2.259e-5
-1.228, -2.341e-5
-1.227, -2.401e-5
-1.226, -2.436e-5
-1.225, -2.588e-5
-1.224, -2.554e-5
-1.223, -2.673e-5
-1.222, -2.750e-5
-1.221, -2.765e-5
-1.220, -2.900e-5
-1.219, -2.891e-5
-1.218, -2.996e-5
-1.217, -3.051e-5
-1.216, -3.071e-5
-1.215, -3.190e-5
-1.214, -3.188e-5
-1.213, -3.266e-5
-1.212, -3.347e-5
-1.211, -3.358e-5
-1.210, -3.485e-5
-1.209, -3.487e-5
-1.208, -3.584e-5
-1.207, -3.597e-5
-1.206, -3.625e-5
-1.205, -3.705e-5
-1.204, -3.715e-5
-1.203, -3.793e-5
-1.202, -3.834e-5
-1.201, -3.842e-5
-1.200, -3.938e-5
-1.199, -3.894e-5
-1.198, -3.998e-5
-1.197, -4.024e-5
-1.196, -4.025e-5
-1.195, -4.142e-5
-1.194, -4.105e-5
-1.193, -4.201e-5
-1.192, -4.220e-5
-1.191, -4.223e-5
-1.190, -4.383e-5
-1.189, -4.309e-5
-1.188, -4.400e-5
-1.187, -4.422e-5
-1.186, -4.429e-5
-1.185, -4.521e-5
-1.184, -4.458e-5
-1.183, -4.529e-5
-1.182, -4.554e-5
-1.181, -4.543e-5
-1.180, -4.652e-5
-1.179, -4.611e-5
-1.178, -4.692e-5
-1.177, -4.714e-5
-1.176, -4.710e-5
-1.175, -4.794e-5
-1.174, -4.763e-5
-1.173, -4.821e-5
-1.172, -4.843e-5
-1.171, -4.848e-5
-1.170, -4.925e-5
-1.169, -4.912e-5
-1.168, -4.943e-5
-1.167, -4.943e-5
-1.166, -4.938e-5
-1.165, -5.015e-5
-1.164, -4.975e-5
-1.163, -5.072e-5
-1.162, -5.069e-5
-1.161, -5.085e-5
-1.160, -5.137e-5
-1.159, -5.116e-5
-1.158, -5.206e-5
-1.157, -5.197e-5
-1.156, -5.210e-5
-1.155, -5.307e-5
-1.154, -5.236e-5
-1.153, -5.277e-5
-1.152, -5.326e-5
-1.151, -5.312e-5
-1.150, -5.400e-5
-1.149, -5.299e-5
-1.148, -5.424e-5
-1.147, -5.431e-5
-1.146, -5.412e-5
-1.145, -5.494e-5
-1.144, -5.439e-5
-1.143, -5.514e-5
-1.142, -5.536e-5
-1.141, -5.487e-5
-1.140, -5.620e-5
-1.139, -5.584e-5
-1.138, -5.607e-5
-1.137, -5.639e-5
-1.136, -5.616e-5
-1.135, -5.718e-5
-1.134, -5.667e-5
-1.133, -5.726e-5
-1.132, -5.727e-5
-1.131, -5.748e-5
-1.130, -5.819e-5
-1.129, -5.785e-5
-1.128, -5.826e-5
-1.127, -5.840e-5
-1.126, -5.860e-5
-1.125, -5.926e-5
-1.124, -5.887e-5
-1.123, -5.964e-5
-1.122, -5.956e-5
-1.121, -5.974e-5
-1.120, -6.035e-5
-1.119, -6.002e-5
-1.118, -6.076e-5
-1.117, -6.072e-5
-1.116, -6.069e-5
-1.115, -6.175e-5
-1.114, -6.131e-5
-1.113, -6.208e-5
-1.112, -6.195e-5
-1.111, -6.184e-5
-1.110, -6.292e-5
-1.109, -6.242e-5
-1.108, -6.294e-5
-1.107, -6.357e-5
-1.106, -6.333e-5
-1.105, -6.418e-5
-1.104, -6.374e-5
-1.103, -6.460e-5
-1.102, -6.499e-5
-1.101, -6.487e-5
-1.100, -6.593e-5
-1.099, -6.564e-5
-1.098, -6.592e-5
-1.097, -6.633e-5
-1.096, -6.598e-5
-1.095, -6.707e-5
-1.094, -6.683e-5
-1.093, -6.742e-5
-1.092, -6.766e-5
-1.091, -6.758e-5
-1.090, -6.840e-5
-1.089, -6.810e-5
-1.088, -6.883e-5
-1.087, -6.892e-5
-1.086, -6.916e-5
-1.085, -6.994e-5
-1.084, -6.936e-5
-1.083, -7.048e-5
-1.082, -7.065e-5
-1.081, -7.087e-5
-1.080, -7.166e-5
-1.079, -7.113e-5
-1.078, -7.217e-5
-1.077, -7.200e-5
-1.076, -7.222e-5
-1.075, -7.348e-5
-1.074, -7.298e-5
-1.073, -7.377e-5
-1.072, -7.357e-5
-1.071, -7.373e-5
-1.070, -7.507e-5
-1.069, -7.456e-5
-1.068, -7.520e-5
-1.067, -7.561e-5
-1.066, -7.533e-5
-1.065, -7.644e-5
-1.064, -7.590e-5
-1.063, -7.712e-5
-1.062, -7.731e-5
-1.061, -7.694e-5
-1.060, -7.800e-5
-1.059, -7.775e-5
-1.058, -7.846e-5
-1.057, -7.859e-5
-1.056, -7.871e-5
-1.055, -8.014e-5
-1.054, -7.953e-5
-1.053, -8.004e-5
-1.052, -8.071e-5
-1.051, -8.098e-5
-1.050, -8.150e-5
-1.049, -8.076e-5
-1.048, -8.199e-5
-1.047, -8.232e-5
-1.046, -8.223e-5
-1.045, -8.295e-5
-1.044, -8.242e-5
-1.043, -8.364e-5
-1.042, -8.381e-5
-1.041, -8.382e-5
-1.040, -8.487e-5
-1.039, -8.480e-5
-1.038, -8.561e-5
-1.037, -8.555e-5
-1.036, -8.587e-5
-1.035, -8.706e-5
-1.034, -8.660e-5
-1.033, -8.720e-5
-1.032, -8.704e-5
-1.031, -8.745e-5
-1.030, -8.834e-5
-1.029, -8.754e-5
-1.028, -8.870e-5
-1.027, -8.943e-5
-1.026, -8.896e-5
-1.025, -9.040e-5
-1.024, -9.038e-5
-1.023, -9.089e-5
-1.022, -9.117e-5
-1.021, -9.124e-5
-1.020, -9.257e-5
-1.019, -9.181e-5
-1.018, -9.247e-5
-1.017, -9.330e-5
-1.016, -9.295e-5
-1.015, -9.368e-5
-1.014, -9.396e-5
-1.013, -9.481e-5
-1.012, -9.476e-5
-1.011, -9.488e-5
-1.010, -9.633e-5
-1.009, -9.614e-5
-1.008, -9.634e-5
-1.007, -9.665e-5
-1.006, -9.717e-5
-1.005, -9.821e-5
-1.004, -9.806e-5
-1.003, -9.891e-5
-1.002, -9.949e-5
-1.001, -9.962e-5
