Sept. 25, 2024   09:17:52
Cyclic Voltammetry
File: c:/users/guazh/data/20240922_batch_417_500/2024-09-22-exp443\exp443-2024-09-25t09_00_47-h2koh\exp443_cv_sr_900mvs_efin_-1600mv.bin
Data Source:  Experiment
Instrument Model:  CHI760E
Header: CV ran at 900 mVs
Note: 

Init E (V) = -1
High E (V) = -1
Low E (V) = -1.6
Final E (V) = -1
Init P/N = N
Scan Rate (V/s) = 0.9
Segment = 3
Sample Interval (V) = 0.001
Quiet Time (sec) = 2
Sensitivity (A/V) = 0.01
Comp R (ohm) = 2.1

Results:

Channel 1:
Segment 1:

Segment 2:

Segment 3:

Potential/V, Current/A

-1.000, 2.174e-5
-1.001, 7.723e-5
-1.002, 1.142e-4
-1.003, 1.420e-4
-1.004, 1.605e-4
-1.005, 1.759e-4
-1.006, 1.851e-4
-1.007, 1.975e-4
-1.008, 2.006e-4
-1.009, 2.098e-4
-1.010, 2.129e-4
-1.011, 2.160e-4
-1.012, 2.191e-4
-1.013, 2.221e-4
-1.014, 2.221e-4
-1.015, 2.252e-4
-1.016, 2.283e-4
-1.017, 2.283e-4
-1.018, 2.283e-4
-1.019, 2.314e-4
-1.020, 2.314e-4
-1.021, 2.345e-4
-1.022, 2.345e-4
-1.023, 2.345e-4
-1.024, 2.376e-4
-1.025, 2.376e-4
-1.026, 2.376e-4
-1.027, 2.376e-4
-1.028, 2.406e-4
-1.029, 2.376e-4
-1.030, 2.406e-4
-1.031, 2.406e-4
-1.032, 2.437e-4
-1.033, 2.406e-4
-1.034, 2.406e-4
-1.035, 2.437e-4
-1.036, 2.437e-4
-1.037, 2.437e-4
-1.038, 2.437e-4
-1.039, 2.468e-4
-1.040, 2.437e-4
-1.041, 2.437e-4
-1.042, 2.468e-4
-1.043, 2.468e-4
-1.044, 2.437e-4
-1.045, 2.468e-4
-1.046, 2.468e-4
-1.047, 2.468e-4
-1.048, 2.468e-4
-1.049, 2.468e-4
-1.050, 2.468e-4
-1.051, 2.468e-4
-1.052, 2.468e-4
-1.053, 2.468e-4
-1.054, 2.499e-4
-1.055, 2.499e-4
-1.056, 2.499e-4
-1.057, 2.499e-4
-1.058, 2.499e-4
-1.059, 2.468e-4
-1.060, 2.499e-4
-1.061, 2.499e-4
-1.062, 2.499e-4
-1.063, 2.499e-4
-1.064, 2.499e-4
-1.065, 2.499e-4
-1.066, 2.499e-4
-1.067, 2.499e-4
-1.068, 2.499e-4
-1.069, 2.530e-4
-1.070, 2.499e-4
-1.071, 2.499e-4
-1.072, 2.530e-4
-1.073, 2.530e-4
-1.074, 2.499e-4
-1.075, 2.499e-4
-1.076, 2.499e-4
-1.077, 2.530e-4
-1.078, 2.499e-4
-1.079, 2.499e-4
-1.080, 2.499e-4
-1.081, 2.530e-4
-1.082, 2.530e-4
-1.083, 2.530e-4
-1.084, 2.530e-4
-1.085, 2.530e-4
-1.086, 2.530e-4
-1.087, 2.561e-4
-1.088, 2.530e-4
-1.089, 2.530e-4
-1.090, 2.530e-4
-1.091, 2.530e-4
-1.092, 2.530e-4
-1.093, 2.530e-4
-1.094, 2.530e-4
-1.095, 2.561e-4
-1.096, 2.530e-4
-1.097, 2.530e-4
-1.098, 2.530e-4
-1.099, 2.530e-4
-1.100, 2.561e-4
-1.101, 2.530e-4
-1.102, 2.530e-4
-1.103, 2.561e-4
-1.104, 2.530e-4
-1.105, 2.530e-4
-1.106, 2.561e-4
-1.107, 2.530e-4
-1.108, 2.530e-4
-1.109, 2.530e-4
-1.110, 2.530e-4
-1.111, 2.530e-4
-1.112, 2.530e-4
-1.113, 2.530e-4
-1.114, 2.561e-4
-1.115, 2.561e-4
-1.116, 2.530e-4
-1.117, 2.561e-4
-1.118, 2.561e-4
-1.119, 2.530e-4
-1.120, 2.561e-4
-1.121, 2.561e-4
-1.122, 2.561e-4
-1.123, 2.561e-4
-1.124, 2.530e-4
-1.125, 2.561e-4
-1.126, 2.561e-4
-1.127, 2.561e-4
-1.128, 2.561e-4
-1.129, 2.561e-4
-1.130, 2.561e-4
-1.131, 2.561e-4
-1.132, 2.591e-4
-1.133, 2.591e-4
-1.134, 2.561e-4
-1.135, 2.561e-4
-1.136, 2.561e-4
-1.137, 2.561e-4
-1.138, 2.561e-4
-1.139, 2.561e-4
-1.140, 2.561e-4
-1.141, 2.561e-4
-1.142, 2.591e-4
-1.143, 2.591e-4
-1.144, 2.591e-4
-1.145, 2.591e-4
-1.146, 2.591e-4
-1.147, 2.591e-4
-1.148, 2.591e-4
-1.149, 2.591e-4
-1.150, 2.591e-4
-1.151, 2.622e-4
-1.152, 2.591e-4
-1.153, 2.591e-4
-1.154, 2.591e-4
-1.155, 2.591e-4
-1.156, 2.622e-4
-1.157, 2.591e-4
-1.158, 2.622e-4
-1.159, 2.622e-4
-1.160, 2.622e-4
-1.161, 2.622e-4
-1.162, 2.653e-4
-1.163, 2.622e-4
-1.164, 2.622e-4
-1.165, 2.622e-4
-1.166, 2.653e-4
-1.167, 2.653e-4
-1.168, 2.653e-4
-1.169, 2.622e-4
-1.170, 2.653e-4
-1.171, 2.653e-4
-1.172, 2.653e-4
-1.173, 2.653e-4
-1.174, 2.684e-4
-1.175, 2.684e-4
-1.176, 2.684e-4
-1.177, 2.715e-4
-1.178, 2.715e-4
-1.179, 2.684e-4
-1.180, 2.715e-4
-1.181, 2.715e-4
-1.182, 2.715e-4
-1.183, 2.715e-4
-1.184, 2.715e-4
-1.185, 2.746e-4
-1.186, 2.746e-4
-1.187, 2.746e-4
-1.188, 2.776e-4
-1.189, 2.776e-4
-1.190, 2.776e-4
-1.191, 2.776e-4
-1.192, 2.776e-4
-1.193, 2.807e-4
-1.194, 2.807e-4
-1.195, 2.807e-4
-1.196, 2.807e-4
-1.197, 2.838e-4
-1.198, 2.807e-4
-1.199, 2.838e-4
-1.200, 2.838e-4
-1.201, 2.838e-4
-1.202, 2.869e-4
-1.203, 2.869e-4
-1.204, 2.900e-4
-1.205, 2.900e-4
-1.206, 2.900e-4
-1.207, 2.931e-4
-1.208, 2.931e-4
-1.209, 2.931e-4
-1.210, 2.961e-4
-1.211, 2.992e-4
-1.212, 2.992e-4
-1.213, 2.992e-4
-1.214, 2.992e-4
-1.215, 3.023e-4
-1.216, 3.023e-4
-1.217, 3.054e-4
-1.218, 3.085e-4
-1.219, 3.115e-4
-1.220, 3.085e-4
-1.221, 3.115e-4
-1.222, 3.146e-4
-1.223, 3.177e-4
-1.224, 3.146e-4
-1.225, 3.208e-4
-1.226, 3.208e-4
-1.227, 3.208e-4
-1.228, 3.239e-4
-1.229, 3.270e-4
-1.230, 3.270e-4
-1.231, 3.300e-4
-1.232, 3.300e-4
-1.233, 3.331e-4
-1.234, 3.362e-4
-1.235, 3.393e-4
-1.236, 3.393e-4
-1.237, 3.424e-4
-1.238, 3.455e-4
-1.239, 3.455e-4
-1.240, 3.485e-4
-1.241, 3.516e-4
-1.242, 3.547e-4
-1.243, 3.547e-4
-1.244, 3.578e-4
-1.245, 3.640e-4
-1.246, 3.640e-4
-1.247, 3.670e-4
-1.248, 3.732e-4
-1.249, 3.763e-4
-1.250, 3.763e-4
-1.251, 3.794e-4
-1.252, 3.855e-4
-1.253, 3.855e-4
-1.254, 3.886e-4
-1.255, 3.917e-4
-1.256, 3.948e-4
-1.257, 3.979e-4
-1.258, 4.010e-4
-1.259, 4.071e-4
-1.260, 4.102e-4
-1.261, 4.102e-4
-1.262, 4.164e-4
-1.263, 4.195e-4
-1.264, 4.256e-4
-1.265, 4.287e-4
-1.266, 4.318e-4
-1.267, 4.380e-4
-1.268, 4.410e-4
-1.269, 4.441e-4
-1.270, 4.503e-4
-1.271, 4.534e-4
-1.272, 4.565e-4
-1.273, 4.595e-4
-1.274, 4.657e-4
-1.275, 4.719e-4
-1.276, 4.750e-4
-1.277, 4.811e-4
-1.278, 4.873e-4
-1.279, 4.935e-4
-1.280, 4.996e-4
-1.281, 5.027e-4
-1.282, 5.089e-4
-1.283, 5.120e-4
-1.284, 5.181e-4
-1.285, 5.212e-4
-1.286, 5.274e-4
-1.287, 5.335e-4
-1.288, 5.366e-4
-1.289, 5.428e-4
-1.290, 5.489e-4
-1.291, 5.582e-4
-1.292, 5.644e-4
-1.293, 5.705e-4
-1.294, 5.798e-4
-1.295, 5.829e-4
-1.296, 5.890e-4
-1.297, 5.983e-4
-1.298, 6.044e-4
-1.299, 6.106e-4
-1.300, 6.168e-4
-1.301, 6.229e-4
-1.302, 6.291e-4
-1.303, 6.353e-4
-1.304, 6.445e-4
-1.305, 6.538e-4
-1.306, 6.599e-4
-1.307, 6.692e-4
-1.308, 6.784e-4
-1.309, 6.846e-4
-1.310, 6.908e-4
-1.311, 7.000e-4
-1.312, 7.093e-4
-1.313, 7.185e-4
-1.314, 7.247e-4
-1.315, 7.339e-4
-1.316, 7.432e-4
-1.317, 7.524e-4
-1.318, 7.617e-4
-1.319, 7.709e-4
-1.320, 7.802e-4
-1.321, 7.894e-4
-1.322, 7.987e-4
-1.323, 8.079e-4
-1.324, 8.172e-4
-1.325, 8.264e-4
-1.326, 8.357e-4
-1.327, 8.480e-4
-1.328, 8.603e-4
-1.329, 8.696e-4
-1.330, 8.819e-4
-1.331, 8.912e-4
-1.332, 9.004e-4
-1.333, 9.097e-4
-1.334, 9.220e-4
-1.335, 9.343e-4
-1.336, 9.436e-4
-1.337, 9.559e-4
-1.338, 9.683e-4
-1.339, 9.837e-4
-1.340, 9.929e-4
-1.341, 1.005e-3
-1.342, 1.018e-3
-1.343, 1.030e-3
-1.344, 1.042e-3
-1.345, 1.051e-3
-1.346, 1.067e-3
-1.347, 1.079e-3
-1.348, 1.092e-3
-1.349, 1.104e-3
-1.350, 1.119e-3
-1.351, 1.132e-3
-1.352, 1.147e-3
-1.353, 1.159e-3
-1.354, 1.175e-3
-1.355, 1.187e-3
-1.356, 1.203e-3
-1.357, 1.215e-3
-1.358, 1.230e-3
-1.359, 1.246e-3
-1.360, 1.261e-3
-1.361, 1.277e-3
-1.362, 1.289e-3
-1.363, 1.304e-3
-1.364, 1.320e-3
-1.365, 1.335e-3
-1.366, 1.347e-3
-1.367, 1.363e-3
-1.368, 1.378e-3
-1.369, 1.397e-3
-1.370, 1.412e-3
-1.371, 1.428e-3
-1.372, 1.446e-3
-1.373, 1.465e-3
-1.374, 1.477e-3
-1.375, 1.495e-3
-1.376, 1.514e-3
-1.377, 1.529e-3
-1.378, 1.548e-3
-1.379, 1.566e-3
-1.380, 1.585e-3
-1.381, 1.600e-3
-1.382, 1.619e-3
-1.383, 1.637e-3
-1.384, 1.659e-3
-1.385, 1.674e-3
-1.386, 1.693e-3
-1.387, 1.714e-3
-1.388, 1.733e-3
-1.389, 1.751e-3
-1.390, 1.773e-3
-1.391, 1.791e-3
-1.392, 1.810e-3
-1.393, 1.832e-3
-1.394, 1.850e-3
-1.395, 1.869e-3
-1.396, 1.887e-3
-1.397, 1.909e-3
-1.398, 1.927e-3
-1.399, 1.949e-3
-1.400, 1.970e-3
-1.401, 1.989e-3
-1.402, 2.010e-3
-1.403, 2.032e-3
-1.404, 2.050e-3
-1.405, 2.072e-3
-1.406, 2.091e-3
-1.407, 2.112e-3
-1.408, 2.131e-3
-1.409, 2.152e-3
-1.410, 2.174e-3
-1.411, 2.192e-3
-1.412, 2.217e-3
-1.413, 2.235e-3
-1.414, 2.260e-3
-1.415, 2.282e-3
-1.416, 2.300e-3
-1.417, 2.325e-3
-1.418, 2.346e-3
-1.419, 2.365e-3
-1.420, 2.386e-3
-1.421, 2.408e-3
-1.422, 2.430e-3
-1.423, 2.451e-3
-1.424, 2.473e-3
-1.425, 2.497e-3
-1.426, 2.519e-3
-1.427, 2.541e-3
-1.428, 2.565e-3
-1.429, 2.590e-3
-1.430, 2.615e-3
-1.431, 2.636e-3
-1.432, 2.664e-3
-1.433, 2.686e-3
-1.434, 2.707e-3
-1.435, 2.729e-3
-1.436, 2.750e-3
-1.437, 2.769e-3
-1.438, 2.790e-3
-1.439, 2.812e-3
-1.440, 2.837e-3
-1.441, 2.858e-3
-1.442, 2.883e-3
-1.443, 2.904e-3
-1.444, 2.929e-3
-1.445, 2.948e-3
-1.446, 2.969e-3
-1.447, 2.991e-3
-1.448, 3.012e-3
-1.449, 3.037e-3
-1.450, 3.059e-3
-1.451, 3.086e-3
-1.452, 3.111e-3
-1.453, 3.136e-3
-1.454, 3.163e-3
-1.455, 3.191e-3
-1.456, 3.219e-3
-1.457, 3.244e-3
-1.458, 3.271e-3
-1.459, 3.296e-3
-1.460, 3.321e-3
-1.461, 3.345e-3
-1.462, 3.370e-3
-1.463, 3.398e-3
-1.464, 3.422e-3
-1.465, 3.453e-3
-1.466, 3.481e-3
-1.467, 3.509e-3
-1.468, 3.533e-3
-1.469, 3.561e-3
-1.470, 3.586e-3
-1.471, 3.610e-3
-1.472, 3.632e-3
-1.473, 3.654e-3
-1.474, 3.675e-3
-1.475, 3.691e-3
-1.476, 3.712e-3
-1.477, 3.737e-3
-1.478, 3.762e-3
-1.479, 3.786e-3
-1.480, 3.817e-3
-1.481, 3.848e-3
-1.482, 3.869e-3
-1.483, 3.894e-3
-1.484, 3.919e-3
-1.485, 3.940e-3
-1.486, 3.962e-3
-1.487, 3.984e-3
-1.488, 4.002e-3
-1.489, 4.027e-3
-1.490, 4.051e-3
-1.491, 4.079e-3
-1.492, 4.110e-3
-1.493, 4.144e-3
-1.494, 4.175e-3
-1.495, 4.209e-3
-1.496, 4.239e-3
-1.497, 4.270e-3
-1.498, 4.298e-3
-1.499, 4.323e-3
-1.500, 4.350e-3
-1.501, 4.375e-3
-1.502, 4.403e-3
-1.503, 4.431e-3
-1.504, 4.461e-3
-1.505, 4.489e-3
-1.506, 4.520e-3
-1.507, 4.551e-3
-1.508, 4.579e-3
-1.509, 4.603e-3
-1.510, 4.628e-3
-1.511, 4.656e-3
-1.512, 4.680e-3
-1.513, 4.705e-3
-1.514, 4.733e-3
-1.515, 4.757e-3
-1.516, 4.779e-3
-1.517, 4.807e-3
-1.518, 4.828e-3
-1.519, 4.853e-3
-1.520, 4.871e-3
-1.521, 4.896e-3
-1.522, 4.921e-3
-1.523, 4.945e-3
-1.524, 4.970e-3
-1.525, 4.998e-3
-1.526, 5.026e-3
-1.527, 5.050e-3
-1.528, 5.078e-3
-1.529, 5.109e-3
-1.530, 5.140e-3
-1.531, 5.171e-3
-1.532, 5.201e-3
-1.533, 5.229e-3
-1.534, 5.263e-3
-1.535, 5.291e-3
-1.536, 5.325e-3
-1.537, 5.356e-3
-1.538, 5.386e-3
-1.539, 5.417e-3
-1.540, 5.451e-3
-1.541, 5.482e-3
-1.542, 5.516e-3
-1.543, 5.553e-3
-1.544, 5.590e-3
-1.545, 5.624e-3
-1.546, 5.658e-3
-1.547, 5.692e-3
-1.548, 5.722e-3
-1.549, 5.750e-3
-1.550, 5.772e-3
-1.551, 5.796e-3
-1.552, 5.824e-3
-1.553, 5.849e-3
-1.554, 5.877e-3
-1.555, 5.904e-3
-1.556, 5.932e-3
-1.557, 5.960e-3
-1.558, 5.988e-3
-1.559, 6.015e-3
-1.560, 6.037e-3
-1.561, 6.062e-3
-1.562, 6.089e-3
-1.563, 6.117e-3
-1.564, 6.145e-3
-1.565, 6.173e-3
-1.566, 6.203e-3
-1.567, 6.234e-3
-1.568, 6.265e-3
-1.569, 6.296e-3
-1.570, 6.330e-3
-1.571, 6.367e-3
-1.572, 6.401e-3
-1.573, 6.435e-3
-1.574, 6.475e-3
-1.575, 6.512e-3
-1.576, 6.546e-3
-1.577, 6.583e-3
-1.578, 6.617e-3
-1.579, 6.650e-3
-1.580, 6.681e-3
-1.581, 6.712e-3
-1.582, 6.749e-3
-1.583, 6.783e-3
-1.584, 6.817e-3
-1.585, 6.854e-3
-1.586, 6.891e-3
-1.587, 6.919e-3
-1.588, 6.949e-3
-1.589, 6.974e-3
-1.590, 6.999e-3
-1.591, 7.020e-3
-1.592, 7.045e-3
-1.593, 7.070e-3
-1.594, 7.097e-3
-1.595, 7.125e-3
-1.596, 7.156e-3
-1.597, 7.190e-3
-1.598, 7.224e-3
-1.599, 7.258e-3
-1.600, 7.239e-3
-1.599, 7.144e-3
-1.598, 7.064e-3
-1.597, 6.990e-3
-1.596, 6.919e-3
-1.595, 6.854e-3
-1.594, 6.792e-3
-1.593, 6.737e-3
-1.592, 6.681e-3
-1.591, 6.629e-3
-1.590, 6.576e-3
-1.589, 6.524e-3
-1.588, 6.475e-3
-1.587, 6.419e-3
-1.586, 6.364e-3
-1.585, 6.305e-3
-1.584, 6.250e-3
-1.583, 6.194e-3
-1.582, 6.142e-3
-1.581, 6.092e-3
-1.580, 6.040e-3
-1.579, 5.984e-3
-1.578, 5.938e-3
-1.577, 5.889e-3
-1.576, 5.836e-3
-1.575, 5.784e-3
-1.574, 5.729e-3
-1.573, 5.673e-3
-1.572, 5.621e-3
-1.571, 5.565e-3
-1.570, 5.516e-3
-1.569, 5.467e-3
-1.568, 5.417e-3
-1.567, 5.368e-3
-1.566, 5.325e-3
-1.565, 5.278e-3
-1.564, 5.232e-3
-1.563, 5.186e-3
-1.562, 5.137e-3
-1.561, 5.084e-3
-1.560, 5.032e-3
-1.559, 4.986e-3
-1.558, 4.936e-3
-1.557, 4.890e-3
-1.556, 4.844e-3
-1.555, 4.804e-3
-1.554, 4.764e-3
-1.553, 4.723e-3
-1.552, 4.686e-3
-1.551, 4.646e-3
-1.550, 4.606e-3
-1.549, 4.563e-3
-1.548, 4.520e-3
-1.547, 4.477e-3
-1.546, 4.437e-3
-1.545, 4.391e-3
-1.544, 4.350e-3
-1.543, 4.310e-3
-1.542, 4.273e-3
-1.541, 4.236e-3
-1.540, 4.199e-3
-1.539, 4.162e-3
-1.538, 4.122e-3
-1.537, 4.082e-3
-1.536, 4.042e-3
-1.535, 4.005e-3
-1.534, 3.962e-3
-1.533, 3.925e-3
-1.532, 3.885e-3
-1.531, 3.848e-3
-1.530, 3.811e-3
-1.529, 3.771e-3
-1.528, 3.737e-3
-1.527, 3.700e-3
-1.526, 3.660e-3
-1.525, 3.623e-3
-1.524, 3.586e-3
-1.523, 3.549e-3
-1.522, 3.515e-3
-1.521, 3.481e-3
-1.520, 3.450e-3
-1.519, 3.416e-3
-1.518, 3.385e-3
-1.517, 3.355e-3
-1.516, 3.321e-3
-1.515, 3.290e-3
-1.514, 3.256e-3
-1.513, 3.228e-3
-1.512, 3.194e-3
-1.511, 3.163e-3
-1.510, 3.133e-3
-1.509, 3.102e-3
-1.508, 3.068e-3
-1.507, 3.034e-3
-1.506, 3.006e-3
-1.505, 2.978e-3
-1.504, 2.948e-3
-1.503, 2.920e-3
-1.502, 2.892e-3
-1.501, 2.861e-3
-1.500, 2.830e-3
-1.499, 2.803e-3
-1.498, 2.772e-3
-1.497, 2.744e-3
-1.496, 2.710e-3
-1.495, 2.682e-3
-1.494, 2.655e-3
-1.493, 2.627e-3
-1.492, 2.599e-3
-1.491, 2.571e-3
-1.490, 2.541e-3
-1.489, 2.513e-3
-1.488, 2.485e-3
-1.487, 2.457e-3
-1.486, 2.433e-3
-1.485, 2.405e-3
-1.484, 2.380e-3
-1.483, 2.353e-3
-1.482, 2.331e-3
-1.481, 2.306e-3
-1.480, 2.279e-3
-1.479, 2.257e-3
-1.478, 2.232e-3
-1.477, 2.211e-3
-1.476, 2.189e-3
-1.475, 2.168e-3
-1.474, 2.143e-3
-1.473, 2.124e-3
-1.472, 2.103e-3
-1.471, 2.081e-3
-1.470, 2.060e-3
-1.469, 2.038e-3
-1.468, 2.020e-3
-1.467, 1.998e-3
-1.466, 1.976e-3
-1.465, 1.955e-3
-1.464, 1.933e-3
-1.463, 1.909e-3
-1.462, 1.887e-3
-1.461, 1.865e-3
-1.460, 1.844e-3
-1.459, 1.819e-3
-1.458, 1.801e-3
-1.457, 1.779e-3
-1.456, 1.761e-3
-1.455, 1.736e-3
-1.454, 1.717e-3
-1.453, 1.696e-3
-1.452, 1.674e-3
-1.451, 1.650e-3
-1.450, 1.628e-3
-1.449, 1.606e-3
-1.448, 1.585e-3
-1.447, 1.563e-3
-1.446, 1.545e-3
-1.445, 1.526e-3
-1.444, 1.508e-3
-1.443, 1.492e-3
-1.442, 1.474e-3
-1.441, 1.458e-3
-1.440, 1.440e-3
-1.439, 1.425e-3
-1.438, 1.409e-3
-1.437, 1.394e-3
-1.436, 1.378e-3
-1.435, 1.363e-3
-1.434, 1.347e-3
-1.433, 1.329e-3
-1.432, 1.314e-3
-1.431, 1.301e-3
-1.430, 1.286e-3
-1.429, 1.270e-3
-1.428, 1.258e-3
-1.427, 1.243e-3
-1.426, 1.227e-3
-1.425, 1.209e-3
-1.424, 1.196e-3
-1.423, 1.178e-3
-1.422, 1.162e-3
-1.421, 1.147e-3
-1.420, 1.129e-3
-1.419, 1.113e-3
-1.418, 1.098e-3
-1.417, 1.082e-3
-1.416, 1.067e-3
-1.415, 1.055e-3
-1.414, 1.039e-3
-1.413, 1.027e-3
-1.412, 1.008e-3
-1.411, 9.929e-4
-1.410, 9.775e-4
-1.409, 9.621e-4
-1.408, 9.467e-4
-1.407, 9.313e-4
-1.406, 9.158e-4
-1.405, 9.066e-4
-1.404, 8.912e-4
-1.403, 8.788e-4
-1.402, 8.665e-4
-1.401, 8.511e-4
-1.400, 8.388e-4
-1.399, 8.264e-4
-1.398, 8.110e-4
-1.397, 8.018e-4
-1.396, 7.894e-4
-1.395, 7.740e-4
-1.394, 7.617e-4
-1.393, 7.524e-4
-1.392, 7.401e-4
-1.391, 7.278e-4
-1.390, 7.185e-4
-1.389, 7.062e-4
-1.388, 6.939e-4
-1.387, 6.815e-4
-1.386, 6.692e-4
-1.385, 6.538e-4
-1.384, 6.414e-4
-1.383, 6.322e-4
-1.382, 6.199e-4
-1.381, 6.075e-4
-1.380, 5.952e-4
-1.379, 5.859e-4
-1.378, 5.736e-4
-1.377, 5.644e-4
-1.376, 5.520e-4
-1.375, 5.397e-4
-1.374, 5.274e-4
-1.373, 5.150e-4
-1.372, 5.027e-4
-1.371, 4.935e-4
-1.370, 4.811e-4
-1.369, 4.688e-4
-1.368, 4.595e-4
-1.367, 4.534e-4
-1.366, 4.410e-4
-1.365, 4.318e-4
-1.364, 4.225e-4
-1.363, 4.133e-4
-1.362, 4.040e-4
-1.361, 3.917e-4
-1.360, 3.825e-4
-1.359, 3.732e-4
-1.358, 3.609e-4
-1.357, 3.516e-4
-1.356, 3.424e-4
-1.355, 3.362e-4
-1.354, 3.239e-4
-1.353, 3.177e-4
-1.352, 3.115e-4
-1.351, 3.023e-4
-1.350, 2.900e-4
-1.349, 2.807e-4
-1.348, 2.746e-4
-1.347, 2.653e-4
-1.346, 2.561e-4
-1.345, 2.468e-4
-1.344, 2.376e-4
-1.343, 2.283e-4
-1.342, 2.221e-4
-1.341, 2.129e-4
-1.340, 2.036e-4
-1.339, 1.975e-4
-1.338, 1.882e-4
-1.337, 1.821e-4
-1.336, 1.728e-4
-1.335, 1.636e-4
-1.334, 1.543e-4
-1.333, 1.512e-4
-1.332, 1.420e-4
-1.331, 1.358e-4
-1.330, 1.266e-4
-1.329, 1.173e-4
-1.328, 1.111e-4
-1.327, 1.019e-4
-1.326, 9.573e-5
-1.325, 8.648e-5
-1.324, 8.032e-5
-1.323, 7.415e-5
-1.322, 6.798e-5
-1.321, 6.182e-5
-1.320, 5.565e-5
-1.319, 4.949e-5
-1.318, 4.024e-5
-1.317, 3.715e-5
-1.316, 2.790e-5
-1.315, 2.174e-5
-1.314, 1.557e-5
-1.313, 6.322e-6
-1.312, 1.559e-7
-1.311, -6.010e-6
-1.310, -1.218e-5
-1.309, -1.834e-5
-1.308, -2.143e-5
-1.307, -2.759e-5
-1.306, -3.376e-5
-1.305, -3.992e-5
-1.304, -4.609e-5
-1.303, -5.226e-5
-1.302, -5.842e-5
-1.301, -6.151e-5
-1.300, -6.767e-5
-1.299, -7.384e-5
-1.298, -8.309e-5
-1.297, -8.617e-5
-1.296, -9.234e-5
-1.295, -9.542e-5
-1.294, -1.016e-4
-1.293, -1.047e-4
-1.292, -1.108e-4
-1.291, -1.139e-4
-1.290, -1.201e-4
-1.289, -1.263e-4
-1.288, -1.293e-4
-1.287, -1.355e-4
-1.286, -1.386e-4
-1.285, -1.448e-4
-1.284, -1.509e-4
-1.283, -1.540e-4
-1.282, -1.602e-4
-1.281, -1.632e-4
-1.280, -1.663e-4
-1.279, -1.756e-4
-1.278, -1.756e-4
-1.277, -1.787e-4
-1.276, -1.848e-4
-1.275, -1.879e-4
-1.274, -1.910e-4
-1.273, -1.972e-4
-1.272, -1.972e-4
-1.271, -2.033e-4
-1.270, -2.064e-4
-1.269, -2.095e-4
-1.268, -2.157e-4
-1.267, -2.187e-4
-1.266, -2.249e-4
-1.265, -2.280e-4
-1.264, -2.311e-4
-1.263, -2.342e-4
-1.262, -2.372e-4
-1.261, -2.403e-4
-1.260, -2.434e-4
-1.259, -2.465e-4
-1.258, -2.496e-4
-1.257, -2.527e-4
-1.256, -2.557e-4
-1.255, -2.588e-4
-1.254, -2.619e-4
-1.253, -2.650e-4
-1.252, -2.712e-4
-1.251, -2.712e-4
-1.250, -2.742e-4
-1.249, -2.773e-4
-1.248, -2.804e-4
-1.247, -2.835e-4
-1.246, -2.835e-4
-1.245, -2.897e-4
-1.244, -2.897e-4
-1.243, -2.927e-4
-1.242, -2.927e-4
-1.241, -2.989e-4
-1.240, -2.989e-4
-1.239, -3.051e-4
-1.238, -3.082e-4
-1.237, -3.112e-4
-1.236, -3.112e-4
-1.235, -3.143e-4
-1.234, -3.143e-4
-1.233, -3.174e-4
-1.232, -3.174e-4
-1.231, -3.205e-4
-1.230, -3.236e-4
-1.229, -3.267e-4
-1.228, -3.267e-4
-1.227, -3.297e-4
-1.226, -3.297e-4
-1.225, -3.328e-4
-1.224, -3.359e-4
-1.223, -3.390e-4
-1.222, -3.421e-4
-1.221, -3.390e-4
-1.220, -3.452e-4
-1.219, -3.452e-4
-1.218, -3.452e-4
-1.217, -3.452e-4
-1.216, -3.482e-4
-1.215, -3.513e-4
-1.214, -3.513e-4
-1.213, -3.513e-4
-1.212, -3.544e-4
-1.211, -3.575e-4
-1.210, -3.575e-4
-1.209, -3.575e-4
-1.208, -3.606e-4
-1.207, -3.637e-4
-1.206, -3.606e-4
-1.205, -3.637e-4
-1.204, -3.637e-4
-1.203, -3.606e-4
-1.202, -3.637e-4
-1.201, -3.637e-4
-1.200, -3.667e-4
-1.199, -3.698e-4
-1.198, -3.667e-4
-1.197, -3.698e-4
-1.196, -3.698e-4
-1.195, -3.698e-4
-1.194, -3.729e-4
-1.193, -3.760e-4
-1.192, -3.760e-4
-1.191, -3.760e-4
-1.190, -3.791e-4
-1.189, -3.791e-4
-1.188, -3.791e-4
-1.187, -3.791e-4
-1.186, -3.821e-4
-1.185, -3.821e-4
-1.184, -3.821e-4
-1.183, -3.852e-4
-1.182, -3.852e-4
-1.181, -3.852e-4
-1.180, -3.852e-4
-1.179, -3.852e-4
-1.178, -3.852e-4
-1.177, -3.883e-4
-1.176, -3.883e-4
-1.175, -3.883e-4
-1.174, -3.883e-4
-1.173, -3.883e-4
-1.172, -3.852e-4
-1.171, -3.883e-4
-1.170, -3.883e-4
-1.169, -3.883e-4
-1.168, -3.883e-4
-1.167, -3.883e-4
-1.166, -3.883e-4
-1.165, -3.883e-4
-1.164, -3.883e-4
-1.163, -3.883e-4
-1.162, -3.914e-4
-1.161, -3.914e-4
-1.160, -3.914e-4
-1.159, -3.914e-4
-1.158, -3.914e-4
-1.157, -3.914e-4
-1.156, -3.914e-4
-1.155, -3.914e-4
-1.154, -3.914e-4
-1.153, -3.914e-4
-1.152, -3.914e-4
-1.151, -3.945e-4
-1.150, -3.945e-4
-1.149, -3.945e-4
-1.148, -3.976e-4
-1.147, -3.976e-4
-1.146, -3.976e-4
-1.145, -3.976e-4
-1.144, -4.006e-4
-1.143, -3.976e-4
-1.142, -3.976e-4
-1.141, -3.976e-4
-1.140, -3.976e-4
-1.139, -3.976e-4
-1.138, -3.976e-4
-1.137, -3.976e-4
-1.136, -3.976e-4
-1.135, -3.976e-4
-1.134, -3.976e-4
-1.133, -3.976e-4
-1.132, -4.006e-4
-1.131, -4.006e-4
-1.130, -3.976e-4
-1.129, -4.006e-4
-1.128, -3.976e-4
-1.127, -3.976e-4
-1.126, -3.976e-4
-1.125, -3.976e-4
-1.124, -3.976e-4
-1.123, -3.976e-4
-1.122, -3.976e-4
-1.121, -3.976e-4
-1.120, -3.976e-4
-1.119, -3.976e-4
-1.118, -4.006e-4
-1.117, -4.006e-4
-1.116, -4.006e-4
-1.115, -4.006e-4
-1.114, -4.006e-4
-1.113, -4.006e-4
-1.112, -4.006e-4
-1.111, -4.037e-4
-1.110, -4.037e-4
-1.109, -4.037e-4
-1.108, -4.037e-4
-1.107, -4.037e-4
-1.106, -4.068e-4
-1.105, -4.068e-4
-1.104, -4.068e-4
-1.103, -4.068e-4
-1.102, -4.099e-4
-1.101, -4.068e-4
-1.100, -4.099e-4
-1.099, -4.099e-4
-1.098, -4.068e-4
-1.097, -4.099e-4
-1.096, -4.068e-4
-1.095, -4.068e-4
-1.094, -4.099e-4
-1.093, -4.068e-4
-1.092, -4.099e-4
-1.091, -4.068e-4
-1.090, -4.099e-4
-1.089, -4.099e-4
-1.088, -4.130e-4
-1.087, -4.130e-4
-1.086, -4.099e-4
-1.085, -4.130e-4
-1.084, -4.130e-4
-1.083, -4.130e-4
-1.082, -4.099e-4
-1.081, -4.130e-4
-1.080, -4.130e-4
-1.079, -4.130e-4
-1.078, -4.161e-4
-1.077, -4.161e-4
-1.076, -4.161e-4
-1.075, -4.191e-4
-1.074, -4.191e-4
-1.073, -4.191e-4
-1.072, -4.222e-4
-1.071, -4.222e-4
-1.070, -4.222e-4
-1.069, -4.253e-4
-1.068, -4.253e-4
-1.067, -4.222e-4
-1.066, -4.253e-4
-1.065, -4.253e-4
-1.064, -4.253e-4
-1.063, -4.253e-4
-1.062, -4.284e-4
-1.061, -4.315e-4
-1.060, -4.315e-4
-1.059, -4.284e-4
-1.058, -4.315e-4
-1.057, -4.315e-4
-1.056, -4.315e-4
-1.055, -4.315e-4
-1.054, -4.346e-4
-1.053, -4.315e-4
-1.052, -4.315e-4
-1.051, -4.346e-4
-1.050, -4.346e-4
-1.049, -4.346e-4
-1.048, -4.346e-4
-1.047, -4.376e-4
-1.046, -4.407e-4
-1.045, -4.376e-4
-1.044, -4.407e-4
-1.043, -4.438e-4
-1.042, -4.438e-4
-1.041, -4.407e-4
-1.040, -4.438e-4
-1.039, -4.469e-4
-1.038, -4.469e-4
-1.037, -4.469e-4
-1.036, -4.469e-4
-1.035, -4.500e-4
-1.034, -4.500e-4
-1.033, -4.500e-4
-1.032, -4.531e-4
-1.031, -4.531e-4
-1.030, -4.531e-4
-1.029, -4.561e-4
-1.028, -4.592e-4
-1.027, -4.592e-4
-1.026, -4.592e-4
-1.025, -4.623e-4
-1.024, -4.623e-4
-1.023, -4.654e-4
-1.022, -4.623e-4
-1.021, -4.654e-4
-1.020, -4.685e-4
-1.019, -4.654e-4
-1.018, -4.685e-4
-1.017, -4.685e-4
-1.016, -4.685e-4
-1.015, -4.685e-4
-1.014, -4.716e-4
-1.013, -4.716e-4
-1.012, -4.746e-4
-1.011, -4.746e-4
-1.010, -4.746e-4
-1.009, -4.808e-4
-1.008, -4.777e-4
-1.007, -4.777e-4
-1.006, -4.808e-4
-1.005, -4.808e-4
-1.004, -4.808e-4
-1.003, -4.839e-4
-1.002, -4.839e-4
-1.001, -4.839e-4
