Potential V vs RHE, Current mA cm-2
0.013299999999999867,-0.2345591335176231
0.012299999999999978,-0.8716036318468491
0.011299999999999866,-1.175766561317832
0.010299999999999976,-1.40608156093586
0.009299999999999864,-1.6368209739438475
0.008299999999999974,-1.822148154226167
0.007299999999999862,-1.9409839034148304
0.006299999999999972,-2.0159636023076772
0.00529999999999986,-2.1149933932982297
0.0042999999999999705,-2.257879234584599
0.0032999999999998586,-2.386617962872317
0.0022999999999999687,-2.464427084364894
0.0012999999999998568,-2.5111125572604402
0.00029999999999996696,-2.581848122253692
-0.000700000000000145,-2.7105868505414104
-0.0017000000000000348,-2.8280078884302084
-0.0027000000000001467,-2.8944993195238653
-0.0037000000000000366,-2.9341112359200863
-0.0047000000000001485,-3.004846800913338
-0.005700000000000038,-3.126511972701731
-0.00670000000000015,-3.243933010590529
-0.00770000000000004,-3.313253864283916
-0.008700000000000152,-3.355695203279867
-0.009700000000000042,-3.4335043247724437
-0.010700000000000154,-3.562243053060162
-0.011700000000000044,-3.6824935135486903
-0.012700000000000156,-3.765961480240728
-0.013700000000000045,-3.8041586853370832
-0.014700000000000157,-3.8918707859287163
-0.015700000000000047,-4.024853648116029
-0.01670000000000016,-4.159251221603208
-0.01770000000000005,-4.2483780334947046
-0.01870000000000016,-4.3063811967891725
-0.01970000000000005,-4.401166853880129
-0.020700000000000163,-4.546882117766228
-0.021700000000000053,-4.685523825153001
-0.022700000000000164,-4.800115440442069
-0.023700000000000054,-4.860948026336266
-0.024700000000000166,-4.965636662526279
-0.025700000000000056,-5.125499039411029
-0.026700000000000168,-5.279702571096316
-0.027700000000000058,-5.4027824541845755
-0.02870000000000017,-5.486250420876612
-0.02970000000000006,-5.6065008813651405
-0.03070000000000017,-5.779095659948675
-0.03170000000000006,-5.953105149832074
-0.03270000000000017,-6.081843878119792
-0.03370000000000006,-6.183703091710075
-0.034700000000000175,-6.306782974798334
-0.035700000000000065,-6.492110155080653
-0.03670000000000018,-6.690169737061758
-0.03770000000000007,-6.830226155748398
-0.03870000000000018,-6.949061904937061
-0.03970000000000007,-7.094777168823159
-0.04070000000000018,-7.297080884703859
-0.04170000000000007,-7.510702290983478
-0.04270000000000018,-7.667735245268498
-0.04370000000000007,-7.802132818755678
-0.044700000000000184,-7.960580484340561
-0.045700000000000074,-8.181275447119509
-0.046700000000000186,-8.416117522897103
-0.047700000000000076,-8.587297590180773
-0.04870000000000019,-8.741501121866062
-0.04970000000000008,-8.911266477849864
-0.05070000000000019,-9.124887884129487
-0.05170000000000008,-9.376706495505463
-0.05270000000000019,-9.563448387087647
-0.05370000000000008,-9.724725475272262
-0.05470000000000019,-9.908637944254718
-0.05570000000000008,-10.157627133030964
-0.056700000000000195,-10.399542765307885
-0.057700000000000085,-10.6174083054871
-0.058700000000000196,-10.768782414572659
-0.059700000000000086,-10.98806266605174
-0.0607000000000002,-11.238466566127851
-0.06170000000000009,-11.500188156602883
-0.0627000000000002,-11.7180536967821
-0.06370000000000009,-11.893477897965363
-0.0647000000000002,-12.119831705943769
-0.06570000000000009,-12.375894451219342
-0.0667000000000002,-12.664495556391808
-0.0677000000000001,-12.876702251371565
-0.0687000000000002,-13.056370586454424
-0.0697000000000001,-13.274236126633639
-0.07070000000000021,-13.585472612603946
-0.0717000000000001,-13.867000161277092
-0.07270000000000021,-14.100427525754823
-0.0737000000000001,-14.30273124163552
-0.07470000000000021,-14.514937936615278
-0.0757000000000001,-14.812027309586934
-0.07670000000000021,-15.10911668255859
-0.0777000000000001,-15.363764716534297
-0.07870000000000021,-15.575971411514052
-0.0797000000000001,-15.802325219492458
-0.08070000000000022,-16.099414592464115
-0.0817000000000001,-16.410651078434423
-0.08270000000000022,-16.651151999411482
-0.08370000000000011,-16.877505807389888
-0.08470000000000022,-17.118006728366943
-0.08570000000000011,-17.40094898833995
-0.08670000000000022,-17.71218547431026
-0.08770000000000011,-17.980980621284615
-0.08870000000000022,-18.19318731626437
-0.08970000000000011,-18.433688237241427
-0.09070000000000022,-18.716630497214435
-0.09170000000000011,-19.027866983184744
-0.09270000000000023,-19.2683679041618
-0.09370000000000012,-19.551310164134804
-0.09470000000000023,-19.763516859114564
-0.09570000000000012,-20.06060623208622
-0.09670000000000023,-20.34354849205923
-0.09770000000000012,-20.654784978029536
-0.09870000000000023,-20.89528589900659
-0.09970000000000012,-21.121639706984997
-0.10070000000000023,-21.43287619295531
-0.10170000000000012,-21.758259791924264
-0.10270000000000024,-22.012907825899973
-0.10370000000000013,-22.239261633878378
-0.10470000000000024,-22.46561544185678
-0.10570000000000013,-22.76270481482844
-0.10670000000000024,-23.059794187800097
-0.10770000000000013,-23.342736447773106
-0.10870000000000024,-23.597384481748815
-0.10970000000000013,-23.83788540272587
-0.11070000000000024,-24.149121888696175
-0.11170000000000013,-24.474505487665134
-0.11270000000000002,-24.70085929564354
-0.11370000000000013,-24.9130659906233
-0.11470000000000002,-25.153566911600354
-0.11570000000000014,-25.43650917157336
-0.11670000000000003,-25.747745657543668
-0.11770000000000014,-26.016540804518023
-0.11870000000000003,-26.242894612496432
-0.11970000000000014,-26.483395533473487
-0.12070000000000003,-26.766337793446493
-0.12170000000000014,-27.049280053419505
-0.12270000000000003,-27.289780974396557
-0.12370000000000014,-27.501987669376312
-0.12470000000000003,-27.756635703352025
-0.12570000000000014,-28.02543085032638
-0.12670000000000003,-28.350814449295335
-0.12770000000000015,-28.60546248327104
-0.12870000000000004,-28.775227839254843
-0.12970000000000015,-29.001581647233255
-0.13070000000000004,-29.284523907206257
-0.13170000000000015,-29.609907506175215
-0.13270000000000004,-29.878702653149578
-0.13370000000000015,-30.02017378313608
-0.13470000000000004,-30.21823336511718
-0.13570000000000015,-30.47288139909289
-0.13670000000000004,-30.7841178850632
-0.13770000000000016,-30.99632458004295
-0.13870000000000005,-31.16608993602676
-0.13970000000000016,-31.350002405009217
-0.14070000000000005,-31.604650438984915
-0.14170000000000016,-31.84515135996197
-0.14270000000000005,-32.12809361993498
-0.14370000000000016,-32.297858975918786
-0.14470000000000005,-32.439330105905285
-0.14570000000000016,-32.58080123589179
-0.14670000000000005,-32.8637434958648
-0.14770000000000016,-33.09009730384321
-0.14870000000000005,-33.21742132083106
-0.14970000000000017,-33.344745337818914
-0.15070000000000006,-33.50036358080407
-0.15170000000000017,-33.740864501781125
-0.15270000000000006,-33.93892408376223
-0.15370000000000017,-34.03795387475279
-0.15470000000000006,-34.16527789174064
-0.15570000000000017,-34.32089613472579
-0.15670000000000006,-34.56139705570285
-0.15770000000000017,-34.64627973369475
-0.15870000000000006,-34.702868185689354
-0.15970000000000018,-34.87263354167316
-0.16070000000000007,-34.98581044566235
-0.16170000000000018,-35.11313446265021
-0.16270000000000007,-35.254605592636715
-0.16370000000000018,-35.339488270628614
-0.16470000000000007,-35.396076722623214
-0.16570000000000018,-35.53754785260972
-0.16670000000000007,-35.735607434590825
-0.16770000000000018,-35.79219588658543
-0.16870000000000007,-35.79219588658543
-0.16970000000000018,-35.848784338580025
-0.17070000000000007,-35.91951990357328
-0.17170000000000019,-35.96196124256923
-0.17270000000000008,-36.03269680756248
-0.1737000000000002,-36.01854969456383
-0.17470000000000008,-36.00440258156518
-0.1757000000000002,-36.08928525955708
-0.17670000000000008,-36.16002082455034
-0.1777000000000002,-36.16002082455034
-0.17870000000000008,-36.10343237255574
-0.1797000000000002,-36.07513814655844
-0.18070000000000008,-36.06099103355979
-0.1817000000000002,-36.11757948555439
-0.18270000000000008,-36.08928525955708
-0.1837000000000002,-36.01854969456383
-0.1847000000000001,-35.97610835556789
-0.1857000000000002,-35.94781412957058
-0.1867000000000001,-35.83463722558138
-0.1877000000000002,-35.862931451578675
-0.1887000000000001,-35.679018982596226
-0.1897000000000002,-35.62243053060162
-0.1907000000000001,-35.594136304604326
-0.1917000000000001,-35.56584207860703
-0.19269999999999998,-35.52340073961108
-0.1937000000000001,-35.339488270628614
-0.19469999999999998,-35.297046931632664
-0.1957000000000001,-35.240458479638065
-0.19669999999999999,-35.12728157564886
-0.1977000000000001,-34.9716633326637
-0.1987,-34.81604508967855
-0.1997000000000001,-34.64627973369475
-0.2007,-34.61798550769744
-0.2017000000000001,-34.51895571670689
-0.2027,-34.41992592571634
-0.2037000000000001,-34.236013456733886
-0.2047,-34.09454232674739
-0.2057000000000001,-34.02380676175414
-0.2067,-33.924776970763574
-0.2077000000000001,-33.783305840777075
-0.2087,-33.58524625879597
-0.2097000000000001,-33.42962801581082
-0.2107,-33.302303998822964
-0.2117000000000001,-33.245715546828364
-0.2127,-33.11839152984051
-0.2137000000000001,-32.96277328685535
-0.2147,-32.87789060886345
-0.2157000000000001,-32.7788608178729
-0.2167,-32.70812525287965
-0.21770000000000012,-32.6090954618891
-0.2187,-32.45347721890394
-0.21970000000000012,-32.24127052392419
-0.2207,-32.170534958930936
-0.22170000000000012,-32.09979939393769
-0.2227,-32.04321094194308
-0.22370000000000012,-31.85929847296063
-0.2247,-31.703680229975475
-0.22570000000000012,-31.64709177798087
-0.2267,-31.618797551983565
-0.22770000000000012,-31.519767760993016
-0.22870000000000001,-31.37829663100651
-0.22970000000000013,-31.23682550102001
-0.23070000000000002,-31.23682550102001
-0.23170000000000013,-31.180237049025404
-0.23270000000000002,-31.151942823028104
-0.23370000000000013,-31.038765919038905
-0.23470000000000002,-30.91144190205105
-0.23570000000000013,-30.91144190205105
-0.23670000000000002,-30.939736128048356
-0.2376999999999999,-30.8690005630551
-0.23870000000000002,-30.7558236590659
-0.2396999999999999,-30.727529433068593
-0.24070000000000003,-30.727529433068593
-0.24169999999999991,-30.769970772064546
-0.24270000000000003,-30.769970772064546
-0.24369999999999992,-30.699235207071297
-0.24470000000000003,-30.656793868075347
-0.24569999999999992,-30.670940981073993
-0.24670000000000003,-30.727529433068593
-0.24769999999999992,-30.769970772064546
-0.24870000000000003,-30.741676546067247
-0.24969999999999992,-30.727529433068593
-0.25070000000000003,-30.7558236590659
-0.2516999999999999,-30.854853450056453
-0.25270000000000004,-30.854853450056453
-0.2536999999999999,-30.8690005630551
-0.25470000000000004,-30.925589015049702
-0.2556999999999999,-30.968030354045652
-0.25670000000000004,-31.052913032037555
-0.25769999999999993,-31.16608993602676
-0.25870000000000004,-31.151942823028104
-0.25969999999999993,-31.20853127502271
-0.26070000000000004,-31.350002405009217
-0.26169999999999993,-31.47732642199707
-0.26270000000000004,-31.56220909998897
-0.26369999999999993,-31.590503325986273
-0.26470000000000005,-31.632944664982226
-0.26569999999999994,-31.74612156897142
-0.26670000000000005,-31.915886924955227
-0.26769999999999994,-32.04321094194308
-0.26870000000000005,-32.09979939393769
-0.26969999999999994,-32.24127052392419
-0.27070000000000005,-32.354447427913385
-0.27169999999999994,-32.53835989689585
-0.27270000000000005,-32.693978139881004
-0.27369999999999994,-32.73641947887695
-0.27470000000000006,-32.807155043870196
-0.27569999999999995,-32.99106751285265
-0.27670000000000006,-33.18912709483376
-0.27769999999999995,-33.358892450817564
-0.27870000000000006,-33.48621646780542
-0.27969999999999995,-33.51451069380272
-0.28070000000000006,-33.64183471079057
-0.28169999999999995,-33.86818851876898
-0.28270000000000006,-34.05210098775143
-0.28369999999999995,-34.15113077874198
-0.28470000000000006,-34.33504324772444
-0.28569999999999995,-34.47651437771095
-0.28670000000000007,-34.702868185689354
-0.28769999999999996,-34.84433931567585
-0.28870000000000007,-34.95751621966506
-0.28969999999999996,-35.07069312365426
-0.29070000000000007,-35.254605592636715
-0.29169999999999996,-35.43851806161916
-0.29270000000000007,-35.650724756598926
-0.29369999999999996,-35.74975454758948
-0.2947000000000001,-35.89122567757598
-0.29569999999999996,-36.03269680756248
-0.2967000000000001,-36.315639067535486
-0.29769999999999996,-36.47125731052064
-0.2987000000000001,-36.55613998851254
-0.29969999999999997,-36.7117582314977
-0.3007000000000001,-36.81078802248826
-0.30169999999999997,-37.07958316946261
-0.3027000000000001,-37.26349563844507
-0.30369999999999997,-37.46155522042617
-0.3047000000000001,-37.57473212441538
-0.30569999999999997,-37.702056141403226
-0.3067000000000001,-37.88596861038568
-0.3077,-38.05573396636949
-0.3087000000000001,-38.140616644361394
-0.3097,-38.29623488734655
-0.3107000000000001,-38.49429446932764
-0.3117,-38.664059825311455
-0.3127000000000001,-38.81967806829661
-0.3137,-38.91870785928716
-0.3147000000000001,-38.98944342428042
-0.3157,-39.173355893262865
-0.3167000000000001,-39.314827023249364
-0.3177,-39.41385681423992
-0.3187000000000001,-39.52703371822913
-0.3197,-39.56947505722508
-0.3207000000000001,-39.739240413208876
-0.3217,-39.93729999518999
-0.3227000000000001,-40.07877112517649
-0.3237,-40.14950669016974
-0.3247000000000001,-40.135359577171094
-0.3257,-40.29097782015624
-0.3267000000000001,-40.460743176140056
-0.3277,-40.531478741133306
-0.3287000000000001,-40.545625854131956
-0.3297,-40.616361419125205
-0.3307000000000001,-40.743685436113054
-0.3317,-40.828568114104954
-0.3327000000000001,-40.95589213109281
-0.3337,-40.8993036790982
-0.3347000000000001,-40.95589213109281
-0.3357,-41.02662769608606
-0.3367000000000001,-41.097363261079316
-0.3377,-41.168098826072566
-0.3387000000000001,-41.168098826072566
-0.3397,-41.23883439106582
-0.3407000000000001,-41.33786418205637
-0.3417,-41.45104108604558
-0.3427000000000001,-41.50762953804018
-0.3437,-41.43689397304693
-0.3447000000000001,-41.43689397304693
-0.3457,-41.46518819904423
-0.3467000000000001,-41.649100668026676
-0.3477,-41.57836510303343
-0.3487000000000001,-41.56421799003478
-0.3497,-41.53592376403748
-0.3507000000000001,-41.63495355502803
-0.3517,-41.719836233019926
-0.3527000000000001,-41.73398334601858
-0.3537,-41.70568912002128
-0.3547000000000001,-41.69154200702263
-0.3557,-41.70568912002128
-0.35670000000000013,-41.88960158900374
-0.3577,-41.88960158900374
-0.35870000000000013,-41.87545447600508
-0.3597,-41.88960158900374
-0.36070000000000013,-42.04521983198889
-0.3617,-42.087661170984845
-0.3626999999999999,-42.130102509980794
-0.3637,-42.115955396982145
-0.3646999999999999,-42.14424962297944
-0.3657,-42.2715736399673
-0.3666999999999999,-42.42719188295245
-0.3677,-42.526221673943
-0.3686999999999999,-42.681839916928155
-0.36970000000000003,-42.79501682091736
-0.3706999999999999,-42.96478217690117
-0.37170000000000003,-43.17698887188092
-0.3726999999999999,-43.43163690585662
-0.37370000000000003,-43.629696487837734
-0.3746999999999999,-43.85605029581614
-0.37570000000000003,-44.195581007783744
-0.3766999999999999,-44.67658284973786
-0.37770000000000004,-45.10099623969737
-0.3786999999999999,-45.51126251665823
-0.37970000000000004,-46.091294149602895
-0.3806999999999999,-46.82694402553272
-0.38170000000000004,-47.78894770944093
-0.38269999999999993,-48.82168695834242
-0.38370000000000004,-49.98175022423175
-0.38469999999999993,-51.509638428085985
-0.38570000000000004,-53.447792908901086
-0.38669999999999993,-54.38150236681201
-0.38570000000000004,-54.59370906179176
-0.38469999999999993,-55.31521182472294
-0.38370000000000004,-56.30550973462846
-0.38269999999999993,-57.380690322525886
-0.38170000000000004,-58.51245936241792
-0.3806999999999999,-59.587639950315335
-0.37970000000000004,-60.62037919921682
-0.3786999999999999,-61.5965299961237
-0.37770000000000004,-62.53023945403463
-0.3766999999999999,-63.37906623395363
-0.37570000000000003,-64.08642188388616
-0.3746999999999999,-64.55327661284163
-0.37370000000000003,-64.97769000280114
-0.3726999999999999,-65.37380916676335
-0.37170000000000003,-65.62845720073905
-0.3706999999999999,-65.65675142673635
-0.36970000000000003,-65.5860158617431
-0.3686999999999999,-65.45869184475525
-0.3677,-65.3030736017701
-0.3666999999999999,-65.13330824578628
-0.3657,-64.76548330782138
-0.3646999999999999,-64.25618723986996
-0.3637,-63.6761556069253
-0.3626999999999999,-63.22344799096849
-0.3617,-62.68585769701977
-0.36070000000000013,-62.03509049908186
-0.3597,-61.327734849149344
-0.35870000000000013,-60.56379074722222
-0.3577,-59.87058221028835
-0.35670000000000013,-59.16322656035583
-0.3557,-58.427576684426015
-0.3547000000000001,-57.62119124350295
-0.3537,-56.74407023758662
-0.3527000000000001,-55.93768479666355
-0.3517,-55.18788780773508
-0.3507000000000001,-54.33906102781606
-0.3497,-53.405351569905136
-0.3487000000000001,-52.514083450990164
-0.3477,-51.665256671071134
-0.3467000000000001,-50.87301834314672
-0.3457,-50.052485789224995
-0.3447000000000001,-49.090482105316774
-0.3437,-48.114331308409895
-0.3427000000000001,-47.22306318949492
-0.3417,-46.4025306355732
-0.3407000000000001,-45.52540962965688
-0.3397,-44.73317130173246
-0.3387000000000001,-43.72872627882828
-0.3377,-42.837458159913304
-0.3367000000000001,-41.97448426699564
-0.3357,-41.196393052069865
-0.3347000000000001,-40.29097782015624
-0.3337,-39.39970970124127
-0.3327000000000001,-38.57917714731955
-0.3317,-37.716203254401876
-0.3307000000000001,-36.88152358748151
-0.3297,-35.91951990357328
-0.3287000000000001,-35.098987349651566
-0.3277,-34.32089613472579
-0.3267000000000001,-33.52865780680137
-0.3257,-32.7788608178729
-0.3247000000000001,-31.930034037953877
-0.3237,-31.067060145036205
-0.3227000000000001,-30.317263156107735
-0.3217,-29.652348845171172
-0.3207000000000001,-28.93084608224
-0.3197,-28.11031352831828
-0.3187000000000001,-27.303928087395207
-0.3177,-26.62486666345999
-0.3167000000000001,-25.959952352523427
-0.3157,-25.238449589592253
-0.3147000000000001,-24.545241052658387
-0.3137,-23.823738289727217
-0.3127000000000001,-23.144676865792
-0.3117,-22.578792345845983
-0.3107000000000001,-21.92802514790807
-0.3097,-21.22066949797555
-0.3087000000000001,-20.569902300037633
-0.3077,-19.947429328097016
-0.3067000000000001,-19.423986147146955
-0.30569999999999997,-18.858101627200938
-0.3047000000000001,-18.19318731626437
-0.30369999999999997,-17.570714344323754
-0.3027000000000001,-17.00482982437774
-0.30169999999999997,-16.495533756426326
-0.3007000000000001,-15.972090575476265
-0.29969999999999997,-15.37791182953295
-0.2987000000000001,-14.826174422585586
-0.29769999999999996,-14.331025467632822
-0.2967000000000001,-13.871244295176684
-0.29569999999999996,-13.398730721021762
-0.2947000000000001,-12.86679927227251
-0.29369999999999996,-12.363162049520556
-0.29270000000000007,-11.927430969162122
-0.29169999999999996,-11.522823537400724
-0.29070000000000007,-11.102654281340808
-0.28969999999999996,-10.624481861986427
-0.28870000000000007,-10.125088773134069
-0.28769999999999996,-9.745946144770238
-0.28670000000000007,-9.371047650306002
-0.28569999999999995,-9.004637423640958
-0.28470000000000006,-8.52787971558644
-0.28369999999999995,-8.09497805782774
-0.28270000000000006,-7.754032634560266
-0.28169999999999995,-7.4498697050892835
-0.28070000000000006,-7.106094859222079
-0.27969999999999995,-6.719878674358924
-0.27870000000000006,-6.333662489495769
-0.27769999999999995,-6.011108313126541
-0.27670000000000006,-5.746557300051779
-0.27569999999999995,-5.4423943705807964
-0.27470000000000006,-5.092960679514132
-0.27369999999999994,-4.750600544946793
-0.27270000000000005,-4.466243573673921
-0.27169999999999994,-4.234230920496055
-0.27070000000000005,-3.973924041320888
-0.26969999999999994,-3.658443421450985
-0.26870000000000005,-3.3486216467805416
-0.26769999999999994,-3.0883147676053753
-0.26670000000000005,-2.874693361325755
