Potential V vs RHE, Current mA cm-2
0.013299999999999867,8.983416754142983
0.012299999999999978,7.7186648520636405
0.011299999999999866,6.671778490163514
0.010299999999999976,5.798901618146785
0.009299999999999864,5.101448947313322
0.008299999999999974,4.272428125592412
0.007299999999999862,3.313253864283916
0.006299999999999972,2.352664891675556
0.00529999999999986,1.5250587812545096
0.0042999999999999705,0.8264743413811545
0.0032999999999998586,0.3031726315610774
0.0022999999999999687,-0.30755823659065895
0.0012999999999998568,-1.0054353208140816
0.00029999999999996696,-1.7910245056291363
-0.000700000000000145,-2.576189277054232
-0.0017000000000000348,-3.2297858975918787
-0.0027000000000001467,-3.7532290785419424
-0.0037000000000000366,-4.1889601589003735
-0.0047000000000001485,-4.712403339850438
-0.005700000000000038,-5.323558621392133
-0.00670000000000015,-6.064867342521412
-0.00770000000000004,-6.762320013354876
-0.008700000000000152,-7.28576319430494
-0.009700000000000042,-7.722908985963235
-0.010700000000000154,-8.070927965730034
-0.011700000000000044,-8.55051509638428
-0.012700000000000156,-9.161670377925978
-0.013700000000000045,-9.85912304875944
-0.014700000000000157,-10.470278330301136
-0.015700000000000047,-10.863568071663616
-0.01670000000000016,-11.211587051430415
-0.01770000000000005,-11.604876792792895
-0.01870000000000016,-12.12831997374296
-0.01970000000000005,-12.73806054398479
-0.020700000000000163,-13.349215825526485
-0.021700000000000053,-13.872659006476551
-0.022700000000000164,-14.175407224647667
-0.023700000000000054,-14.444202371622024
-0.024700000000000166,-14.783733083589633
-0.025700000000000056,-15.307176264539699
-0.026700000000000168,-15.972090575476265
-0.027700000000000058,-16.580416434418233
-0.02870000000000017,-17.018976937376394
-0.02970000000000006,-17.316066310348052
-0.03070000000000017,-17.627302796318357
-0.03170000000000006,-18.009274847281915
-0.03270000000000017,-18.53271802823198
-0.03370000000000006,-19.112749661176647
-0.034700000000000175,-19.636192842126707
-0.035700000000000065,-19.93328221509837
-0.03670000000000018,-20.244518701068674
-0.03770000000000007,-20.541608074040333
-0.03870000000000018,-21.022609915994444
-0.03970000000000007,-21.54605309694451
-0.04070000000000018,-22.15437895588647
-0.04170000000000007,-22.63538079784059
-0.04270000000000018,-23.031499961802798
-0.04370000000000007,-23.300295108777156
-0.044700000000000184,-23.639825820744765
-0.045700000000000074,-24.120827662698876
-0.046700000000000186,-24.64427084364894
-0.047700000000000076,-25.167714024599
-0.04870000000000019,-25.521391849565262
-0.04970000000000008,-25.77603988354097
-0.05070000000000019,-26.087276369511276
-0.05170000000000008,-26.525836872469437
-0.05270000000000019,-27.091721392415455
-0.05370000000000008,-27.742488590353368
-0.05470000000000019,-28.265931771303435
-0.05570000000000008,-28.662050935265643
-0.056700000000000195,-28.959140308237306
-0.057700000000000085,-29.31281813320356
-0.058700000000000196,-29.836261314153624
-0.059700000000000086,-30.444587173095588
-0.0607000000000002,-31.052913032037555
-0.06170000000000009,-31.533914873991666
-0.0627000000000002,-31.84515135996197
-0.06370000000000009,-32.09979939393769
-0.0647000000000002,-32.45347721890394
-0.06570000000000009,-32.892037721862096
-0.0667000000000002,-33.41548090281216
-0.0677000000000001,-33.89648274476628
-0.0687000000000002,-34.278454795729836
-0.0697000000000001,-34.58969128170015
-0.07070000000000021,-34.85848642867451
-0.0717000000000001,-35.198017140642115
-0.07270000000000021,-35.721460321592176
-0.0737000000000001,-36.329786180534136
-0.07470000000000021,-36.89567070048016
-0.0757000000000001,-37.334231203438314
-0.07670000000000021,-37.73035036740053
-0.0777000000000001,-38.08402819236679
-0.07870000000000021,-38.607471373316855
-0.0797000000000001,-39.21579723225882
-0.08070000000000022,-39.86656443019674
-0.0817000000000001,-40.43244895014274
-0.08270000000000022,-40.87100945310091
-0.08370000000000011,-41.139804600075266
-0.08470000000000022,-41.47933531204288
-0.08570000000000011,-41.96033715399699
-0.08670000000000022,-42.526221673943
-0.08770000000000011,-43.09210619388902
-0.08870000000000022,-43.48822535785123
-0.08970000000000011,-43.79946184382153
-0.09070000000000022,-44.011668538801295
-0.09170000000000011,-44.36534636376755
-0.09270000000000023,-45.01611356170547
-0.09370000000000012,-45.79420477663124
-0.09470000000000023,-46.37423640957591
-0.09570000000000012,-46.84109113853137
-0.09670000000000023,-47.10988628550572
-0.09770000000000012,-47.40697565847737
-0.09870000000000023,-47.8879775004315
-0.09970000000000012,-48.51045047237211
-0.10070000000000023,-49.16121767031002
-0.10170000000000012,-49.59977817326819
-0.10270000000000024,-49.939308885235796
-0.10370000000000013,-50.20810403221015
-0.10470000000000024,-50.64666453516831
-0.10570000000000013,-51.25499039411028
-0.10670000000000024,-51.948198931044146
-0.10770000000000013,-52.55652478998611
-0.10870000000000024,-52.995085292944275
-0.10970000000000013,-53.348763117910536
-0.11070000000000024,-53.64585249088219
-0.11170000000000013,-54.0419716548444
-0.11270000000000002,-54.60785617479041
-0.11370000000000013,-55.21618203373238
-0.11470000000000002,-55.6971838756865
-0.11570000000000014,-56.13574437864466
-0.11670000000000003,-56.489422203610914
-0.11770000000000014,-56.927982706569075
-0.11870000000000003,-57.53630856551105
-0.11970000000000014,-58.14463442445301
-0.12070000000000003,-58.75296028339497
-0.12170000000000014,-59.31884480334099
-0.12270000000000003,-59.757405306299155
-0.12370000000000014,-60.15352447026136
-0.12470000000000003,-60.59208497321952
-0.12570000000000014,-61.07308681517363
-0.12670000000000003,-61.6814126741156
-0.12770000000000015,-62.16241451606972
-0.12870000000000004,-62.544386567033264
-0.12970000000000015,-62.89806439199953
-0.13070000000000004,-63.06782974798333
-0.13170000000000015,-63.251742216965795
-0.13270000000000004,-63.732744058919906
-0.13370000000000015,-64.34106991786187
-0.13470000000000004,-64.82207175981598
-0.13570000000000015,-65.34551494076604
-0.13670000000000004,-65.76992833072556
-0.13770000000000016,-66.16604749468777
-0.13870000000000005,-66.73193201463377
-0.13970000000000016,-67.48172900356225
-0.14070000000000005,-68.21737887949207
-0.14170000000000016,-68.69838072144618
-0.14270000000000005,-68.96717586842054
-0.14370000000000016,-69.1793825634003
-0.14470000000000005,-69.4906190493706
-0.14570000000000016,-70.05650356931662
-0.14670000000000005,-70.66482942825859
-0.14770000000000016,-71.2307139482046
-0.14870000000000005,-71.6268331121668
-0.14970000000000017,-71.92392248513846
-0.15070000000000006,-72.23515897110877
-0.15170000000000017,-72.71616081306288
-0.15270000000000006,-73.3669280110008
-0.15370000000000017,-74.06013654793468
-0.15470000000000006,-74.58357972888473
-0.15570000000000017,-75.02214023184291
-0.15670000000000006,-75.37581805680915
-0.15770000000000017,-75.81437855976732
-0.15870000000000006,-76.29538040172143
-0.15970000000000018,-76.81882358267148
-0.16070000000000007,-77.38470810261751
-0.16170000000000018,-77.90815128356756
-0.16270000000000007,-78.24768199553519
-0.16370000000000018,-78.60135982050144
-0.16470000000000007,-78.91259630647174
-0.16570000000000018,-79.20968567944341
-0.16670000000000007,-79.90289421637728
-0.16770000000000018,-80.56780852731384
-0.16870000000000007,-81.09125170826391
-0.16970000000000018,-81.43078242023151
-0.17070000000000007,-81.47322375922747
-0.17170000000000019,-80.90733923928146
-0.17270000000000008,-80.25657204134353
-0.1737000000000002,-80.56780852731384
-0.17470000000000008,-80.99222191727335
-0.1757000000000002,-80.7800152222936
-0.17670000000000008,-81.38834108123557
-0.1777000000000002,-82.39278610413973
-0.17870000000000008,-83.70846761301424
-0.1797000000000002,-84.61388284492786
-0.18070000000000008,-85.36367983385631
-0.1817000000000002,-85.70321054582392
-0.18270000000000008,-85.92956435380233
-0.1837000000000002,-86.09932970978613
-0.1847000000000001,-86.36812485676049
-0.1857000000000002,-86.80668535971866
-0.1867000000000001,-87.33012854066871
-0.1877000000000002,-87.71210059163228
-0.1887000000000001,-88.10821975559449
-0.1897000000000002,-88.54678025855264
-0.1907000000000001,-89.11266477849867
-0.1917000000000001,-89.55122528145681
-0.19269999999999998,-90.07466846240689
-0.1937000000000001,-90.55567030436099
-0.19469999999999998,-91.03667214631511
-0.1957000000000001,-91.56011532726518
-0.19669999999999999,-91.85720470023682
-0.1977000000000001,-91.89964603923279
-0.1987,-90.99423080731917
-0.1997000000000001,-90.68299432134886
-0.2007,-91.29132018029082
-0.2017000000000001,-91.56011532726518
-0.2027,-91.81476336124088
-0.2037000000000001,-91.77232202224494
-0.2047,-91.24887884129487
-0.2057000000000001,-93.13044487011537
-0.2067,-94.95542244694126
-0.2077000000000001,-95.79010211386164
-0.2087,-96.35598663380765
-0.2097000000000001,-96.17207416482519
-0.2107,-95.91742613084948
-0.2117000000000001,-96.31354529481169
-0.2127,-96.61063466778336
-0.2137000000000001,-92.42308922018285
-0.2147,-91.64499800525708
-0.2157000000000001,-91.98452871722468
-0.2167,-92.29576520319499
-0.21770000000000012,-97.13407784873341
-0.2187,-98.6195247135917
-0.21970000000000012,-99.05808521654988
-0.2207,-99.31273325052557
-0.22170000000000012,-100.06253023945405
-0.2227,-100.58597342040412
-0.22370000000000012,-101.19429927934607
-0.2247,-101.63285978230424
-0.22570000000000012,-96.00230880884139
-0.2267,-96.52575198979144
-0.22770000000000012,-97.04919517074151
-0.22870000000000001,-97.44531433470372
-0.22970000000000013,-97.78484504667132
-0.23070000000000002,-97.96875751565379
-0.23170000000000013,-98.13852287163759
-0.23270000000000002,-99.35517458952152
-0.23370000000000013,-102.5524221272165
-0.23470000000000002,-104.46228238203432
-0.23570000000000013,-105.33940338795064
-0.23670000000000002,-105.69308121291688
-0.2376999999999999,-103.64174982811258
-0.23870000000000002,-100.06253023945405
-0.2396999999999999,-100.58597342040412
-0.24070000000000003,-101.27918195733798
-0.24169999999999991,-103.64174982811258
-0.24270000000000003,-104.85840154599651
-0.24369999999999992,-105.25452070995874
-0.24470000000000003,-105.94772924689259
-0.24569999999999992,-107.30585209476303
-0.24670000000000003,-108.3102971176672
-0.24769999999999992,-109.04594699359701
-0.24870000000000003,-110.26259871148096
-0.24969999999999992,-110.1352746944931
-0.25070000000000003,-110.05039201650122
-0.2516999999999999,-110.26259871148096
-0.25270000000000004,-110.6162765364472
-0.2536999999999999,-110.74360055343507
-0.25470000000000004,-105.86284656890071
-0.2556999999999999,-105.07060824097626
-0.25670000000000004,-105.50916874393444
-0.25769999999999993,-104.85840154599651
-0.25870000000000004,-104.5471650600262
-0.25969999999999993,-104.3773997040424
-0.26070000000000004,-104.73107752900866
-0.26169999999999993,-104.85840154599651
-0.26270000000000004,-104.90084288499246
-0.26369999999999993,-104.90084288499246
-0.26470000000000005,-106.82485025280893
-0.26569999999999994,-109.52694883555114
-0.26670000000000005,-111.3094850733811
-0.26769999999999994,-112.75249059924342
-0.26870000000000005,-113.67205294415571
-0.26969999999999994,-114.05402499511925
-0.27070000000000005,-114.0115836561233
-0.27169999999999994,-113.58717026616378
-0.27270000000000005,-113.27593378019348
-0.27369999999999994,-113.67205294415571
-0.27470000000000006,-113.96914231712736
-0.27569999999999995,-112.79493193823936
-0.27670000000000006,-106.68337912282242
-0.27769999999999995,-106.68337912282242
-0.27870000000000006,-109.00350565460108
-0.27969999999999995,-113.00713863321914
-0.28070000000000006,-114.76138064505177
-0.28169999999999995,-115.10091135701937
-0.28270000000000006,-115.5819131989735
-0.28369999999999995,-114.93114600103557
-0.28470000000000006,-109.9655093385093
-0.28569999999999995,-108.1688259876807
-0.28670000000000007,-108.56494515164292
-0.28769999999999996,-108.87618163761321
-0.28870000000000007,-108.96106431560513
-0.28969999999999996,-108.83374029861727
-0.29070000000000007,-108.60738649063886
-0.29169999999999996,-108.56494515164292
-0.29270000000000007,-112.79493193823936
-0.29369999999999996,-115.80826700695191
-0.2947000000000001,-117.3785965498021
-0.29569999999999996,-117.63324458377778
-0.2967000000000001,-117.67568592277377
-0.29769999999999996,-117.71812726176971
-0.2987000000000001,-116.24682750991008
-0.29969999999999997,-110.05039201650122
-0.3007000000000001,-109.8240382085228
-0.30169999999999997,-113.40325779718134
-0.3027000000000001,-108.43762113465506
-0.30369999999999997,-99.45420438051207
-0.3047000000000001,-98.74684873057957
-0.30569999999999997,-101.27918195733798
-0.3067000000000001,-102.45339233622596
-0.3077,-102.89195283918411
-0.3087000000000001,-102.97683551717601
-0.3097,-102.97683551717601
-0.3107000000000001,-102.89195283918411
-0.3117,-102.97683551717601
-0.3127000000000001,-103.24563066415038
-0.3137,-103.50027869812607
-0.3147000000000001,-103.68419116710854
-0.3157,-103.81151518409638
-0.3167000000000001,-103.7266325061045
-0.3177,-103.07586530816658
-0.3187000000000001,-102.76462882219626
-0.3197,-101.19429927934607
-0.3207000000000001,-102.24118564124619
-0.3217,-103.11830664716253
-0.3227000000000001,-103.64174982811258
-0.3237,-103.7266325061045
-0.3247000000000001,-103.68419116710854
-0.3257,-103.76907384510045
-0.3267000000000001,-103.98128054008019
-0.3277,-104.16519300906265
-0.3287000000000001,-104.25007568705455
-0.3297,-104.25007568705455
-0.3307000000000001,-102.45339233622596
-0.3317,-101.15185794035013
-0.3327000000000001,-103.20318932515443
-0.3337,-103.89639786208829
-0.3347000000000001,-104.25007568705455
-0.3357,-104.25007568705455
-0.3367000000000001,-103.93883920108425
-0.3377,-103.45783735913014
-0.3387000000000001,-100.98209258436633
-0.3397,-100.98209258436633
-0.3407000000000001,-100.75573877638791
-0.3417,-100.88306279337576
-0.3427000000000001,-101.40650597432582
-0.3437,-101.27918195733798
-0.3447000000000001,-101.15185794035013
-0.3457,-101.23674061834203
-0.3467000000000001,-101.44894731332178
-0.3477,-101.71774246029614
-0.3487000000000001,-101.71774246029614
-0.3497,-101.71774246029614
-0.3507000000000001,-101.80262513828804
-0.3517,-102.02897894626645
-0.3527000000000001,-102.3260683192381
-0.3537,-102.72218748320032
-0.3547000000000001,-102.72218748320032
-0.3557,-102.89195283918411
-0.35670000000000013,-102.80707016119221
-0.3577,-102.59486346621246
-0.35870000000000013,-104.16519300906265
-0.3597,-102.5524221272165
-0.36070000000000013,-102.45339233622596
-0.3617,-102.67974614420436
-0.3626999999999999,-102.45339233622596
-0.3637,-102.1563029632543
-0.3646999999999999,-101.92994915527588
-0.3657,-103.28807200314633
-0.3666999999999999,-105.29696204895468
-0.3677,-105.7779638909088
-0.3686999999999999,-106.64093778382647
-0.36970000000000003,-106.82485025280893
-0.3706999999999999,-106.90973293080083
-0.37170000000000003,-106.55605510583456
-0.3726999999999999,-103.54272003712204
-0.37370000000000003,-102.97683551717601
-0.3746999999999999,-102.80707016119221
-0.37570000000000003,-102.72218748320032
-0.3766999999999999,-102.67974614420436
-0.37770000000000004,-102.63730480520842
-0.3786999999999999,-102.63730480520842
-0.37970000000000004,-102.5524221272165
-0.3806999999999999,-102.36850965823406
-0.38170000000000004,-104.94328422398843
-0.38269999999999993,-106.11749460287639
-0.38370000000000004,-105.90528790789664
-0.38469999999999993,-105.69308121291688
-0.38570000000000004,-105.73552255191284
-0.38669999999999993,-105.82040522990474
-0.38770000000000004,-105.82040522990474
-0.38869999999999993,-105.94772924689259
-0.38970000000000005,-105.82040522990474
-0.39069999999999994,-105.7779638909088
-0.39170000000000005,-105.69308121291688
-0.39269999999999994,-105.86284656890071
-0.39370000000000005,-105.90528790789664
-0.39469999999999994,-106.07505326388046
-0.39570000000000005,-106.34384841085482
-0.39669999999999994,-106.4287310888467
-0.39770000000000005,-106.34384841085482
-0.39869999999999994,-106.21652439386696
-0.39970000000000006,-106.07505326388046
-0.40069999999999995,-105.5516100829304
-0.40170000000000006,-105.63649276092228
-0.40269999999999995,-105.90528790789664
-0.40370000000000006,-105.99017058588855
-0.40469999999999995,-106.21652439386696
-0.40570000000000006,-106.38628974985076
-0.40669999999999995,-106.73996757481702
-0.40770000000000006,-106.86729159180487
-0.40869999999999995,-107.03705694778867
-0.40970000000000006,-107.03705694778867
-0.41069999999999995,-106.95217426979677
-0.41170000000000007,-106.95217426979677
-0.41269999999999996,-107.07949828678463
-0.41370000000000007,-107.30585209476303
-0.41469999999999996,-107.4331761117509
-0.41570000000000007,-107.47561745074682
-0.41669999999999996,-107.4331761117509
-0.41770000000000007,-107.39073477275493
-0.41869999999999996,-107.39073477275493
-0.4197000000000001,-107.64538280673065
-0.42069999999999996,-108.0839433096888
-0.4217000000000001,-108.2537086656726
-0.42269999999999996,-108.52250381264696
-0.4237000000000001,-108.43762113465506
-0.42469999999999997,-108.3102971176672
-0.4257000000000001,-108.39517979565912
-0.42669999999999997,-107.914177953705
-0.4277000000000001,-108.21126732667666
-0.42869999999999997,-108.3102971176672
-0.4297000000000001,-108.21126732667666
-0.43069999999999997,-107.78685393671715
-0.4317000000000001,-107.73026548472255
-0.4327,-107.99906063169689
-0.4337000000000001,-108.35273845666316
-0.4347,-108.60738649063886
-0.4357000000000001,-108.60738649063886
-0.4367,-107.47561745074682
-0.4377000000000001,-107.16438096477653
-0.4387,-105.99017058588855
-0.4397000000000001,-104.5471650600262
-0.4407,-105.16963803196683
-0.4417000000000001,-105.38184472694657
-0.4427,-105.42428606594254
-0.4437000000000001,-105.29696204895468
-0.4447,-105.59405142192634
-0.4457000000000001,-105.94772924689259
-0.4467,-106.2589657328629
-0.4477000000000001,-106.95217426979677
-0.4487,-107.68782414572658
-0.4497000000000001,-107.8292952757131
-0.4507,-107.78685393671715
-0.4517000000000001,-107.56050012873874
-0.4527,-107.73026548472255
-0.4537000000000001,-108.3102971176672
-0.4547,-108.73471050762672
-0.4557000000000001,-109.04594699359701
-0.4567,-109.08838833259297
-0.4577000000000001,-109.21571234958083
-0.4587,-109.39962481856328
-0.4597000000000001,-109.9655093385093
-0.4607,-110.70115921443913
-0.4617000000000001,-110.3050400504769
-0.4627,-110.00795067750525
-0.4637000000000001,-110.22015737248502
-0.4647,-110.87092457042293
-0.4657000000000001,-110.3050400504769
-0.4667,-110.53139385845533
-0.4677000000000001,-110.92751302241753
-0.4687,-111.09727837840134
-0.4697000000000001,-111.22460239538917
-0.4707,-110.92751302241753
-0.4717000000000001,-111.05483703940537
-0.4727,-111.35192641237703
-0.4737000000000001,-112.18660607929739
-0.4747,-112.79493193823936
-0.4757000000000001,-112.87981461623129
-0.4767,-112.87981461623129
-0.4777000000000001,-113.14860976320564
-0.4787,-113.62961160515974
-0.4797000000000001,-114.45014415908147
-0.4807,-114.93114600103557
-0.48170000000000013,-114.84626332304367
-0.4827,-114.93114600103557
-0.48370000000000013,-115.05847001802343
-0.4847,-115.28482382600184
-0.48570000000000013,-115.72338432896
-0.4867,-115.4121478429897
-0.48570000000000013,-113.71449428315165
-0.4847,-111.8753695933271
-0.48370000000000013,-110.09283335549715
-0.4827,-108.21126732667666
-0.48170000000000013,-106.73996757481702
-0.4807,-105.46672740493848
-0.4797000000000001,-104.2925170260505
-0.4787,-103.28807200314633
-0.4777000000000001,-102.36850965823406
-0.4767,-101.50553576531638
-0.4757000000000001,-100.45864940341626
-0.4747,-99.45420438051207
-0.4737000000000001,-98.66196605258766
-0.4727,-97.92631617665783
-0.4717000000000001,-96.96431249274961
-0.4707,-95.60618964487918
-0.4697000000000001,-94.17733123201549
-0.4687,-93.17288620911131
-0.4677000000000001,-92.25332386419905
-0.4667,-91.56011532726518
