Potential V vs RHE, Current mA cm-2
0.013299999999999867,8.677839113372134
0.012299999999999978,7.630952751472008
0.011299999999999866,6.671778490163514
0.010299999999999976,5.8427576684426015
0.009299999999999864,5.057592897017507
0.008299999999999974,4.184716025000778
0.007299999999999862,3.313253864283916
0.006299999999999972,2.4403769922671885
0.00529999999999986,1.5675001202504606
0.0042999999999999705,0.7393281253094681
0.0032999999999998586,-0.002205534916489592
0.0022999999999999687,-0.6128529351015338
0.0012999999999998568,-1.2671569112891135
0.00029999999999996696,-1.8334658446250875
-0.000700000000000145,-2.4007650758709675
-0.0017000000000000348,-3.0996324580042955
-0.0027000000000001467,-3.7970851288377587
-0.0037000000000000366,-4.538393849967037
-0.0047000000000001485,-5.235846520800501
-0.005700000000000038,-5.890857852638012
-0.00670000000000015,-6.500598422879844
-0.00770000000000004,-7.067897654125724
-0.008700000000000152,-7.591340835075788
-0.009700000000000042,-8.070927965730034
-0.010700000000000154,-8.594371146680096
-0.011700000000000044,-9.161670377925978
-0.012700000000000156,-9.728969609171857
-0.013700000000000045,-10.382566229709504
-0.014700000000000157,-11.037577561547016
-0.015700000000000047,-11.647318131788847
-0.01670000000000016,-12.214617363034726
-0.01770000000000005,-12.694204493688973
-0.01870000000000016,-13.261503724934855
-0.01970000000000005,-13.567081365705702
-0.020700000000000163,-14.046668496359947
-0.021700000000000053,-14.57152638860988
-0.022700000000000164,-15.137410908555893
-0.023700000000000054,-15.70329542850191
-0.024700000000000166,-16.311621287443874
-0.025700000000000056,-16.962388485381787
-0.026700000000000168,-17.48583166633185
-0.027700000000000058,-17.924392169290012
-0.02870000000000017,-18.320511333252224
-0.02970000000000006,-18.716630497214435
-0.03070000000000017,-19.112749661176647
-0.03170000000000006,-19.636192842126707
-0.03270000000000017,-20.159636023076775
-0.03370000000000006,-20.76796188201874
-0.034700000000000175,-21.248963723972853
-0.035700000000000065,-21.67337711393236
-0.03670000000000018,-22.15437895588647
-0.03770000000000007,-22.592939458844636
-0.03870000000000018,-22.989058622806844
-0.03970000000000007,-23.342736447773106
-0.04070000000000018,-23.724708498736668
-0.04170000000000007,-24.20571034069078
-0.04270000000000018,-24.997948668615198
-0.04370000000000007,-25.521391849565262
-0.044700000000000184,-26.129717708507226
-0.045700000000000074,-26.65316088945729
-0.046700000000000186,-27.091721392415455
-0.047700000000000076,-27.487840556377662
-0.04870000000000019,-27.869812607341224
-0.04970000000000008,-28.22349043230748
-0.05070000000000019,-28.53472691827779
-0.05170000000000008,-28.746933613257543
-0.05270000000000019,-29.31281813320356
-0.05370000000000008,-29.878702653149578
-0.05470000000000019,-30.487028512091538
-0.05570000000000008,-31.010471693041605
-0.056700000000000195,-31.449032195999767
-0.057700000000000085,-31.84515135996197
-0.058700000000000196,-32.24127052392419
-0.059700000000000086,-32.58080123589179
-0.0607000000000002,-32.97692039985401
-0.06170000000000009,-33.45792224180811
-0.0627000000000002,-34.02380676175414
-0.06370000000000009,-34.5472499427042
-0.0647000000000002,-35.11313446265021
-0.06570000000000009,-35.636577643600276
-0.0667000000000002,-36.07513814655844
-0.0677000000000001,-36.47125731052064
-0.0687000000000002,-36.89567070048016
-0.0697000000000001,-37.206907186450465
-0.07070000000000021,-37.645467689408626
-0.0717000000000001,-38.12646953136274
-0.07270000000000021,-38.6499127123128
-0.0737000000000001,-39.173355893262865
-0.07470000000000021,-39.78168175220483
-0.0757000000000001,-40.30512493315489
-0.07670000000000021,-40.78612677510901
-0.0777000000000001,-41.22468727806717
-0.07870000000000021,-41.66324778102533
-0.0797000000000001,-42.04521983198889
-0.08070000000000022,-42.483780334947056
-0.0817000000000001,-42.96478217690117
-0.08270000000000022,-43.53066669684718
-0.08370000000000011,-44.096551216793195
-0.08470000000000022,-44.704877075735155
-0.08570000000000011,-45.27076159568118
-0.08670000000000022,-45.85079322862584
-0.08770000000000011,-46.3176479575813
-0.08870000000000022,-46.713767121543505
-0.08970000000000011,-47.10988628550572
-0.09070000000000022,-47.54844678846388
-0.09170000000000011,-48.029448630417996
-0.09270000000000023,-48.55289181136806
-0.09370000000000012,-49.118776331314066
-0.09470000000000023,-49.72710219025603
-0.09570000000000012,-50.29298671020206
-0.09670000000000023,-50.77398855215617
-0.09770000000000012,-51.21254905511432
-0.09870000000000023,-51.594521106077885
-0.09970000000000012,-51.990640270040096
-0.10070000000000023,-52.386759434002315
-0.10170000000000012,-52.86776127595642
-0.10270000000000024,-53.39120445690648
-0.10370000000000013,-53.91464763785655
-0.10470000000000024,-54.52297349679851
-0.10570000000000013,-55.003975338752625
-0.10670000000000024,-55.484977180706736
-0.10770000000000013,-55.881096344668954
-0.10870000000000024,-56.22062705663656
-0.10970000000000013,-56.70162889859067
-0.11070000000000024,-56.97042404556503
-0.11170000000000013,-57.352396096528594
-0.11270000000000002,-57.93242772947325
-0.11370000000000013,-58.66807760540307
-0.11470000000000002,-59.36128614233694
-0.11570000000000014,-59.9696120012789
-0.11670000000000003,-60.49305518222897
-0.11770000000000014,-60.974057024183075
-0.11870000000000003,-61.455058866137186
-0.11970000000000014,-61.851178030099405
-0.12070000000000003,-62.33217987205352
-0.12170000000000014,-62.89806439199953
-0.12270000000000003,-63.5063902509415
-0.12370000000000014,-64.11471610988345
-0.12470000000000003,-64.72304196882543
-0.12570000000000014,-65.34551494076604
-0.12670000000000003,-65.86895812171612
-0.12770000000000015,-66.29337151167562
-0.12870000000000004,-66.77437335362974
-0.12970000000000015,-67.17049251759194
-0.13070000000000004,-67.65149435954605
-0.13170000000000015,-68.13249620150016
-0.13270000000000004,-68.65593938245023
-0.13370000000000015,-69.13694122440434
-0.13470000000000004,-69.74526708334632
-0.13570000000000015,-70.22626892530042
-0.13670000000000004,-70.74971210625048
-0.13770000000000016,-71.18827260920865
-0.13870000000000005,-71.7117157901587
-0.13970000000000016,-72.15027629311687
-0.14070000000000005,-72.63127813507097
-0.14170000000000016,-73.0556915250305
-0.14270000000000005,-73.62157604497652
-0.14370000000000016,-73.97525386994278
-0.14470000000000005,-74.62602106788069
-0.14570000000000016,-75.29093537881725
-0.14670000000000005,-75.81437855976732
-0.14770000000000016,-76.29538040172143
-0.14870000000000005,-76.7622351306769
-0.14970000000000017,-77.03103027765125
-0.15070000000000006,-77.38470810261751
-0.15170000000000017,-77.7242388145851
-0.15270000000000006,-78.29012333453113
-0.15370000000000017,-78.91259630647174
-0.15470000000000006,-79.60580484340561
-0.15570000000000017,-80.34145471933543
-0.15670000000000006,-80.90733923928146
-0.15770000000000017,-81.43078242023151
-0.15870000000000006,-81.86934292318966
-0.15970000000000018,-82.30790342614785
-0.16070000000000007,-82.78890526810196
-0.16170000000000018,-83.39723112704392
-0.16270000000000007,-84.09043966397778
-0.16370000000000018,-84.7977953139103
-0.16470000000000007,-85.49100385084417
-0.16570000000000018,-85.97200569279828
-0.16670000000000007,-86.32568351776455
-0.16770000000000018,-86.7076555687281
-0.16870000000000007,-86.97645071570246
-0.16970000000000018,-87.23109874967815
-0.17070000000000007,-87.54233523564847
-0.17170000000000019,-87.98089573860662
-0.17270000000000008,-88.4194562415648
-0.1737000000000002,-88.94289942251486
-0.17470000000000008,-89.36731281247435
-0.1757000000000002,-89.76343197643658
-0.17670000000000008,-90.28687515738663
-0.1777000000000002,-90.68299432134886
-0.17870000000000008,-91.16399616330297
-0.1797000000000002,-91.60255666626112
-0.18070000000000008,-92.33820654219093
-0.1817000000000002,-92.98897374012887
-0.18270000000000008,-93.65388805106544
-0.1837000000000002,-94.30465524900335
-0.1847000000000001,-94.91298110794531
-0.1857000000000002,-95.56374830588322
-0.1867000000000001,-96.0871914868333
-0.1877000000000002,-96.65307600677932
-0.1887000000000001,-97.21896052672531
-0.1897000000000002,-97.61507969068752
-0.1907000000000001,-98.18096421063355
-0.1917000000000001,-98.6195247135917
-0.19269999999999998,-99.01564387755391
-0.1937000000000001,-99.49664571950804
-0.19469999999999998,-100.02008890045809
-0.1957000000000001,-100.54353208140815
-0.19669999999999999,-100.98209258436633
-0.1977000000000001,-101.3640646353299
-0.1987,-101.71774246029614
-0.1997000000000001,-101.97239049427183
-0.2007,-102.19874430225026
-0.2017000000000001,-102.4958336752219
-0.2027,-102.93439417818009
-0.2037000000000001,-103.37295468113824
-0.2047,-103.98128054008019
-0.2057000000000001,-104.50472372103027
-0.2067,-104.98572556298437
-0.2077000000000001,-105.42428606594254
-0.2087,-105.7779638909088
-0.2097000000000001,-105.99017058588855
-0.2107,-106.4287310888467
-0.2117000000000001,-106.99461560879273
-0.2127,-107.6029414677347
-0.2137000000000001,-108.3102971176672
-0.2147,-109.00350565460108
-0.2157000000000001,-109.4845074965552
-0.2167,-109.8240382085228
-0.21770000000000012,-109.13082967158894
-0.2187,-109.44206615755924
-0.21970000000000012,-109.73915553053091
-0.2207,-110.05039201650122
-0.22170000000000012,-110.53139385845533
-0.2227,-111.01239570040943
-0.22370000000000012,-111.22460239538917
-0.2247,-110.65871787544317
-0.22570000000000012,-110.26259871148096
-0.2267,-110.70115921443913
-0.22770000000000012,-111.09727837840134
-0.22870000000000001,-111.49339754236355
-0.22970000000000013,-111.7056042373433
-0.23070000000000002,-112.10172340130552
-0.23170000000000013,-112.54028390426367
-0.23270000000000002,-112.96469729422319
-0.23370000000000013,-113.44569913617728
-0.23470000000000002,-114.0115836561233
-0.23570000000000013,-114.36526148108955
-0.23670000000000002,-114.76138064505177
-0.2376999999999999,-115.01602867902749
-0.23870000000000002,-115.28482382600184
-0.2396999999999999,-115.5819131989735
-0.24070000000000003,-115.8931496849438
-0.24169999999999991,-116.20438617091412
-0.24270000000000003,-116.67124089986959
-0.24369999999999992,-117.15224274182368
-0.24470000000000003,-117.63324458377778
-0.24569999999999992,-118.02936374774
-0.24670000000000003,-118.42548291170223
-0.24769999999999992,-118.68013094567793
-0.24870000000000003,-118.82160207566443
-0.24969999999999992,-118.99136743164823
-0.25070000000000003,-119.24601546562396
-0.2516999999999999,-119.68457596858211
-0.25270000000000004,-120.08069513254432
-0.2536999999999999,-120.56169697449842
-0.25470000000000004,-121.04269881645253
-0.2556999999999999,-121.43881798041474
-0.25670000000000004,-121.60858333639854
-0.25769999999999993,-121.73590735338641
-0.25870000000000004,-121.96226116136481
-0.25969999999999993,-122.34423321232836
-0.26070000000000004,-122.69791103729463
-0.26169999999999993,-123.05158886226087
-0.26270000000000004,-123.39111957422851
-0.26369999999999993,-123.82968007718667
-0.26470000000000005,-124.26824058014482
-0.26569999999999994,-124.62191840511109
-0.26670000000000005,-124.9614491170787
-0.26769999999999994,-125.272685603049
-0.26870000000000005,-125.7536874450031
-0.26969999999999994,-126.09321815697072
-0.27070000000000005,-126.9278978238911
-0.27169999999999994,-127.4088996658452
-0.27270000000000005,-127.84746016880335
-0.27369999999999994,-128.5831100447332
-0.27470000000000006,-129.19143590367514
-0.27569999999999995,-130.59200009054155
-0.27670000000000006,-131.24276728847948
-0.27769999999999995,-122.74035237629057
-0.27870000000000006,-119.38748659561045
-0.27969999999999995,-119.55725195159425
-0.28070000000000006,-119.72701730757805
-0.28169999999999995,-119.95337111555646
-0.28270000000000006,-120.12313647154028
-0.28369999999999995,-120.33534316652002
-0.28470000000000006,-128.54066870573723
-0.28569999999999995,-130.02611557059552
-0.28670000000000007,-131.32764996647134
-0.28769999999999996,-131.99256427740792
-0.28870000000000007,-132.41697766736743
-0.28969999999999996,-132.6857728143418
-0.29070000000000007,-132.9404208483175
-0.29169999999999996,-133.3365400122797
-0.29270000000000007,-129.27631858166706
-0.29369999999999996,-123.87212141618261
-0.2947000000000001,-124.18335790215292
-0.29569999999999996,-124.57947706611512
-0.2967000000000001,-124.9614491170787
-0.29769999999999996,-125.40000962003687
-0.2987000000000001,-125.79612878399907
-0.29969999999999997,-121.65102467539451
-0.3007000000000001,-122.30179187333242
-0.30169999999999997,-122.38667455132433
-0.3027000000000001,-122.42911589032028
-0.30369999999999997,-121.96226116136481
-0.3047000000000001,-122.1320265173486
-0.30569999999999997,-126.88545648489513
-0.3067000000000001,-132.47356611936203
-0.3077,-133.1667746562959
-0.3087000000000001,-133.60533515925405
-0.3097,-133.64777649825
-0.3107000000000001,-133.4214226902716
-0.3117,-126.88545648489513
-0.3127000000000001,-123.82968007718667
-0.3137,-125.40000962003687
-0.3147000000000001,-124.39556459713268
-0.3157,-124.62191840511109
-0.3167000000000001,-125.10292024706521
-0.3177,-125.31512694204494
-0.3187000000000001,-125.62636342801528
-0.3197,-125.88101146199097
-0.3207000000000001,-126.14980660896532
-0.3217,-126.3195719649491
-0.3227000000000001,-126.57421999892482
-0.3237,-126.75813246790726
-0.3247000000000001,-127.09766317987489
-0.3257,-127.32401698785328
-0.3267000000000001,-127.4937823438371
-0.3277,-127.72013615181551
-0.3287000000000001,-127.80501882980741
-0.3297,-127.76257749081147
-0.3307000000000001,-127.57866502182902
-0.3317,-127.62110636082497
-0.3327000000000001,-127.76257749081147
-0.3337,-127.97478418579122
-0.3347000000000001,-128.2294322197669
-0.3357,-128.54066870573723
-0.3367000000000001,-128.71043406172103
-0.3377,-128.9792292086954
-0.3387000000000001,-129.10655322568326
-0.3397,-129.33290703366166
-0.3407000000000001,-129.4602310506495
-0.3417,-129.75732042362114
-0.3427000000000001,-129.9412328926036
-0.3437,-130.32320494356716
-0.3447000000000001,-130.67688276853346
-0.3457,-131.07300193249566
-0.3467000000000001,-131.24276728847948
-0.3477,-131.5115624354538
-0.3487000000000001,-131.55400377444977
-0.3497,-131.72376913043357
-0.3507000000000001,-131.8510931474214
-0.3517,-132.07744695539984
-0.3527000000000001,-132.33209498937555
-0.3537,-132.72821415333775
-0.3547000000000001,-133.08189197830401
-0.3557,-133.37898135127566
-0.35670000000000013,-133.5628938202581
-0.3577,-133.73265917624192
-0.35870000000000013,-133.73265917624192
-0.3597,-133.73265917624192
-0.36070000000000013,-133.73265917624192
-0.3617,-133.81754185423384
-0.3626999999999999,-133.9873072102176
-0.3637,-134.34098503518388
-0.3646999999999999,-134.46830905217172
-0.3657,-134.77954553814206
-0.3666999999999999,-134.82198687713802
-0.3677,-134.9917522331218
-0.3686999999999999,-134.9068695551299
-0.36970000000000003,-134.82198687713802
-0.3706999999999999,-134.9917522331218
-0.37170000000000003,-135.1332233631083
-0.3726999999999999,-135.47275407507593
-0.37370000000000003,-135.74154922205025
-0.3746999999999999,-136.08107993401788
-0.37570000000000003,-136.30743374199628
-0.3766999999999999,-136.562081775972
-0.37770000000000004,-136.74599424495443
-0.3786999999999999,-136.95820093993422
-0.37970000000000004,-137.08552495692206
-0.3806999999999999,-137.2694374259045
-0.38170000000000004,-137.43920278188833
-0.38269999999999993,-137.70799792886265
-0.38370000000000004,-137.92020462384244
-0.38469999999999993,-138.00508730183432
-0.38570000000000004,-138.13241131882216
-0.38669999999999993,-138.04752864083028
-0.38770000000000004,-138.13241131882216
-0.38869999999999993,-138.08996997982624
-0.38970000000000005,-138.13241131882216
-0.39069999999999994,-138.13241131882216
-0.39170000000000005,-138.27388244880868
-0.39269999999999994,-138.52853048278442
-0.39370000000000005,-138.8397669687547
-0.39469999999999994,-139.13685634172634
-0.39570000000000005,-139.44809282769666
-0.39669999999999994,-139.61785818368048
-0.39770000000000005,-139.74518220066832
-0.39869999999999994,-139.74518220066832
-0.39970000000000006,-139.6602995226764
-0.40069999999999995,-139.61785818368048
-0.40170000000000006,-139.70274086167237
-0.40269999999999995,-139.74518220066832
-0.40370000000000006,-139.9290946696508
-0.40469999999999995,-139.9290946696508
-0.40570000000000006,-140.14130136463055
-0.40669999999999995,-140.18374270362645
-0.40770000000000006,-140.36765517260895
-0.40869999999999995,-140.45253785060083
-0.40970000000000006,-140.45253785060083
-0.41069999999999995,-140.45253785060083
-0.41170000000000007,-140.70718588457655
-0.41269999999999996,-140.93353969255494
-0.41370000000000007,-141.14574638753473
-0.41469999999999996,-141.41454153450906
-0.41570000000000007,-141.47112998650366
-0.41669999999999996,-141.75407224647665
-0.41770000000000007,-141.75407224647665
-0.41869999999999996,-141.89554337646317
-0.4197000000000001,-141.61260111649017
-0.42069999999999996,-141.47112998650366
-0.4217000000000001,-141.456982873505
-0.42269999999999996,-141.61260111649017
-0.4237000000000001,-141.61260111649017
-0.42469999999999997,-141.75407224647665
-0.4257000000000001,-141.89554337646317
-0.42669999999999997,-141.89554337646317
-0.4277000000000001,-142.03701450644968
-0.42869999999999997,-142.03701450644968
-0.4297000000000001,-142.03701450644968
-0.43069999999999997,-142.03701450644968
-0.4317000000000001,-142.17848563643616
-0.4327,-142.4614278964092
-0.4337000000000001,-142.7443701563822
-0.4347,-143.3102546763282
-0.4357000000000001,-143.5931969363012
-0.4367,-143.87613919627424
-0.4377000000000001,-144.01761032626072
-0.4387,-144.01761032626072
-0.4397000000000001,-143.73466806628772
-0.4407,-143.73466806628772
-0.4417000000000001,-143.73466806628772
-0.4427,-143.87613919627424
-0.4437000000000001,-143.87613919627424
-0.4447,-144.01761032626072
-0.4457000000000001,-144.30055258623375
-0.4467,-144.30055258623375
-0.4477000000000001,-144.30055258623375
-0.4487,-144.30055258623375
-0.4497000000000001,-144.44202371622026
-0.4507,-144.44202371622026
-0.4517000000000001,-144.58349484620675
-0.4527,-144.72496597619326
-0.4537000000000001,-144.86643710617977
-0.4547,-145.00790823616626
-0.4557000000000001,-145.14937936615277
-0.4567,-145.00790823616626
-0.4577000000000001,-145.00790823616626
-0.4587,-144.86643710617977
-0.4597000000000001,-144.58349484620675
-0.4607,-144.72496597619326
-0.4617000000000001,-144.72496597619326
-0.4627,-145.00790823616626
-0.4637000000000001,-145.29085049613926
-0.4647,-145.57379275611228
-0.4657000000000001,-145.7152638860988
-0.4667,-145.85673501608528
-0.4677000000000001,-145.85673501608528
-0.4687,-145.9982061460718
-0.4697000000000001,-145.9982061460718
-0.4707,-146.1396772760583
-0.4717000000000001,-146.4226195360313
-0.4727,-146.5640906660178
-0.4737000000000001,-146.7055617960043
-0.4747,-146.8470329259908
-0.4757000000000001,-147.1299751859638
-0.4767,-147.55438857592333
-0.4777000000000001,-147.83733083589632
-0.4787,-148.12027309586935
-0.4797000000000001,-148.12027309586935
-0.4807,-148.54468648582886
-0.48170000000000013,-148.54468648582886
-0.4827,-148.96909987578834
-0.48370000000000013,-149.1105710057749
-0.4847,-149.53498439573437
-0.48570000000000013,-149.53498439573437
-0.4867,-148.82762874580186
-0.48570000000000013,-146.5640906660178
-0.4847,-144.44202371622026
-0.48370000000000013,-142.31995676642268
-0.4827,-140.4949791895968
-0.48170000000000013,-138.6982958387682
-0.4807,-137.04308361792607
-0.4797000000000001,-135.387871397084
-0.4787,-133.94486587122168
-0.4777000000000001,-132.516007458358
-0.4767,-131.03056059349967
-0.4757000000000001,-129.5451137286414
-0.4747,-128.18699088077096
-0.4737000000000001,-126.71569112891132
-0.4727,-125.40000962003687
-0.4717000000000001,-123.99944543317046
-0.4707,-122.74035237629057
-0.4697000000000001,-121.52370065840667
-0.4687,-120.39193161851462
-0.4677000000000001,-119.1186914486361
-0.4667,-117.81715705276027
