Potential V vs RHE, Current mA cm-2
0.013299999999999867,1.3063444142953748
0.012299999999999978,-0.6564260431373771
0.011299999999999866,-2.226755585987568
0.010299999999999976,-3.579219588658543
0.009299999999999864,-5.017980980621284
0.008299999999999974,-6.458157083883892
0.007299999999999862,-7.853062425550818
0.006299999999999972,-8.899948787450944
0.00529999999999986,-9.81668170976349
0.0042999999999999705,-10.906009410659568
0.0032999999999998586,-12.040607873151327
0.0022999999999999687,-13.087494235051453
0.0012999999999998568,-13.872659006476551
0.00029999999999996696,-14.529085049613924
-0.000700000000000145,-15.307176264539699
-0.0017000000000000348,-16.22673860945197
-0.0027000000000001467,-17.061418276372343
-0.0037000000000000366,-17.627302796318357
-0.0047000000000001485,-18.10830463827247
-0.005700000000000038,-18.759071836210385
-0.00670000000000015,-19.49472171214021
-0.00770000000000004,-20.202077362072725
-0.008700000000000152,-20.584049413036283
-0.009700000000000042,-20.89528589900659
-0.010700000000000154,-21.376287740960702
-0.011700000000000044,-22.027054938898623
-0.012700000000000156,-22.63538079784059
-0.013700000000000045,-22.946617283810895
-0.014700000000000157,-23.2012653177866
-0.015700000000000047,-23.597384481748815
-0.01670000000000016,-24.16326900169483
-0.01770000000000005,-24.601829504652986
-0.01870000000000016,-24.870624651627345
-0.01970000000000005,-25.04039000761115
-0.020700000000000163,-25.39406783257741
-0.021700000000000053,-25.81848122253692
-0.022700000000000164,-26.21460038649913
-0.023700000000000054,-26.38436574248293
-0.024700000000000166,-26.483395533473487
-0.025700000000000056,-26.822926245441096
-0.026700000000000168,-27.261486748399253
-0.027700000000000058,-27.615164573365515
-0.02870000000000017,-27.78492992934932
-0.02970000000000006,-27.827371268345274
-0.03070000000000017,-28.05372507632368
-0.03170000000000006,-28.393255788291288
-0.03270000000000017,-28.704492274261593
-0.03370000000000006,-28.789374952253496
-0.034700000000000175,-28.831816291249446
-0.035700000000000065,-29.001581647233255
-0.03670000000000018,-29.35525947219951
-0.03770000000000007,-29.66649595816982
-0.03870000000000018,-29.751378636161718
-0.03970000000000007,-29.751378636161718
-0.04070000000000018,-29.921143992145527
-0.04170000000000007,-30.274821817111786
-0.04270000000000018,-30.529469851087494
-0.04370000000000007,-30.614352529079397
-0.044700000000000184,-30.614352529079397
-0.045700000000000074,-30.7558236590659
-0.046700000000000186,-31.052913032037555
-0.047700000000000076,-31.27926684001596
-0.04870000000000019,-31.27926684001596
-0.04970000000000008,-31.23682550102001
-0.05070000000000019,-31.36414951800786
-0.05170000000000008,-31.661238890979522
-0.05270000000000019,-31.930034037953877
-0.05370000000000008,-31.972475376949827
-0.05470000000000019,-31.930034037953877
-0.05570000000000008,-32.05735805494172
-0.056700000000000195,-32.32615320191609
-0.057700000000000085,-32.53835989689585
-0.058700000000000196,-32.49591855789989
-0.059700000000000086,-32.45347721890394
-0.0607000000000002,-32.49591855789989
-0.06170000000000009,-32.764713704874254
-0.0627000000000002,-32.97692039985401
-0.06370000000000009,-33.01936173884996
-0.0647000000000002,-32.97692039985401
-0.06570000000000009,-33.10424441684186
-0.0667000000000002,-33.41548090281216
-0.0677000000000001,-33.58524625879597
-0.0687000000000002,-33.54280491980002
-0.0697000000000001,-33.41548090281216
-0.07070000000000021,-33.41548090281216
-0.0717000000000001,-33.58524625879597
-0.07270000000000021,-33.755011614779775
-0.0737000000000001,-33.712570275783825
-0.07470000000000021,-33.627687597791926
-0.0757000000000001,-33.712570275783825
-0.07670000000000021,-33.89648274476628
-0.0777000000000001,-34.02380676175414
-0.07870000000000021,-33.89648274476628
-0.0797000000000001,-33.712570275783825
-0.08070000000000022,-33.755011614779775
-0.0817000000000001,-33.98136542275818
-0.08270000000000022,-34.15113077874198
-0.08370000000000011,-34.06624810075008
-0.08470000000000022,-33.89648274476628
-0.08570000000000011,-33.85404140577033
-0.08670000000000022,-33.98136542275818
-0.08770000000000011,-34.02380676175414
-0.08870000000000022,-33.93892408376223
-0.08970000000000011,-33.85404140577033
-0.09070000000000022,-33.93892408376223
-0.09170000000000011,-34.15113077874198
-0.09270000000000023,-34.278454795729836
-0.09370000000000012,-34.10868943974604
-0.09470000000000023,-33.85404140577033
-0.09570000000000012,-33.81160006677438
-0.09670000000000023,-33.93892408376223
-0.09770000000000012,-34.06624810075008
-0.09870000000000023,-33.98136542275818
-0.09970000000000012,-33.755011614779775
-0.10070000000000023,-33.670128936787876
-0.10170000000000012,-33.755011614779775
-0.10270000000000024,-33.81160006677438
-0.10370000000000013,-33.627687597791926
-0.10470000000000024,-33.373039563816214
-0.10570000000000013,-33.373039563816214
-0.10670000000000024,-33.45792224180811
-0.10770000000000013,-33.50036358080407
-0.10870000000000024,-33.330598224820264
-0.10970000000000013,-33.06180307784591
-0.11070000000000024,-33.06180307784591
-0.11170000000000013,-33.14668575583781
-0.11270000000000002,-33.18912709483376
-0.11370000000000013,-32.97692039985401
-0.11470000000000002,-32.764713704874254
-0.11570000000000014,-32.70812525287965
-0.11670000000000003,-32.84959638286615
-0.11770000000000014,-32.84959638286615
-0.11870000000000003,-32.70812525287965
-0.11970000000000014,-32.45347721890394
-0.12070000000000003,-32.368594540912035
-0.12170000000000014,-32.45347721890394
-0.12270000000000003,-32.45347721890394
-0.12370000000000014,-32.24127052392419
-0.12470000000000003,-31.972475376949827
-0.12570000000000014,-31.930034037953877
-0.12670000000000003,-32.09979939393769
-0.12770000000000015,-32.14224073293363
-0.12870000000000004,-31.972475376949827
-0.12970000000000015,-31.717827342974125
-0.13070000000000004,-31.57635621298762
-0.13170000000000015,-31.618797551983565
-0.13270000000000004,-31.618797551983565
-0.13370000000000015,-31.40659085700382
-0.13470000000000004,-31.137795710029454
-0.13570000000000015,-31.095354371033505
-0.13670000000000004,-31.19438416202406
-0.13770000000000016,-31.23682550102001
-0.13870000000000005,-30.968030354045652
-0.13970000000000016,-30.71338232006995
-0.14070000000000005,-30.571911190083444
-0.14170000000000016,-30.670940981073993
-0.14270000000000005,-30.670940981073993
-0.14370000000000016,-30.444587173095588
-0.14470000000000005,-30.189939139119886
-0.14570000000000016,-30.10505646112798
-0.14670000000000005,-30.189939139119886
-0.14770000000000016,-30.147497800123933
-0.14870000000000005,-29.96358533114148
-0.14970000000000017,-29.708937297165768
-0.15070000000000006,-29.62405461917387
-0.15170000000000017,-29.66649595816982
-0.15270000000000006,-29.62405461917387
-0.15370000000000017,-29.39770081119546
-0.15470000000000006,-29.100611438223805
-0.15570000000000017,-29.001581647233255
-0.15670000000000006,-29.100611438223805
-0.15770000000000017,-29.058170099227848
-0.15870000000000006,-28.831816291249446
-0.15970000000000018,-28.478138466283188
-0.16070000000000007,-28.393255788291288
-0.16170000000000018,-28.435697127287238
-0.16270000000000007,-28.478138466283188
-0.16370000000000018,-28.350814449295335
-0.16470000000000007,-28.13860775431558
-0.16570000000000018,-28.011283737327723
-0.16670000000000007,-28.09616641531963
-0.16770000000000018,-28.011283737327723
-0.16870000000000007,-27.742488590353368
-0.16970000000000018,-27.43125210438306
-0.17070000000000007,-27.34636942639116
-0.17170000000000019,-27.487840556377662
-0.17270000000000008,-27.530281895373616
-0.1737000000000002,-27.34636942639116
-0.17470000000000008,-27.134162731411404
-0.1757000000000002,-27.049280053419505
-0.17670000000000008,-27.091721392415455
-0.1777000000000002,-27.049280053419505
-0.17870000000000008,-26.822926245441096
-0.1797000000000002,-26.525836872469437
-0.18070000000000008,-26.440954194477534
-0.1817000000000002,-26.525836872469437
-0.18270000000000008,-26.568278211465387
-0.1837000000000002,-26.38436574248293
-0.1847000000000001,-26.129717708507226
-0.1857000000000002,-26.087276369511276
-0.1867000000000001,-26.17215904750318
-0.1877000000000002,-26.17215904750318
-0.1887000000000001,-26.002393691519377
-0.1897000000000002,-25.77603988354097
-0.1907000000000001,-25.691157205549064
-0.1917000000000001,-25.77603988354097
-0.19269999999999998,-25.81848122253692
-0.1937000000000001,-25.648715866553115
-0.19469999999999998,-25.39406783257741
-0.1957000000000001,-25.337479380582806
-0.19669999999999999,-25.43650917157336
-0.1977000000000001,-25.478950510569312
-0.1987,-25.295038041586857
-0.1997000000000001,-25.0828313466071
-0.2007,-24.95550732961925
-0.2017000000000001,-24.997948668615198
-0.2027,-25.04039000761115
-0.2037000000000001,-24.9130659906233
-0.2047,-24.771594860636792
-0.2057000000000001,-24.814036199632742
-0.2067,-24.997948668615198
-0.2077000000000001,-24.997948668615198
-0.2087,-24.814036199632742
-0.2097000000000001,-24.64427084364894
-0.2107,-24.559388165657033
-0.2117000000000001,-24.729153521640843
-0.2127,-24.814036199632742
-0.2137000000000001,-24.64427084364894
-0.2147,-24.474505487665134
-0.2157000000000001,-24.516946826661083
-0.2167,-24.686712182644893
-0.21770000000000012,-24.771594860636792
-0.2187,-24.601829504652986
-0.21970000000000012,-24.34718147067728
-0.2207,-24.24815167968673
-0.22170000000000012,-24.389622809673234
-0.2227,-24.432064148669184
-0.22370000000000012,-24.290593018682678
-0.2247,-24.078386323702922
-0.22570000000000012,-24.078386323702922
-0.2267,-24.24815167968673
-0.22770000000000012,-24.34718147067728
-0.22870000000000001,-24.20571034069078
-0.22970000000000013,-23.993503645711023
-0.23070000000000002,-23.993503645711023
-0.23170000000000013,-24.120827662698876
-0.23270000000000002,-24.20571034069078
-0.23370000000000013,-24.078386323702922
-0.23470000000000002,-23.908620967719123
-0.23570000000000013,-23.993503645711023
-0.23670000000000002,-24.16326900169483
-0.2376999999999999,-24.290593018682678
-0.23870000000000002,-24.20571034069078
-0.2396999999999999,-24.035944984706973
-0.24070000000000003,-24.078386323702922
-0.24169999999999991,-24.290593018682678
-0.24270000000000003,-24.389622809673234
-0.24369999999999992,-24.24815167968673
-0.24470000000000003,-24.120827662698876
-0.24569999999999992,-24.120827662698876
-0.24670000000000003,-24.290593018682678
-0.24769999999999992,-24.474505487665134
-0.24870000000000003,-24.389622809673234
-0.24969999999999992,-24.20571034069078
-0.25070000000000003,-24.20571034069078
-0.2516999999999999,-24.432064148669184
-0.25270000000000004,-24.516946826661083
-0.2536999999999999,-24.432064148669184
-0.25470000000000004,-24.20571034069078
-0.2556999999999999,-24.16326900169483
-0.25670000000000004,-24.34718147067728
-0.25769999999999993,-24.516946826661083
-0.25870000000000004,-24.432064148669184
-0.25969999999999993,-24.34718147067728
-0.26070000000000004,-24.389622809673234
-0.26169999999999993,-24.601829504652986
-0.26270000000000004,-24.729153521640843
-0.26369999999999993,-24.601829504652986
-0.26470000000000005,-24.432064148669184
-0.26569999999999994,-24.474505487665134
-0.26670000000000005,-24.686712182644893
-0.26769999999999994,-24.814036199632742
-0.26870000000000005,-24.729153521640843
-0.26969999999999994,-24.559388165657033
-0.27070000000000005,-24.601829504652986
-0.27169999999999994,-24.771594860636792
-0.27270000000000005,-24.9130659906233
-0.27369999999999994,-24.771594860636792
-0.27470000000000006,-24.64427084364894
-0.27569999999999995,-24.729153521640843
-0.27670000000000006,-24.95550732961925
-0.27769999999999995,-25.0828313466071
-0.27870000000000006,-25.04039000761115
-0.27969999999999995,-24.95550732961925
-0.28070000000000006,-25.04039000761115
-0.28169999999999995,-25.252596702590903
-0.28270000000000006,-25.478950510569312
-0.28369999999999995,-25.43650917157336
-0.28470000000000006,-25.337479380582806
-0.28569999999999995,-25.43650917157336
-0.28670000000000007,-25.648715866553115
-0.28769999999999996,-25.81848122253692
-0.28870000000000007,-25.77603988354097
-0.28969999999999996,-25.648715866553115
-0.29070000000000007,-25.73359854454502
-0.29169999999999996,-26.002393691519377
-0.29270000000000007,-26.17215904750318
-0.29369999999999996,-26.129717708507226
-0.2947000000000001,-26.044835030515326
-0.29569999999999996,-26.129717708507226
-0.2967000000000001,-26.38436574248293
-0.29769999999999996,-26.568278211465387
-0.2987000000000001,-26.525836872469437
-0.29969999999999997,-26.483395533473487
-0.3007000000000001,-26.61071955046134
-0.30169999999999997,-26.907808923433
-0.3027000000000001,-27.176604070407354
-0.30369999999999997,-27.176604070407354
-0.3047000000000001,-27.134162731411404
-0.30569999999999997,-27.261486748399253
-0.3067000000000001,-27.572723234369565
-0.3077,-27.827371268345274
-0.3087000000000001,-27.869812607341224
-0.3097,-27.827371268345274
-0.3107000000000001,-28.011283737327723
-0.3117,-28.308373110299385
-0.3127000000000001,-28.577168257273744
-0.3137,-28.619609596269694
-0.3147000000000001,-28.662050935265643
-0.3157,-28.8742576302454
-0.3167000000000001,-29.27037679420761
-0.3177,-29.525024828183312
-0.3187000000000001,-29.66649595816982
-0.3197,-29.708937297165768
-0.3207000000000001,-29.921143992145527
-0.3217,-30.359704495103685
-0.3227000000000001,-30.670940981073993
-0.3237,-30.79826499806185
-0.3247000000000001,-30.8407063370578
-0.3257,-31.095354371033505
-0.3267000000000001,-31.533914873991666
-0.3277,-31.972475376949827
-0.3287000000000001,-32.14224073293363
-0.3297,-32.283711862920136
-0.3307000000000001,-32.62324257488775
-0.3317,-33.10424441684186
-0.3327000000000001,-33.54280491980002
-0.3337,-33.755011614779775
-0.3347000000000001,-33.98136542275818
-0.3357,-34.377484586720385
-0.3367000000000001,-34.90092776767045
-0.3377,-35.46681228761647
-0.3387000000000001,-35.763901660588125
-0.3397,-36.03269680756248
-0.3407000000000001,-36.47125731052064
-0.3417,-37.122024508458566
-0.3427000000000001,-37.77279170639648
-0.3437,-38.253793548350586
-0.3447000000000001,-38.6499127123128
-0.3457,-39.21579723225882
-0.3467000000000001,-39.95144710818864
-0.3477,-40.616361419125205
-0.3487000000000001,-41.083216148080666
-0.3497,-41.52177665103883
-0.3507000000000001,-42.2715736399673
-0.3517,-43.09210619388902
-0.3527000000000001,-43.96922719980534
-0.3537,-44.619994397743255
-0.3547000000000001,-45.27076159568118
-0.3557,-46.147882601597495
-0.35670000000000013,-47.19476896349763
-0.3577,-48.1992139864018
-0.35870000000000013,-48.97730520132757
-0.3597,-49.81198486824794
-0.36070000000000013,-50.90131256914402
-0.3617,-52.17455273902255
-0.3626999999999999,-53.39120445690648
-0.3637,-54.43809081880661
-0.3646999999999999,-55.484977180706736
-0.3657,-56.74407023758662
-0.3666999999999999,-58.31439978043681
-0.3677,-59.842287984291055
-0.3686999999999999,-61.327734849149344
-0.36970000000000003,-62.72829903601572
-0.3706999999999999,-64.42595259585376
-0.37170000000000003,-66.29337151167562
-0.3726999999999999,-68.21737887949207
-0.37370000000000003,-70.01406223032066
-0.3746999999999999,-71.7965984681506
-0.37570000000000003,-73.8479298529549
-0.3766999999999999,-76.19635061073087
-0.37770000000000004,-78.51647714250953
-0.3786999999999999,-80.65269120530574
-0.37970000000000004,-82.8313466070979
-0.3806999999999999,-85.23635581686847
-0.38170000000000004,-87.93845439961068
-0.38269999999999993,-90.59811164335694
-0.38370000000000004,-93.08800353111941
-0.38469999999999993,-95.60618964487918
-0.38570000000000004,-98.3082882276214
-0.38669999999999993,-99.83617643147564
-0.38570000000000004,-99.01564387755391
-0.38469999999999993,-98.4497593576079
-0.38370000000000004,-97.96875751565379
-0.38269999999999993,-97.84143349866595
-0.38170000000000004,-97.96875751565379
-0.3806999999999999,-98.13852287163759
-0.37970000000000004,-98.09608153264163
-0.3786999999999999,-98.05364019364569
-0.37770000000000004,-98.13852287163759
-0.3766999999999999,-98.4497593576079
-0.37570000000000003,-98.57708337459576
-0.3746999999999999,-98.364876679616
-0.37370000000000003,-98.09608153264163
-0.3726999999999999,-97.88387483766188
-0.37170000000000003,-97.92631617665783
-0.3706999999999999,-97.88387483766188
-0.36970000000000003,-97.6575210296835
-0.3686999999999999,-97.31799031771587
-0.3677,-97.09163650973747
-0.3666999999999999,-97.00675383174556
-0.3657,-96.69551734577524
-0.3646999999999999,-96.0871914868333
-0.3637,-95.43642428889537
-0.3626999999999999,-94.95542244694126
-0.3617,-94.601744621975
-0.36070000000000013,-94.26221391000739
-0.3597,-93.69632939006138
-0.35870000000000013,-92.98897374012887
-0.3577,-92.4655305591788
-0.35670000000000013,-91.98452871722468
-0.3557,-91.41864419727867
-0.3547000000000001,-90.68299432134886
-0.3537,-89.84831465442848
-0.3527000000000001,-89.23998879548651
-0.3517,-88.71654561453644
-0.3507000000000001,-88.10821975559449
-0.3497,-87.27354008867411
-0.3487000000000001,-86.41056619575643
-0.3477,-85.66076920682796
-0.3467000000000001,-85.052443347886
-0.3457,-84.27435213296022
-0.3447000000000001,-83.39723112704392
-0.3437,-82.39278610413973
-0.3427000000000001,-81.57225355021802
-0.3417,-80.86489790028548
-0.3407000000000001,-80.12924802435568
-0.3397,-79.16724434044745
-0.3387000000000001,-78.16279931754329
-0.3377,-77.28567831162695
-0.3367000000000001,-76.63491111368903
-0.3357,-75.85681989876326
-0.3347000000000001,-74.89481621485504
-0.3337,-73.80548851395896
-0.3327000000000001,-72.92836750804264
-0.3317,-72.19271763211282
-0.3307000000000001,-71.4004793041884
-0.3297,-70.39603428128423
-0.3287000000000001,-69.30670658038814
-0.3277,-68.44373268747047
-0.3267000000000001,-67.693935698542
-0.3257,-66.81681469262568
-0.3247000000000001,-65.82651678272015
-0.3237,-64.72304196882543
-0.3227000000000001,-63.81762673691181
-0.3217,-63.06782974798333
-0.3207000000000001,-62.28973853305756
-0.3197,-61.327734849149344
-0.3187000000000001,-60.19596580925731
-0.3177,-59.27640346434504
-0.3167000000000001,-58.54075358841522
-0.3157,-57.70607392149485
-0.3147000000000001,-56.70162889859067
-0.3137,-55.56985985869864
-0.3127000000000001,-54.69273885278232
-0.3117,-53.91464763785655
-0.3107000000000001,-53.079967970936174
-0.3097,-52.075522948032
-0.3087000000000001,-50.943753908139975
-0.3077,-50.0807800152223
-0.3067000000000001,-49.33098302629383
-0.30569999999999997,-48.55289181136806
-0.3047000000000001,-47.54844678846388
-0.30369999999999997,-46.45911908756781
-0.3027000000000001,-45.581998081651484
-0.30169999999999997,-44.80390686672572
-0.3007000000000001,-44.011668538801295
-0.29969999999999997,-43.007223515897124
-0.2987000000000001,-41.96033715399699
-0.29769999999999996,-41.139804600075266
-0.2967000000000001,-40.43244895014274
-0.29569999999999996,-39.696799074212926
-0.2947000000000001,-38.734795390304704
-0.29369999999999996,-37.687909028404576
-0.29270000000000007,-36.81078802248826
-0.29169999999999996,-36.16002082455034
-0.29070000000000007,-35.42437094862052
-0.28969999999999996,-34.462367264712285
-0.28870000000000007,-33.41548090281216
-0.28769999999999996,-32.58080123589179
-0.28670000000000007,-31.972475376949827
-0.28569999999999995,-31.321708179011907
-0.28470000000000006,-30.444587173095588
-0.28369999999999995,-29.440142150191413
-0.28270000000000006,-28.662050935265643
-0.28169999999999995,-28.011283737327723
-0.28070000000000006,-27.261486748399253
-0.27969999999999995,-26.38436574248293
-0.27870000000000006,-25.478950510569312
-0.27769999999999995,-24.771594860636792
-0.27670000000000006,-24.20571034069078
-0.27569999999999995,-23.55494314275286
-0.27470000000000006,-22.72026347583249
-0.27369999999999994,-21.814848243918867
-0.27270000000000005,-21.065051254990397
-0.27169999999999994,-20.541608074040333
-0.27070000000000005,-19.890840876102416
-0.26969999999999994,-19.112749661176647
-0.26870000000000005,-18.19318731626437
-0.26769999999999994,-17.48583166633185
-0.26670000000000005,-16.919947146385837
