Potential V vs RHE, Current mA cm-2
0.013299999999999867,-0.002205534916489592
0.012299999999999978,-0.5255652478998613
0.011299999999999866,-0.9181476336124089
0.010299999999999976,-1.1798692240874404
0.009299999999999864,-1.3980177065266295
0.008299999999999974,-1.6156003044458718
0.007299999999999862,-1.8334658446250875
0.006299999999999972,-2.008890045808352
0.00529999999999986,-2.1390434853959355
0.0042999999999999705,-2.2706116362833835
0.0032999999999998586,-2.3144676865791998
0.0022999999999999687,-2.4446211261667834
0.0012999999999998568,-2.532333226758415
0.00029999999999996696,-2.662486666345999
-0.000700000000000145,-2.7501987669376318
-0.0017000000000000348,-2.8379108675292635
-0.0027000000000001467,-2.8803522065252145
-0.0037000000000000366,-2.924208256821031
-0.0047000000000001485,-3.0119203574126634
-0.005700000000000038,-3.0996324580042955
-0.00670000000000015,-3.1859298472960624
-0.00770000000000004,-3.273641947887695
-0.008700000000000152,-3.317497998183511
-0.009700000000000042,-3.361354048479327
-0.010700000000000154,-3.403795387475278
-0.011700000000000044,-3.447651437771094
-0.012700000000000156,-3.5353635383627267
-0.013700000000000045,-3.623075638954359
-0.014700000000000157,-3.7093730282461257
-0.015700000000000047,-3.7532290785419424
-0.01670000000000016,-3.7532290785419424
-0.01770000000000005,-3.7970851288377587
-0.01870000000000016,-3.884797229429391
-0.01970000000000005,-3.971094618721158
-0.020700000000000163,-4.0588067193127895
-0.021700000000000053,-4.146518819904423
-0.022700000000000164,-4.146518819904423
-0.023700000000000054,-4.1889601589003735
-0.024700000000000166,-4.276672259492005
-0.025700000000000056,-4.364384360083638
-0.026700000000000168,-4.494537799671222
-0.027700000000000058,-4.538393849967037
-0.02870000000000017,-4.626105950558669
-0.02970000000000006,-4.626105950558669
-0.03070000000000017,-4.668547289554621
-0.03170000000000006,-4.756259390146253
-0.03270000000000017,-4.800115440442069
-0.03370000000000006,-4.887827541033701
-0.034700000000000175,-4.974124930325469
-0.035700000000000065,-5.0618370309171015
-0.03670000000000018,-5.105693081212917
-0.03770000000000007,-5.149549131508733
-0.03870000000000018,-5.235846520800501
-0.03970000000000007,-5.367414671687949
-0.04070000000000018,-5.453712060979717
-0.04170000000000007,-5.497568111275533
-0.04270000000000018,-5.5414241615713475
-0.04370000000000007,-5.585280211867165
-0.044700000000000184,-5.629136262162981
-0.045700000000000074,-5.715433651454749
-0.046700000000000186,-5.847001802342197
-0.047700000000000076,-5.890857852638012
-0.04870000000000019,-5.977155241929781
-0.04970000000000008,-5.977155241929781
-0.05070000000000019,-6.021011292225596
-0.05170000000000008,-6.108723392817228
-0.05270000000000019,-6.196435493408861
-0.05370000000000008,-6.282732882700628
-0.05470000000000019,-6.37044498329226
-0.05570000000000008,-6.414301033588076
-0.056700000000000195,-6.458157083883892
-0.057700000000000085,-6.500598422879844
-0.058700000000000196,-6.632166573767292
-0.059700000000000086,-6.719878674358924
-0.0607000000000002,-6.762320013354876
-0.06170000000000009,-6.850032113946507
-0.0627000000000002,-6.850032113946507
-0.06370000000000009,-6.893888164242324
-0.0647000000000002,-6.93774421453814
-0.06570000000000009,-7.024041603829907
-0.0667000000000002,-7.111753704421539
-0.0677000000000001,-7.155609754717355
-0.0687000000000002,-7.243321855308987
-0.0697000000000001,-7.28576319430494
-0.07070000000000021,-7.329619244600755
-0.0717000000000001,-7.4173313451923875
-0.07270000000000021,-7.50504344578402
-0.0737000000000001,-7.591340835075788
-0.07470000000000021,-7.591340835075788
-0.0757000000000001,-7.635196885371603
-0.07670000000000021,-7.635196885371603
-0.0777000000000001,-7.635196885371603
-0.07870000000000021,-7.722908985963235
-0.0797000000000001,-7.809206375255003
-0.08070000000000022,-7.896918475846635
-0.0817000000000001,-7.940774526142452
-0.08270000000000022,-7.940774526142452
-0.08370000000000011,-7.984630576438266
-0.08470000000000022,-8.027071915434218
-0.08570000000000011,-8.11478401602585
-0.08670000000000022,-8.158640066321666
-0.08770000000000011,-8.246352166913299
-0.08870000000000022,-8.246352166913299
-0.08970000000000011,-8.288793505909249
-0.09070000000000022,-8.288793505909249
-0.09170000000000011,-8.332649556205066
-0.09270000000000023,-8.376505606500881
-0.09370000000000012,-8.464217707092514
-0.09470000000000023,-8.508073757388331
-0.09570000000000012,-8.508073757388331
-0.09670000000000023,-8.508073757388331
-0.09770000000000012,-8.55051509638428
-0.09870000000000023,-8.594371146680096
-0.09970000000000012,-8.68208324727173
-0.10070000000000023,-8.725939297567548
-0.10170000000000012,-8.769795347863363
-0.10270000000000024,-8.769795347863363
-0.10370000000000013,-8.769795347863363
-0.10470000000000024,-8.812236686859313
-0.10570000000000013,-8.899948787450944
-0.10670000000000024,-8.943804837746763
-0.10770000000000013,-8.987660888042578
-0.10870000000000024,-8.987660888042578
-0.10970000000000013,-8.943804837746763
-0.11070000000000024,-8.943804837746763
-0.11170000000000013,-8.987660888042578
-0.11270000000000002,-9.031516938338395
-0.11370000000000013,-9.073958277334345
-0.11470000000000002,-9.161670377925978
-0.11570000000000014,-9.161670377925978
-0.11670000000000003,-9.161670377925978
-0.11770000000000014,-9.205526428221793
-0.11870000000000003,-9.24938247851761
-0.11970000000000014,-9.293238528813426
-0.12070000000000003,-9.379535918105192
-0.12170000000000014,-9.423391968401008
-0.12270000000000003,-9.423391968401008
-0.12370000000000014,-9.423391968401008
-0.12470000000000003,-9.423391968401008
-0.12570000000000014,-9.467248018696827
-0.12670000000000003,-9.55496011928846
-0.12770000000000015,-9.55496011928846
-0.12870000000000004,-9.55496011928846
-0.12970000000000015,-9.55496011928846
-0.13070000000000004,-9.55496011928846
-0.13170000000000015,-9.59740145828441
-0.13270000000000004,-9.685113558876042
-0.13370000000000015,-9.728969609171857
-0.13470000000000004,-9.772825659467674
-0.13570000000000015,-9.772825659467674
-0.13670000000000004,-9.772825659467674
-0.13770000000000016,-9.81668170976349
-0.13870000000000005,-9.85912304875944
-0.13970000000000016,-9.902979099055257
-0.14070000000000005,-9.902979099055257
-0.14170000000000016,-9.902979099055257
-0.14270000000000005,-9.85912304875944
-0.14370000000000016,-9.85912304875944
-0.14470000000000005,-9.85912304875944
-0.14570000000000016,-9.902979099055257
-0.14670000000000005,-9.946835149351072
-0.14770000000000016,-10.034547249942705
-0.14870000000000005,-10.034547249942705
-0.14970000000000017,-10.034547249942705
-0.15070000000000006,-10.034547249942705
-0.15170000000000017,-10.078403300238522
-0.15270000000000006,-10.120844639234473
-0.15370000000000017,-10.164700689530287
-0.15470000000000006,-10.164700689530287
-0.15570000000000017,-10.120844639234473
-0.15670000000000006,-10.078403300238522
-0.15770000000000017,-10.078403300238522
-0.15870000000000006,-10.078403300238522
-0.15970000000000018,-10.120844639234473
-0.16070000000000007,-10.120844639234473
-0.16170000000000018,-10.120844639234473
-0.16270000000000007,-10.120844639234473
-0.16370000000000018,-10.120844639234473
-0.16470000000000007,-10.164700689530287
-0.16570000000000018,-10.208556739826104
-0.16670000000000007,-10.25241279012192
-0.16770000000000018,-10.296268840417738
-0.16870000000000007,-10.296268840417738
-0.16970000000000018,-10.25241279012192
-0.17070000000000007,-10.208556739826104
-0.17170000000000019,-10.208556739826104
-0.17270000000000008,-10.25241279012192
-0.1737000000000002,-10.25241279012192
-0.17470000000000008,-10.25241279012192
-0.1757000000000002,-10.208556739826104
-0.17670000000000008,-10.164700689530287
-0.1777000000000002,-10.120844639234473
-0.17870000000000008,-10.164700689530287
-0.1797000000000002,-10.164700689530287
-0.18070000000000008,-10.208556739826104
-0.1817000000000002,-10.164700689530287
-0.18270000000000008,-10.164700689530287
-0.1837000000000002,-10.120844639234473
-0.1847000000000001,-10.120844639234473
-0.1857000000000002,-10.120844639234473
-0.1867000000000001,-10.120844639234473
-0.1877000000000002,-10.120844639234473
-0.1887000000000001,-10.078403300238522
-0.1897000000000002,-10.034547249942705
-0.1907000000000001,-9.946835149351072
-0.1917000000000001,-9.902979099055257
-0.19269999999999998,-9.946835149351072
-0.1937000000000001,-9.902979099055257
-0.19469999999999998,-9.902979099055257
-0.1957000000000001,-9.85912304875944
-0.19669999999999999,-9.81668170976349
-0.1977000000000001,-9.772825659467674
-0.1987,-9.81668170976349
-0.1997000000000001,-9.81668170976349
-0.2007,-9.772825659467674
-0.2017000000000001,-9.728969609171857
-0.2027,-9.641257508580225
-0.2037000000000001,-9.55496011928846
-0.2047,-9.467248018696827
-0.2057000000000001,-9.467248018696827
-0.2067,-9.467248018696827
-0.2077000000000001,-9.423391968401008
-0.2087,-9.335679867809377
-0.2097000000000001,-9.293238528813426
-0.2107,-9.24938247851761
-0.2117000000000001,-9.205526428221793
-0.2127,-9.24938247851761
-0.2137000000000001,-9.24938247851761
-0.2147,-9.205526428221793
-0.2157000000000001,-9.161670377925978
-0.2167,-9.073958277334345
-0.21770000000000012,-9.031516938338395
-0.2187,-8.987660888042578
-0.21970000000000012,-8.943804837746763
-0.2207,-8.85609273715513
-0.22170000000000012,-8.812236686859313
-0.2227,-8.725939297567548
-0.22370000000000012,-8.594371146680096
-0.2247,-8.55051509638428
-0.22570000000000012,-8.508073757388331
-0.2267,-8.508073757388331
-0.22770000000000012,-8.464217707092514
-0.22870000000000001,-8.4203616567967
-0.22970000000000013,-8.332649556205066
-0.23070000000000002,-8.288793505909249
-0.23170000000000013,-8.246352166913299
-0.23270000000000002,-8.288793505909249
-0.23370000000000013,-8.246352166913299
-0.23470000000000002,-8.202496116617484
-0.23570000000000013,-8.11478401602585
-0.23670000000000002,-7.984630576438266
-0.2376999999999999,-7.896918475846635
-0.23870000000000002,-7.853062425550818
-0.2396999999999999,-7.853062425550818
-0.24070000000000003,-7.809206375255003
-0.24169999999999991,-7.7653503249591855
-0.24270000000000003,-7.679052935667419
-0.24369999999999992,-7.635196885371603
-0.24470000000000003,-7.591340835075788
-0.24569999999999992,-7.5474847847799715
-0.24670000000000003,-7.5474847847799715
-0.24769999999999992,-7.50504344578402
-0.24870000000000003,-7.461187395488204
-0.24969999999999992,-7.37347529489657
-0.25070000000000003,-7.329619244600755
-0.2516999999999999,-7.28576319430494
-0.25270000000000004,-7.28576319430494
-0.2536999999999999,-7.243321855308987
-0.25470000000000004,-7.199465805013171
-0.2556999999999999,-7.155609754717355
-0.25670000000000004,-7.067897654125724
-0.25769999999999993,-6.981600264833956
-0.25870000000000004,-6.93774421453814
-0.25969999999999993,-6.93774421453814
-0.26070000000000004,-6.93774421453814
-0.26169999999999993,-6.850032113946507
-0.26270000000000004,-6.762320013354876
-0.26369999999999993,-6.6760226240631075
-0.26470000000000005,-6.632166573767292
-0.26569999999999994,-6.632166573767292
-0.26670000000000005,-6.6760226240631075
-0.26769999999999994,-6.6760226240631075
-0.26870000000000005,-6.6760226240631075
-0.26969999999999994,-6.6760226240631075
-0.27070000000000005,-6.6760226240631075
-0.27169999999999994,-6.632166573767292
-0.27270000000000005,-6.588310523471475
-0.27369999999999994,-6.54445447317566
-0.27470000000000006,-6.500598422879844
-0.27569999999999995,-6.414301033588076
-0.27670000000000006,-6.37044498329226
-0.27769999999999995,-6.326588932996443
-0.27870000000000006,-6.326588932996443
-0.27969999999999995,-6.326588932996443
-0.28070000000000006,-6.37044498329226
-0.28169999999999995,-6.37044498329226
-0.28270000000000006,-6.282732882700628
-0.28369999999999995,-6.282732882700628
-0.28470000000000006,-6.238876832404812
-0.28569999999999995,-6.282732882700628
-0.28670000000000007,-6.282732882700628
-0.28769999999999996,-6.282732882700628
-0.28870000000000007,-6.238876832404812
-0.28969999999999996,-6.152579443113044
-0.29070000000000007,-6.108723392817228
-0.29169999999999996,-6.108723392817228
-0.29270000000000007,-6.108723392817228
-0.29369999999999996,-6.108723392817228
-0.2947000000000001,-6.064867342521412
-0.29569999999999996,-6.064867342521412
-0.2967000000000001,-6.064867342521412
-0.29769999999999996,-6.108723392817228
-0.2987000000000001,-6.108723392817228
-0.29969999999999997,-6.152579443113044
-0.3007000000000001,-6.152579443113044
-0.30169999999999997,-6.108723392817228
-0.3027000000000001,-6.064867342521412
-0.30369999999999997,-5.977155241929781
-0.3047000000000001,-5.977155241929781
-0.30569999999999997,-5.977155241929781
-0.3067000000000001,-6.021011292225596
-0.3077,-6.021011292225596
-0.3087000000000001,-6.021011292225596
-0.3097,-5.977155241929781
-0.3107000000000001,-5.977155241929781
-0.3117,-6.021011292225596
-0.3127000000000001,-6.064867342521412
-0.3137,-6.064867342521412
-0.3147000000000001,-6.064867342521412
-0.3157,-6.064867342521412
-0.3167000000000001,-6.021011292225596
-0.3177,-5.977155241929781
-0.3187000000000001,-6.021011292225596
-0.3197,-6.021011292225596
-0.3207000000000001,-6.021011292225596
-0.3217,-6.021011292225596
-0.3227000000000001,-5.977155241929781
-0.3237,-5.977155241929781
-0.3247000000000001,-5.977155241929781
-0.3257,-6.064867342521412
-0.3267000000000001,-6.108723392817228
-0.3277,-6.152579443113044
-0.3287000000000001,-6.152579443113044
-0.3297,-6.152579443113044
-0.3307000000000001,-6.152579443113044
-0.3317,-6.152579443113044
-0.3327000000000001,-6.196435493408861
-0.3337,-6.196435493408861
-0.3347000000000001,-6.196435493408861
-0.3357,-6.196435493408861
-0.3367000000000001,-6.152579443113044
-0.3377,-6.152579443113044
-0.3387000000000001,-6.196435493408861
-0.3397,-6.282732882700628
-0.3407000000000001,-6.326588932996443
-0.3417,-6.326588932996443
-0.3427000000000001,-6.326588932996443
-0.3437,-6.282732882700628
-0.3447000000000001,-6.326588932996443
-0.3457,-6.37044498329226
-0.3467000000000001,-6.458157083883892
-0.3477,-6.458157083883892
-0.3487000000000001,-6.458157083883892
-0.3497,-6.458157083883892
-0.3507000000000001,-6.458157083883892
-0.3517,-6.458157083883892
-0.3527000000000001,-6.500598422879844
-0.3537,-6.54445447317566
-0.3547000000000001,-6.588310523471475
-0.3557,-6.588310523471475
-0.35670000000000013,-6.588310523471475
-0.3577,-6.588310523471475
-0.35870000000000013,-6.632166573767292
-0.3597,-6.6760226240631075
-0.36070000000000013,-6.762320013354876
-0.3617,-6.762320013354876
-0.3626999999999999,-6.762320013354876
-0.3637,-6.806176063650692
-0.3646999999999999,-6.850032113946507
-0.3657,-6.893888164242324
-0.3666999999999999,-6.893888164242324
-0.3677,-6.893888164242324
-0.3686999999999999,-6.893888164242324
-0.36970000000000003,-6.893888164242324
-0.3706999999999999,-6.93774421453814
-0.37170000000000003,-7.024041603829907
-0.3726999999999999,-7.067897654125724
-0.37370000000000003,-7.155609754717355
-0.3746999999999999,-7.199465805013171
-0.37570000000000003,-7.243321855308987
-0.3766999999999999,-7.243321855308987
-0.37770000000000004,-7.28576319430494
-0.3786999999999999,-7.329619244600755
-0.37970000000000004,-7.37347529489657
-0.3806999999999999,-7.4173313451923875
-0.38170000000000004,-7.4173313451923875
-0.38269999999999993,-7.4173313451923875
-0.38370000000000004,-7.4173313451923875
-0.38469999999999993,-7.461187395488204
-0.38570000000000004,-7.5474847847799715
-0.38669999999999993,-7.635196885371603
-0.38770000000000004,-7.679052935667419
-0.38869999999999993,-7.722908985963235
-0.38970000000000005,-7.7653503249591855
-0.39069999999999994,-7.853062425550818
-0.39170000000000005,-7.940774526142452
-0.39269999999999994,-8.027071915434218
-0.39370000000000005,-8.11478401602585
-0.39469999999999994,-8.11478401602585
-0.39570000000000005,-8.11478401602585
-0.39669999999999994,-8.11478401602585
-0.39770000000000005,-8.158640066321666
-0.39869999999999994,-8.202496116617484
-0.39970000000000006,-8.288793505909249
-0.40069999999999995,-8.376505606500881
-0.40170000000000006,-8.464217707092514
-0.40269999999999995,-8.508073757388331
-0.40370000000000006,-8.594371146680096
-0.40469999999999995,-8.68208324727173
-0.40570000000000006,-8.812236686859313
-0.40669999999999995,-8.899948787450944
-0.40770000000000006,-9.031516938338395
-0.40869999999999995,-9.073958277334345
-0.40970000000000006,-9.11781432763016
-0.41069999999999995,-9.161670377925978
-0.41170000000000007,-9.24938247851761
-0.41269999999999996,-9.379535918105192
-0.41370000000000007,-9.467248018696827
-0.41469999999999996,-9.55496011928846
-0.41570000000000007,-9.685113558876042
-0.41669999999999996,-9.772825659467674
-0.41770000000000007,-9.902979099055257
-0.41869999999999996,-10.120844639234473
-0.4197000000000001,-10.296268840417738
-0.42069999999999996,-10.470278330301136
-0.4217000000000001,-10.688143870480351
-0.42269999999999996,-10.863568071663616
-0.4237000000000001,-11.037577561547016
-0.42469999999999997,-11.299299152022046
-0.4257000000000001,-11.604876792792895
-0.42669999999999997,-11.952895772559694
-0.4277000000000001,-12.302329463626359
-0.42869999999999997,-12.651763154693022
-0.4297000000000001,-12.99978213445982
-0.43069999999999997,-13.47936926511407
-0.4317000000000001,-14.002812446064135
-0.4327,-14.65640906660178
-0.4337000000000001,-15.349617603535648
-0.4347,-16.099414592464115
-0.4357000000000001,-16.919947146385837
-0.4367,-17.75462681330621
-0.4377000000000001,-18.759071836210385
-0.4387,-19.890840876102416
-0.4397000000000001,-21.107492593986347
-0.4407,-22.38073276386488
-0.4417000000000001,-23.724708498736668
-0.4427,-25.167714024599
-0.4437000000000001,-26.69560222845324
-0.4447,-28.308373110299385
-0.4457000000000001,-30.04846800913338
-0.4467,-31.76026868197007
-0.4477000000000001,-33.50036358080407
-0.4487,-35.240458479638065
-0.4497000000000001,-37.037141830466666
-0.4507,-38.81967806829661
-0.4517000000000001,-40.65880275812115
-0.4527,-42.526221673943
-0.4537000000000001,-44.4077877027635
-0.4547,-46.27520661858535
-0.4557000000000001,-48.071889969413945
-0.4567,-49.81198486824794
-0.4577000000000001,-51.594521106077885
-0.4587,-53.348763117910536
-0.4597000000000001,-55.17374069473642
-0.4607,-56.97042404556503
-0.4617000000000001,-58.62563626640712
-0.4627,-60.23840714825326
-0.4637000000000001,-61.7662953521075
-0.4647,-63.29418355596174
-0.4657000000000001,-64.82207175981598
-0.4667,-66.29337151167562
-0.4677000000000001,-67.693935698542
-0.4687,-69.05205854641244
-0.4697000000000001,-70.39603428128423
-0.4707,-71.7117157901587
-0.4717000000000001,-72.97080884703858
-0.4727,-74.24404901691713
-0.4737000000000001,-75.4182593958051
-0.4747,-76.55002843569714
-0.4757000000000001,-77.68179747558916
-0.4767,-78.77112517648524
-0.4777000000000001,-79.7755701993894
-0.4787,-80.7800152222936
-0.4797000000000001,-81.74201890620182
-0.4807,-82.6615812511141
-0.48170000000000013,-83.56699648302772
-0.4827,-84.40167614994809
-0.48370000000000013,-85.13732602587791
-0.4847,-85.92956435380233
-0.48570000000000013,-86.75009690772404
-0.4867,-87.06133339369435
-0.48570000000000013,-86.5378902127443
-0.4847,-85.92956435380233
-0.48370000000000013,-85.23635581686847
-0.4827,-84.48655882793999
-0.48170000000000013,-83.79335029100612
-0.4807,-83.22746577106011
-0.4797000000000001,-82.6615812511141
-0.4787,-81.95422560118158
-0.4777000000000001,-81.21857572525175
-0.4767,-80.42633739732734
-0.4757000000000001,-79.64824618240156
-0.4747,-78.91259630647174
-0.4737000000000001,-78.24768199553519
-0.4727,-77.55447345860131
-0.4717000000000001,-76.71979379168094
-0.4707,-75.98414391575112
-0.4697000000000001,-75.29093537881725
-0.4687,-74.62602106788069
-0.4677000000000001,-73.97525386994278
-0.4667,-73.2820453330089
-0.4657000000000001,-72.57468968307639
-0.4647,-72.00880516313036
-0.4637000000000001,-71.4004793041884
-0.4627,-70.79215344524643
-0.4617000000000001,-70.09894490831257
-0.4607,-69.39158925838004
-0.4597000000000001,-68.91058741642594
-0.4587,-67.9202895065204
