Aug. 27, 2024   09:35:04
Linear Sweep Voltammetry
File: c:/users/guazh/data/20240813_batch_181_500/2024-08-25-exp195\1acid_3ac-2024-08-27t09_31_52-lsvinphos\1acid_3ac_lsv_50mvs_efin_-2300mv.bin
Data Source:  Experiment
Instrument Model:  CHI760E
Header: LSV ran at 50 mVs with Efin at -2300mV
Note: 

Init E (V) = -0.6
Final E (V) = -2.3
Scan Rate (V/s) = 0.05
Sample Interval (V) = 0.001
Quiet Time (sec) = 2
Sensitivity (A/V) = 1e-4
Comp R (ohm) = 9.8

Results:

Channel 1:
Ep = -1.902V
ip = 7.329e-4A
Ah = 9.360e-4C

Potential/V, Current/A

-0.600, 4.839e-6
-0.601, 4.972e-6
-0.602, 5.036e-6
-0.603, 5.083e-6
-0.604, 5.126e-6
-0.605, 5.166e-6
-0.606, 5.205e-6
-0.607, 5.242e-6
-0.608, 5.278e-6
-0.609, 5.314e-6
-0.610, 5.348e-6
-0.611, 5.383e-6
-0.612, 5.416e-6
-0.613, 5.450e-6
-0.614, 5.485e-6
-0.615, 5.520e-6
-0.616, 5.552e-6
-0.617, 5.586e-6
-0.618, 5.618e-6
-0.619, 5.650e-6
-0.620, 5.681e-6
-0.621, 5.713e-6
-0.622, 5.747e-6
-0.623, 5.777e-6
-0.624, 5.811e-6
-0.625, 5.843e-6
-0.626, 5.875e-6
-0.627, 5.905e-6
-0.628, 5.933e-6
-0.629, 5.964e-6
-0.630, 5.995e-6
-0.631, 6.027e-6
-0.632, 6.057e-6
-0.633, 6.089e-6
-0.634, 6.119e-6
-0.635, 6.147e-6
-0.636, 6.178e-6
-0.637, 6.207e-6
-0.638, 6.235e-6
-0.639, 6.266e-6
-0.640, 6.296e-6
-0.641, 6.327e-6
-0.642, 6.356e-6
-0.643, 6.386e-6
-0.644, 6.415e-6
-0.645, 6.443e-6
-0.646, 6.474e-6
-0.647, 6.502e-6
-0.648, 6.532e-6
-0.649, 6.561e-6
-0.650, 6.589e-6
-0.651, 6.621e-6
-0.652, 6.647e-6
-0.653, 6.674e-6
-0.654, 6.703e-6
-0.655, 6.730e-6
-0.656, 6.759e-6
-0.657, 6.787e-6
-0.658, 6.813e-6
-0.659, 6.840e-6
-0.660, 6.867e-6
-0.661, 6.894e-6
-0.662, 6.920e-6
-0.663, 6.944e-6
-0.664, 6.972e-6
-0.665, 6.997e-6
-0.666, 7.024e-6
-0.667, 7.048e-6
-0.668, 7.073e-6
-0.669, 7.099e-6
-0.670, 7.124e-6
-0.671, 7.151e-6
-0.672, 7.175e-6
-0.673, 7.199e-6
-0.674, 7.222e-6
-0.675, 7.244e-6
-0.676, 7.264e-6
-0.677, 7.287e-6
-0.678, 7.308e-6
-0.679, 7.331e-6
-0.680, 7.352e-6
-0.681, 7.374e-6
-0.682, 7.393e-6
-0.683, 7.414e-6
-0.684, 7.434e-6
-0.685, 7.453e-6
-0.686, 7.474e-6
-0.687, 7.494e-6
-0.688, 7.512e-6
-0.689, 7.533e-6
-0.690, 7.550e-6
-0.691, 7.569e-6
-0.692, 7.587e-6
-0.693, 7.603e-6
-0.694, 7.622e-6
-0.695, 7.638e-6
-0.696, 7.654e-6
-0.697, 7.671e-6
-0.698, 7.685e-6
-0.699, 7.703e-6
-0.700, 7.717e-6
-0.701, 7.731e-6
-0.702, 7.746e-6
-0.703, 7.759e-6
-0.704, 7.773e-6
-0.705, 7.787e-6
-0.706, 7.799e-6
-0.707, 7.811e-6
-0.708, 7.822e-6
-0.709, 7.834e-6
-0.710, 7.845e-6
-0.711, 7.858e-6
-0.712, 7.869e-6
-0.713, 7.878e-6
-0.714, 7.887e-6
-0.715, 7.896e-6
-0.716, 7.906e-6
-0.717, 7.914e-6
-0.718, 7.923e-6
-0.719, 7.932e-6
-0.720, 7.940e-6
-0.721, 7.947e-6
-0.722, 7.953e-6
-0.723, 7.960e-6
-0.724, 7.966e-6
-0.725, 7.969e-6
-0.726, 7.976e-6
-0.727, 7.981e-6
-0.728, 7.983e-6
-0.729, 7.987e-6
-0.730, 7.991e-6
-0.731, 7.996e-6
-0.732, 7.999e-6
-0.733, 8.000e-6
-0.734, 8.002e-6
-0.735, 8.003e-6
-0.736, 8.004e-6
-0.737, 8.006e-6
-0.738, 8.006e-6
-0.739, 8.006e-6
-0.740, 8.006e-6
-0.741, 8.006e-6
-0.742, 8.007e-6
-0.743, 8.005e-6
-0.744, 8.003e-6
-0.745, 8.003e-6
-0.746, 8.001e-6
-0.747, 7.998e-6
-0.748, 7.997e-6
-0.749, 7.994e-6
-0.750, 7.992e-6
-0.751, 7.989e-6
-0.752, 7.986e-6
-0.753, 7.982e-6
-0.754, 7.978e-6
-0.755, 7.975e-6
-0.756, 7.972e-6
-0.757, 7.972e-6
-0.758, 7.963e-6
-0.759, 7.955e-6
-0.760, 7.949e-6
-0.761, 7.944e-6
-0.762, 7.938e-6
-0.763, 7.932e-6
-0.764, 7.925e-6
-0.765, 7.919e-6
-0.766, 7.913e-6
-0.767, 7.905e-6
-0.768, 7.899e-6
-0.769, 7.894e-6
-0.770, 7.884e-6
-0.771, 7.878e-6
-0.772, 7.870e-6
-0.773, 7.860e-6
-0.774, 7.854e-6
-0.775, 7.844e-6
-0.776, 7.837e-6
-0.777, 7.829e-6
-0.778, 7.819e-6
-0.779, 7.810e-6
-0.780, 7.800e-6
-0.781, 7.793e-6
-0.782, 7.785e-6
-0.783, 7.774e-6
-0.784, 7.766e-6
-0.785, 7.757e-6
-0.786, 7.748e-6
-0.787, 7.738e-6
-0.788, 7.729e-6
-0.789, 7.719e-6
-0.790, 7.710e-6
-0.791, 7.701e-6
-0.792, 7.690e-6
-0.793, 7.679e-6
-0.794, 7.670e-6
-0.795, 7.660e-6
-0.796, 7.650e-6
-0.797, 7.639e-6
-0.798, 7.630e-6
-0.799, 7.619e-6
-0.800, 7.609e-6
-0.801, 7.598e-6
-0.802, 7.587e-6
-0.803, 7.578e-6
-0.804, 7.568e-6
-0.805, 7.557e-6
-0.806, 7.547e-6
-0.807, 7.536e-6
-0.808, 7.525e-6
-0.809, 7.515e-6
-0.810, 7.505e-6
-0.811, 7.495e-6
-0.812, 7.485e-6
-0.813, 7.474e-6
-0.814, 7.465e-6
-0.815, 7.454e-6
-0.816, 7.445e-6
-0.817, 7.434e-6
-0.818, 7.423e-6
-0.819, 7.419e-6
-0.820, 7.412e-6
-0.821, 7.399e-6
-0.822, 7.389e-6
-0.823, 7.378e-6
-0.824, 7.370e-6
-0.825, 7.360e-6
-0.826, 7.351e-6
-0.827, 7.342e-6
-0.828, 7.330e-6
-0.829, 7.322e-6
-0.830, 7.313e-6
-0.831, 7.302e-6
-0.832, 7.296e-6
-0.833, 7.286e-6
-0.834, 7.277e-6
-0.835, 7.270e-6
-0.836, 7.261e-6
-0.837, 7.251e-6
-0.838, 7.243e-6
-0.839, 7.235e-6
-0.840, 7.228e-6
-0.841, 7.221e-6
-0.842, 7.213e-6
-0.843, 7.202e-6
-0.844, 7.193e-6
-0.845, 7.186e-6
-0.846, 7.181e-6
-0.847, 7.169e-6
-0.848, 7.161e-6
-0.849, 7.156e-6
-0.850, 7.145e-6
-0.851, 7.140e-6
-0.852, 7.132e-6
-0.853, 7.124e-6
-0.854, 7.118e-6
-0.855, 7.110e-6
-0.856, 7.103e-6
-0.857, 7.096e-6
-0.858, 7.088e-6
-0.859, 7.083e-6
-0.860, 7.075e-6
-0.861, 7.068e-6
-0.862, 7.061e-6
-0.863, 7.053e-6
-0.864, 7.049e-6
-0.865, 7.044e-6
-0.866, 7.037e-6
-0.867, 7.031e-6
-0.868, 7.024e-6
-0.869, 7.019e-6
-0.870, 7.014e-6
-0.871, 7.011e-6
-0.872, 7.002e-6
-0.873, 6.997e-6
-0.874, 6.992e-6
-0.875, 6.986e-6
-0.876, 6.982e-6
-0.877, 6.977e-6
-0.878, 6.972e-6
-0.879, 6.967e-6
-0.880, 6.960e-6
-0.881, 6.957e-6
-0.882, 6.951e-6
-0.883, 6.946e-6
-0.884, 6.944e-6
-0.885, 6.940e-6
-0.886, 6.935e-6
-0.887, 6.931e-6
-0.888, 6.927e-6
-0.889, 6.923e-6
-0.890, 6.920e-6
-0.891, 6.917e-6
-0.892, 6.913e-6
-0.893, 6.909e-6
-0.894, 6.907e-6
-0.895, 6.902e-6
-0.896, 6.900e-6
-0.897, 6.897e-6
-0.898, 6.892e-6
-0.899, 6.891e-6
-0.900, 6.890e-6
-0.901, 6.887e-6
-0.902, 6.886e-6
-0.903, 6.882e-6
-0.904, 6.881e-6
-0.905, 6.879e-6
-0.906, 6.877e-6
-0.907, 6.875e-6
-0.908, 6.872e-6
-0.909, 6.871e-6
-0.910, 6.869e-6
-0.911, 6.868e-6
-0.912, 6.866e-6
-0.913, 6.865e-6
-0.914, 6.862e-6
-0.915, 6.861e-6
-0.916, 6.861e-6
-0.917, 6.859e-6
-0.918, 6.858e-6
-0.919, 6.858e-6
-0.920, 6.858e-6
-0.921, 6.858e-6
-0.922, 6.856e-6
-0.923, 6.857e-6
-0.924, 6.857e-6
-0.925, 6.856e-6
-0.926, 6.856e-6
-0.927, 6.854e-6
-0.928, 6.854e-6
-0.929, 6.856e-6
-0.930, 6.854e-6
-0.931, 6.857e-6
-0.932, 6.857e-6
-0.933, 6.857e-6
-0.934, 6.859e-6
-0.935, 6.859e-6
-0.936, 6.860e-6
-0.937, 6.861e-6
-0.938, 6.861e-6
-0.939, 6.863e-6
-0.940, 6.864e-6
-0.941, 6.866e-6
-0.942, 6.867e-6
-0.943, 6.868e-6
-0.944, 6.870e-6
-0.945, 6.873e-6
-0.946, 6.873e-6
-0.947, 6.875e-6
-0.948, 6.878e-6
-0.949, 6.879e-6
-0.950, 6.883e-6
-0.951, 6.885e-6
-0.952, 6.887e-6
-0.953, 6.890e-6
-0.954, 6.892e-6
-0.955, 6.895e-6
-0.956, 6.897e-6
-0.957, 6.899e-6
-0.958, 6.902e-6
-0.959, 6.906e-6
-0.960, 6.910e-6
-0.961, 6.914e-6
-0.962, 6.917e-6
-0.963, 6.922e-6
-0.964, 6.924e-6
-0.965, 6.927e-6
-0.966, 6.932e-6
-0.967, 6.936e-6
-0.968, 6.940e-6
-0.969, 6.946e-6
-0.970, 6.947e-6
-0.971, 6.956e-6
-0.972, 6.960e-6
-0.973, 6.966e-6
-0.974, 6.971e-6
-0.975, 6.977e-6
-0.976, 6.980e-6
-0.977, 6.986e-6
-0.978, 6.991e-6
-0.979, 6.999e-6
-0.980, 7.004e-6
-0.981, 7.010e-6
-0.982, 7.017e-6
-0.983, 7.024e-6
-0.984, 7.030e-6
-0.985, 7.038e-6
-0.986, 7.045e-6
-0.987, 7.053e-6
-0.988, 7.060e-6
-0.989, 7.067e-6
-0.990, 7.078e-6
-0.991, 7.086e-6
-0.992, 7.093e-6
-0.993, 7.104e-6
-0.994, 7.112e-6
-0.995, 7.122e-6
-0.996, 7.131e-6
-0.997, 7.140e-6
-0.998, 7.150e-6
-0.999, 7.162e-6
-1.000, 7.172e-6
-1.001, 7.183e-6
-1.002, 7.192e-6
-1.003, 7.204e-6
-1.004, 7.217e-6
-1.005, 7.229e-6
-1.006, 7.243e-6
-1.007, 7.251e-6
-1.008, 7.263e-6
-1.009, 7.277e-6
-1.010, 7.291e-6
-1.011, 7.305e-6
-1.012, 7.320e-6
-1.013, 7.333e-6
-1.014, 7.349e-6
-1.015, 7.363e-6
-1.016, 7.379e-6
-1.017, 7.395e-6
-1.018, 7.409e-6
-1.019, 7.426e-6
-1.020, 7.445e-6
-1.021, 7.463e-6
-1.022, 7.480e-6
-1.023, 7.497e-6
-1.024, 7.519e-6
-1.025, 7.537e-6
-1.026, 7.556e-6
-1.027, 7.575e-6
-1.028, 7.597e-6
-1.029, 7.618e-6
-1.030, 7.640e-6
-1.031, 7.661e-6
-1.032, 7.682e-6
-1.033, 7.706e-6
-1.034, 7.730e-6
-1.035, 7.755e-6
-1.036, 7.779e-6
-1.037, 7.804e-6
-1.038, 7.829e-6
-1.039, 7.852e-6
-1.040, 7.881e-6
-1.041, 7.907e-6
-1.042, 7.934e-6
-1.043, 7.962e-6
-1.044, 7.991e-6
-1.045, 8.020e-6
-1.046, 8.050e-6
-1.047, 8.077e-6
-1.048, 8.108e-6
-1.049, 8.140e-6
-1.050, 8.173e-6
-1.051, 8.208e-6
-1.052, 8.242e-6
-1.053, 8.275e-6
-1.054, 8.309e-6
-1.055, 8.343e-6
-1.056, 8.378e-6
-1.057, 8.411e-6
-1.058, 8.448e-6
-1.059, 8.485e-6
-1.060, 8.520e-6
-1.061, 8.558e-6
-1.062, 8.594e-6
-1.063, 8.630e-6
-1.064, 8.669e-6
-1.065, 8.711e-6
-1.066, 8.751e-6
-1.067, 8.793e-6
-1.068, 8.834e-6
-1.069, 8.874e-6
-1.070, 8.915e-6
-1.071, 8.957e-6
-1.072, 9.000e-6
-1.073, 9.045e-6
-1.074, 9.085e-6
-1.075, 9.130e-6
-1.076, 9.175e-6
-1.077, 9.220e-6
-1.078, 9.269e-6
-1.079, 9.312e-6
-1.080, 9.357e-6
-1.081, 9.402e-6
-1.082, 9.446e-6
-1.083, 9.495e-6
-1.084, 9.540e-6
-1.085, 9.587e-6
-1.086, 9.636e-6
-1.087, 9.681e-6
-1.088, 9.729e-6
-1.089, 9.776e-6
-1.090, 9.822e-6
-1.091, 9.871e-6
-1.092, 9.918e-6
-1.093, 9.963e-6
-1.094, 1.001e-5
-1.095, 1.006e-5
-1.096, 1.010e-5
-1.097, 1.015e-5
-1.098, 1.019e-5
-1.099, 1.024e-5
-1.100, 1.029e-5
-1.101, 1.033e-5
-1.102, 1.038e-5
-1.103, 1.042e-5
-1.104, 1.047e-5
-1.105, 1.051e-5
-1.106, 1.056e-5
-1.107, 1.060e-5
-1.108, 1.065e-5
-1.109, 1.069e-5
-1.110, 1.073e-5
-1.111, 1.078e-5
-1.112, 1.082e-5
-1.113, 1.086e-5
-1.114, 1.090e-5
-1.115, 1.094e-5
-1.116, 1.098e-5
-1.117, 1.101e-5
-1.118, 1.105e-5
-1.119, 1.109e-5
-1.120, 1.113e-5
-1.121, 1.116e-5
-1.122, 1.120e-5
-1.123, 1.123e-5
-1.124, 1.127e-5
-1.125, 1.130e-5
-1.126, 1.133e-5
-1.127, 1.136e-5
-1.128, 1.139e-5
-1.129, 1.142e-5
-1.130, 1.145e-5
-1.131, 1.148e-5
-1.132, 1.151e-5
-1.133, 1.153e-5
-1.134, 1.156e-5
-1.135, 1.158e-5
-1.136, 1.161e-5
-1.137, 1.163e-5
-1.138, 1.165e-5
-1.139, 1.168e-5
-1.140, 1.170e-5
-1.141, 1.172e-5
-1.142, 1.174e-5
-1.143, 1.176e-5
-1.144, 1.178e-5
-1.145, 1.180e-5
-1.146, 1.181e-5
-1.147, 1.183e-5
-1.148, 1.185e-5
-1.149, 1.186e-5
-1.150, 1.188e-5
-1.151, 1.189e-5
-1.152, 1.191e-5
-1.153, 1.192e-5
-1.154, 1.193e-5
-1.155, 1.195e-5
-1.156, 1.196e-5
-1.157, 1.197e-5
-1.158, 1.198e-5
-1.159, 1.199e-5
-1.160, 1.200e-5
-1.161, 1.201e-5
-1.162, 1.201e-5
-1.163, 1.202e-5
-1.164, 1.203e-5
-1.165, 1.203e-5
-1.166, 1.204e-5
-1.167, 1.205e-5
-1.168, 1.205e-5
-1.169, 1.206e-5
-1.170, 1.207e-5
-1.171, 1.207e-5
-1.172, 1.208e-5
-1.173, 1.208e-5
-1.174, 1.209e-5
-1.175, 1.209e-5
-1.176, 1.210e-5
-1.177, 1.210e-5
-1.178, 1.211e-5
-1.179, 1.211e-5
-1.180, 1.212e-5
-1.181, 1.212e-5
-1.182, 1.213e-5
-1.183, 1.213e-5
-1.184, 1.214e-5
-1.185, 1.214e-5
-1.186, 1.215e-5
-1.187, 1.215e-5
-1.188, 1.215e-5
-1.189, 1.216e-5
-1.190, 1.216e-5
-1.191, 1.217e-5
-1.192, 1.217e-5
-1.193, 1.218e-5
-1.194, 1.218e-5
-1.195, 1.219e-5
-1.196, 1.219e-5
-1.197, 1.219e-5
-1.198, 1.220e-5
-1.199, 1.220e-5
-1.200, 1.221e-5
-1.201, 1.221e-5
-1.202, 1.222e-5
-1.203, 1.223e-5
-1.204, 1.223e-5
-1.205, 1.224e-5
-1.206, 1.224e-5
-1.207, 1.224e-5
-1.208, 1.225e-5
-1.209, 1.225e-5
-1.210, 1.226e-5
-1.211, 1.227e-5
-1.212, 1.227e-5
-1.213, 1.228e-5
-1.214, 1.228e-5
-1.215, 1.229e-5
-1.216, 1.229e-5
-1.217, 1.230e-5
-1.218, 1.230e-5
-1.219, 1.231e-5
-1.220, 1.232e-5
-1.221, 1.232e-5
-1.222, 1.233e-5
-1.223, 1.234e-5
-1.224, 1.235e-5
-1.225, 1.235e-5
-1.226, 1.236e-5
-1.227, 1.237e-5
-1.228, 1.238e-5
-1.229, 1.239e-5
-1.230, 1.239e-5
-1.231, 1.240e-5
-1.232, 1.241e-5
-1.233, 1.242e-5
-1.234, 1.242e-5
-1.235, 1.243e-5
-1.236, 1.244e-5
-1.237, 1.245e-5
-1.238, 1.246e-5
-1.239, 1.247e-5
-1.240, 1.248e-5
-1.241, 1.249e-5
-1.242, 1.250e-5
-1.243, 1.250e-5
-1.244, 1.251e-5
-1.245, 1.252e-5
-1.246, 1.253e-5
-1.247, 1.254e-5
-1.248, 1.255e-5
-1.249, 1.256e-5
-1.250, 1.257e-5
-1.251, 1.258e-5
-1.252, 1.259e-5
-1.253, 1.260e-5
-1.254, 1.261e-5
-1.255, 1.261e-5
-1.256, 1.262e-5
-1.257, 1.264e-5
-1.258, 1.264e-5
-1.259, 1.265e-5
-1.260, 1.267e-5
-1.261, 1.268e-5
-1.262, 1.269e-5
-1.263, 1.270e-5
-1.264, 1.271e-5
-1.265, 1.272e-5
-1.266, 1.274e-5
-1.267, 1.275e-5
-1.268, 1.276e-5
-1.269, 1.277e-5
-1.270, 1.279e-5
-1.271, 1.280e-5
-1.272, 1.281e-5
-1.273, 1.282e-5
-1.274, 1.283e-5
-1.275, 1.284e-5
-1.276, 1.286e-5
-1.277, 1.287e-5
-1.278, 1.288e-5
-1.279, 1.289e-5
-1.280, 1.291e-5
-1.281, 1.293e-5
-1.282, 1.293e-5
-1.283, 1.295e-5
-1.284, 1.296e-5
-1.285, 1.298e-5
-1.286, 1.299e-5
-1.287, 1.300e-5
-1.288, 1.302e-5
-1.289, 1.303e-5
-1.290, 1.304e-5
-1.291, 1.306e-5
-1.292, 1.308e-5
-1.293, 1.309e-5
-1.294, 1.311e-5
-1.295, 1.312e-5
-1.296, 1.313e-5
-1.297, 1.315e-5
-1.298, 1.316e-5
-1.299, 1.318e-5
-1.300, 1.319e-5
-1.301, 1.321e-5
-1.302, 1.322e-5
-1.303, 1.324e-5
-1.304, 1.325e-5
-1.305, 1.327e-5
-1.306, 1.329e-5
-1.307, 1.330e-5
-1.308, 1.332e-5
-1.309, 1.334e-5
-1.310, 1.336e-5
-1.311, 1.338e-5
-1.312, 1.340e-5
-1.313, 1.342e-5
-1.314, 1.344e-5
-1.315, 1.346e-5
-1.316, 1.348e-5
-1.317, 1.350e-5
-1.318, 1.352e-5
-1.319, 1.354e-5
-1.320, 1.356e-5
-1.321, 1.358e-5
-1.322, 1.360e-5
-1.323, 1.363e-5
-1.324, 1.365e-5
-1.325, 1.367e-5
-1.326, 1.370e-5
-1.327, 1.372e-5
-1.328, 1.374e-5
-1.329, 1.376e-5
-1.330, 1.378e-5
-1.331, 1.380e-5
-1.332, 1.383e-5
-1.333, 1.385e-5
-1.334, 1.388e-5
-1.335, 1.390e-5
-1.336, 1.393e-5
-1.337, 1.396e-5
-1.338, 1.398e-5
-1.339, 1.401e-5
-1.340, 1.404e-5
-1.341, 1.407e-5
-1.342, 1.409e-5
-1.343, 1.412e-5
-1.344, 1.414e-5
-1.345, 1.418e-5
-1.346, 1.420e-5
-1.347, 1.423e-5
-1.348, 1.426e-5
-1.349, 1.429e-5
-1.350, 1.432e-5
-1.351, 1.435e-5
-1.352, 1.438e-5
-1.353, 1.441e-5
-1.354, 1.444e-5
-1.355, 1.447e-5
-1.356, 1.450e-5
-1.357, 1.453e-5
-1.358, 1.456e-5
-1.359, 1.459e-5
-1.360, 1.462e-5
-1.361, 1.466e-5
-1.362, 1.469e-5
-1.363, 1.472e-5
-1.364, 1.475e-5
-1.365, 1.479e-5
-1.366, 1.482e-5
-1.367, 1.486e-5
-1.368, 1.490e-5
-1.369, 1.493e-5
-1.370, 1.497e-5
-1.371, 1.500e-5
-1.372, 1.504e-5
-1.373, 1.508e-5
-1.374, 1.511e-5
-1.375, 1.516e-5
-1.376, 1.519e-5
-1.377, 1.523e-5
-1.378, 1.527e-5
-1.379, 1.531e-5
-1.380, 1.534e-5
-1.381, 1.539e-5
-1.382, 1.543e-5
-1.383, 1.548e-5
-1.384, 1.552e-5
-1.385, 1.556e-5
-1.386, 1.560e-5
-1.387, 1.565e-5
-1.388, 1.570e-5
-1.389, 1.574e-5
-1.390, 1.579e-5
-1.391, 1.583e-5
-1.392, 1.587e-5
-1.393, 1.592e-5
-1.394, 1.596e-5
-1.395, 1.602e-5
-1.396, 1.606e-5
-1.397, 1.611e-5
-1.398, 1.616e-5
-1.399, 1.621e-5
-1.400, 1.626e-5
-1.401, 1.631e-5
-1.402, 1.636e-5
-1.403, 1.641e-5
-1.404, 1.647e-5
-1.405, 1.651e-5
-1.406, 1.657e-5
-1.407, 1.662e-5
-1.408, 1.668e-5
-1.409, 1.673e-5
-1.410, 1.679e-5
-1.411, 1.685e-5
-1.412, 1.690e-5
-1.413, 1.696e-5
-1.414, 1.702e-5
-1.415, 1.707e-5
-1.416, 1.713e-5
-1.417, 1.719e-5
-1.418, 1.725e-5
-1.419, 1.731e-5
-1.420, 1.737e-5
-1.421, 1.743e-5
-1.422, 1.748e-5
-1.423, 1.754e-5
-1.424, 1.761e-5
-1.425, 1.767e-5
-1.426, 1.774e-5
-1.427, 1.781e-5
-1.428, 1.788e-5
-1.429, 1.794e-5
-1.430, 1.800e-5
-1.431, 1.807e-5
-1.432, 1.814e-5
-1.433, 1.821e-5
-1.434, 1.827e-5
-1.435, 1.835e-5
-1.436, 1.842e-5
-1.437, 1.849e-5
-1.438, 1.856e-5
-1.439, 1.863e-5
-1.440, 1.871e-5
-1.441, 1.878e-5
-1.442, 1.885e-5
-1.443, 1.894e-5
-1.444, 1.901e-5
-1.445, 1.908e-5
-1.446, 1.916e-5
-1.447, 1.924e-5
-1.448, 1.932e-5
-1.449, 1.941e-5
-1.450, 1.950e-5
-1.451, 1.959e-5
-1.452, 1.967e-5
-1.453, 1.977e-5
-1.454, 1.985e-5
-1.455, 1.993e-5
-1.456, 2.002e-5
-1.457, 2.011e-5
-1.458, 2.021e-5
-1.459, 2.030e-5
-1.460, 2.039e-5
-1.461, 2.048e-5
-1.462, 2.058e-5
-1.463, 2.067e-5
-1.464, 2.077e-5
-1.465, 2.087e-5
-1.466, 2.095e-5
-1.467, 2.105e-5
-1.468, 2.116e-5
-1.469, 2.126e-5
-1.470, 2.136e-5
-1.471, 2.146e-5
-1.472, 2.156e-5
-1.473, 2.168e-5
-1.474, 2.178e-5
-1.475, 2.189e-5
-1.476, 2.200e-5
-1.477, 2.211e-5
-1.478, 2.222e-5
-1.479, 2.233e-5
-1.480, 2.244e-5
-1.481, 2.255e-5
-1.482, 2.267e-5
-1.483, 2.278e-5
-1.484, 2.290e-5
-1.485, 2.303e-5
-1.486, 2.315e-5
-1.487, 2.327e-5
-1.488, 2.340e-5
-1.489, 2.353e-5
-1.490, 2.365e-5
-1.491, 2.377e-5
-1.492, 2.390e-5
-1.493, 2.404e-5
-1.494, 2.418e-5
-1.495, 2.431e-5
-1.496, 2.444e-5
-1.497, 2.458e-5
-1.498, 2.472e-5
-1.499, 2.486e-5
-1.500, 2.500e-5
-1.501, 2.514e-5
-1.502, 2.529e-5
-1.503, 2.543e-5
-1.504, 2.558e-5
-1.505, 2.573e-5
-1.506, 2.587e-5
-1.507, 2.602e-5
-1.508, 2.618e-5
-1.509, 2.634e-5
-1.510, 2.649e-5
-1.511, 2.665e-5
-1.512, 2.681e-5
-1.513, 2.698e-5
-1.514, 2.714e-5
-1.515, 2.731e-5
-1.516, 2.748e-5
-1.517, 2.765e-5
-1.518, 2.782e-5
-1.519, 2.798e-5
-1.520, 2.816e-5
-1.521, 2.834e-5
-1.522, 2.851e-5
-1.523, 2.870e-5
-1.524, 2.887e-5
-1.525, 2.905e-5
-1.526, 2.923e-5
-1.527, 2.941e-5
-1.528, 2.960e-5
-1.529, 2.979e-5
-1.530, 2.998e-5
-1.531, 3.018e-5
-1.532, 3.037e-5
-1.533, 3.058e-5
-1.534, 3.077e-5
-1.535, 3.097e-5
-1.536, 3.118e-5
-1.537, 3.139e-5
-1.538, 3.161e-5
-1.539, 3.183e-5
-1.540, 3.205e-5
-1.541, 3.227e-5
-1.542, 3.249e-5
-1.543, 3.271e-5
-1.544, 3.293e-5
-1.545, 3.316e-5
-1.546, 3.339e-5
-1.547, 3.363e-5
-1.548, 3.385e-5
-1.549, 3.409e-5
-1.550, 3.434e-5
-1.551, 3.459e-5
-1.552, 3.484e-5
-1.553, 3.509e-5
-1.554, 3.534e-5
-1.555, 3.559e-5
-1.556, 3.584e-5
-1.557, 3.610e-5
-1.558, 3.637e-5
-1.559, 3.664e-5
-1.560, 3.691e-5
-1.561, 3.718e-5
-1.562, 3.746e-5
-1.563, 3.775e-5
-1.564, 3.803e-5
-1.565, 3.831e-5
-1.566, 3.860e-5
-1.567, 3.889e-5
-1.568, 3.918e-5
-1.569, 3.948e-5
-1.570, 3.979e-5
-1.571, 4.010e-5
-1.572, 4.040e-5
-1.573, 4.070e-5
-1.574, 4.102e-5
-1.575, 4.134e-5
-1.576, 4.166e-5
-1.577, 4.198e-5
-1.578, 4.231e-5
-1.579, 4.265e-5
-1.580, 4.299e-5
-1.581, 4.334e-5
-1.582, 4.368e-5
-1.583, 4.402e-5
-1.584, 4.438e-5
-1.585, 4.474e-5
-1.586, 4.511e-5
-1.587, 4.548e-5
-1.588, 4.584e-5
-1.589, 4.620e-5
-1.590, 4.656e-5
-1.591, 4.694e-5
-1.592, 4.733e-5
-1.593, 4.772e-5
-1.594, 4.812e-5
-1.595, 4.853e-5
-1.596, 4.893e-5
-1.597, 4.934e-5
-1.598, 4.975e-5
-1.599, 5.017e-5
-1.600, 5.059e-5
-1.601, 5.101e-5
-1.602, 5.144e-5
-1.603, 5.186e-5
-1.604, 5.230e-5
-1.605, 5.276e-5
-1.606, 5.320e-5
-1.607, 5.364e-5
-1.608, 5.411e-5
-1.609, 5.458e-5
-1.610, 5.505e-5
-1.611, 5.553e-5
-1.612, 5.601e-5
-1.613, 5.649e-5
-1.614, 5.698e-5
-1.615, 5.746e-5
-1.616, 5.794e-5
-1.617, 5.845e-5
-1.618, 5.896e-5
-1.619, 5.946e-5
-1.620, 5.997e-5
-1.621, 6.050e-5
-1.622, 6.102e-5
-1.623, 6.155e-5
-1.624, 6.209e-5
-1.625, 6.264e-5
-1.626, 6.319e-5
-1.627, 6.374e-5
-1.628, 6.429e-5
-1.629, 6.486e-5
-1.630, 6.543e-5
-1.631, 6.600e-5
-1.632, 6.658e-5
-1.633, 6.717e-5
-1.634, 6.775e-5
-1.635, 6.836e-5
-1.636, 6.897e-5
-1.637, 6.957e-5
-1.638, 7.019e-5
-1.639, 7.083e-5
-1.640, 7.146e-5
-1.641, 7.209e-5
-1.642, 7.272e-5
-1.643, 7.336e-5
-1.644, 7.400e-5
-1.645, 7.467e-5
-1.646, 7.532e-5
-1.647, 7.597e-5
-1.648, 7.664e-5
-1.649, 7.730e-5
-1.650, 7.798e-5
-1.651, 7.867e-5
-1.652, 7.937e-5
-1.653, 8.007e-5
-1.654, 8.077e-5
-1.655, 8.149e-5
-1.656, 8.220e-5
-1.657, 8.292e-5
-1.658, 8.363e-5
-1.659, 8.436e-5
-1.660, 8.510e-5
-1.661, 8.585e-5
-1.662, 8.659e-5
-1.663, 8.736e-5
-1.664, 8.813e-5
-1.665, 8.889e-5
-1.666, 8.965e-5
-1.667, 9.043e-5
-1.668, 9.121e-5
-1.669, 9.200e-5
-1.670, 9.280e-5
-1.671, 9.358e-5
-1.672, 9.438e-5
-1.673, 9.519e-5
-1.674, 9.600e-5
-1.675, 9.683e-5
-1.676, 9.766e-5
-1.677, 9.848e-5
-1.678, 9.930e-5
-1.679, 1.001e-4
-1.680, 1.010e-4
-1.681, 1.018e-4
-1.682, 1.027e-4
-1.683, 1.035e-4
-1.684, 1.044e-4
-1.685, 1.053e-4
-1.686, 1.061e-4
-1.687, 1.070e-4
-1.688, 1.079e-4
-1.689, 1.088e-4
-1.690, 1.097e-4
-1.691, 1.106e-4
-1.692, 1.115e-4
-1.693, 1.124e-4
-1.694, 1.133e-4
-1.695, 1.142e-4
-1.696, 1.151e-4
-1.697, 1.160e-4
-1.698, 1.169e-4
-1.699, 1.179e-4
-1.700, 1.188e-4
-1.701, 1.198e-4
-1.702, 1.207e-4
-1.703, 1.217e-4
-1.704, 1.226e-4
-1.705, 1.236e-4
-1.706, 1.245e-4
-1.707, 1.255e-4
-1.708, 1.264e-4
-1.709, 1.274e-4
-1.710, 1.284e-4
-1.711, 1.294e-4
-1.712, 1.304e-4
-1.713, 1.314e-4
-1.714, 1.324e-4
-1.715, 1.334e-4
-1.716, 1.345e-4
-1.717, 1.355e-4
-1.718, 1.366e-4
-1.719, 1.376e-4
-1.720, 1.387e-4
-1.721, 1.397e-4
-1.722, 1.408e-4
-1.723, 1.419e-4
-1.724, 1.430e-4
-1.725, 1.441e-4
-1.726, 1.452e-4
-1.727, 1.463e-4
-1.728, 1.475e-4
-1.729, 1.487e-4
-1.730, 1.498e-4
-1.731, 1.510e-4
-1.732, 1.522e-4
-1.733, 1.535e-4
-1.734, 1.547e-4
-1.735, 1.560e-4
-1.736, 1.572e-4
-1.737, 1.586e-4
-1.738, 1.599e-4
-1.739, 1.612e-4
-1.740, 1.626e-4
-1.741, 1.640e-4
-1.742, 1.654e-4
-1.743, 1.668e-4
-1.744, 1.683e-4
-1.745, 1.698e-4
-1.746, 1.714e-4
-1.747, 1.729e-4
-1.748, 1.745e-4
-1.749, 1.762e-4
-1.750, 1.779e-4
-1.751, 1.797e-4
-1.752, 1.815e-4
-1.753, 1.833e-4
-1.754, 1.851e-4
-1.755, 1.870e-4
-1.756, 1.890e-4
-1.757, 1.911e-4
-1.758, 1.931e-4
-1.759, 1.952e-4
-1.760, 1.974e-4
-1.761, 1.997e-4
-1.762, 2.019e-4
-1.763, 2.042e-4
-1.764, 2.066e-4
-1.765, 2.091e-4
-1.766, 2.117e-4
-1.767, 2.144e-4
-1.768, 2.171e-4
-1.769, 2.198e-4
-1.770, 2.227e-4
-1.771, 2.256e-4
-1.772, 2.287e-4
-1.773, 2.318e-4
-1.774, 2.351e-4
-1.775, 2.385e-4
-1.776, 2.420e-4
-1.777, 2.456e-4
-1.778, 2.493e-4
-1.779, 2.531e-4
-1.780, 2.570e-4
-1.781, 2.610e-4
-1.782, 2.651e-4
-1.783, 2.692e-4
-1.784, 2.733e-4
-1.785, 2.775e-4
-1.786, 2.817e-4
-1.787, 2.860e-4
-1.788, 2.903e-4
-1.789, 2.947e-4
-1.790, 2.991e-4
-1.791, 3.035e-4
-1.792, 3.079e-4
-1.793, 3.124e-4
-1.794, 3.170e-4
-1.795, 3.215e-4
-1.796, 3.261e-4
-1.797, 3.307e-4
-1.798, 3.354e-4
-1.799, 3.401e-4
-1.800, 3.449e-4
-1.801, 3.497e-4
-1.802, 3.545e-4
-1.803, 3.593e-4
-1.804, 3.643e-4
-1.805, 3.692e-4
-1.806, 3.742e-4
-1.807, 3.792e-4
-1.808, 3.842e-4
-1.809, 3.894e-4
-1.810, 3.946e-4
-1.811, 3.998e-4
-1.812, 4.050e-4
-1.813, 4.102e-4
-1.814, 4.154e-4
-1.815, 4.208e-4
-1.816, 4.262e-4
-1.817, 4.317e-4
-1.818, 4.372e-4
-1.819, 4.427e-4
-1.820, 4.483e-4
-1.821, 4.539e-4
-1.822, 4.595e-4
-1.823, 4.652e-4
-1.824, 4.710e-4
-1.825, 4.768e-4
-1.826, 4.825e-4
-1.827, 4.883e-4
-1.828, 4.942e-4
-1.829, 5.001e-4
-1.830, 5.061e-4
-1.831, 5.121e-4
-1.832, 5.181e-4
-1.833, 5.241e-4
-1.834, 5.302e-4
-1.835, 5.364e-4
-1.836, 5.426e-4
-1.837, 5.488e-4
-1.838, 5.550e-4
-1.839, 5.613e-4
-1.840, 5.676e-4
-1.841, 5.741e-4
-1.842, 5.805e-4
-1.843, 5.869e-4
-1.844, 5.934e-4
-1.845, 5.999e-4
-1.846, 6.065e-4
-1.847, 6.130e-4
-1.848, 6.196e-4
-1.849, 6.262e-4
-1.850, 6.329e-4
-1.851, 6.396e-4
-1.852, 6.463e-4
-1.853, 6.531e-4
-1.854, 6.599e-4
-1.855, 6.667e-4
-1.856, 6.735e-4
-1.857, 6.804e-4
-1.858, 6.874e-4
-1.859, 6.944e-4
-1.860, 7.013e-4
-1.861, 7.083e-4
-1.862, 7.153e-4
-1.863, 7.224e-4
-1.864, 7.296e-4
-1.865, 7.367e-4
-1.866, 7.438e-4
-1.867, 7.509e-4
-1.868, 7.582e-4
-1.869, 7.654e-4
-1.870, 7.727e-4
-1.871, 7.800e-4
-1.872, 7.873e-4
-1.873, 7.946e-4
-1.874, 8.020e-4
-1.875, 8.093e-4
-1.876, 8.168e-4
-1.877, 8.242e-4
-1.878, 8.316e-4
-1.879, 8.390e-4
-1.880, 8.466e-4
-1.881, 8.541e-4
-1.882, 8.617e-4
-1.883, 8.693e-4
-1.884, 8.769e-4
-1.885, 8.845e-4
-1.886, 8.922e-4
-1.887, 8.998e-4
-1.888, 9.075e-4
-1.889, 9.152e-4
-1.890, 9.229e-4
-1.891, 9.307e-4
-1.892, 9.384e-4
-1.893, 9.462e-4
-1.894, 9.540e-4
-1.895, 9.618e-4
-1.896, 9.696e-4
-1.897, 9.775e-4
-1.898, 9.853e-4
-1.899, 9.930e-4
-1.900, 1.001e-3
-1.901, 1.008e-3
-1.902, 1.011e-3
-1.903, 1.011e-3
-1.904, 1.011e-3
-1.905, 1.011e-3
-1.906, 1.011e-3
-1.907, 1.011e-3
-1.908, 1.011e-3
-1.909, 1.011e-3
-1.910, 1.011e-3
-1.911, 1.011e-3
-1.912, 1.011e-3
-1.913, 1.011e-3
-1.914, 1.011e-3
-1.915, 1.011e-3
-1.916, 1.011e-3
-1.917, 1.011e-3
-1.918, 1.011e-3
-1.919, 1.011e-3
-1.920, 1.011e-3
-1.921, 1.011e-3
-1.922, 1.011e-3
-1.923, 1.011e-3
-1.924, 1.011e-3
-1.925, 1.011e-3
-1.926, 1.011e-3
-1.927, 1.011e-3
-1.928, 1.011e-3
-1.929, 1.011e-3
-1.930, 1.011e-3
-1.931, 1.011e-3
-1.932, 1.011e-3
-1.933, 1.011e-3
-1.934, 1.011e-3
-1.935, 1.011e-3
-1.936, 1.011e-3
-1.937, 1.011e-3
-1.938, 1.011e-3
-1.939, 1.011e-3
-1.940, 1.011e-3
-1.941, 1.011e-3
-1.942, 1.011e-3
-1.943, 1.011e-3
-1.944, 1.011e-3
-1.945, 1.011e-3
-1.946, 1.011e-3
-1.947, 1.011e-3
-1.948, 1.011e-3
-1.949, 1.011e-3
-1.950, 1.011e-3
-1.951, 1.011e-3
-1.952, 1.011e-3
-1.953, 1.011e-3
-1.954, 1.011e-3
-1.955, 1.011e-3
-1.956, 1.011e-3
-1.957, 1.011e-3
-1.958, 1.011e-3
-1.959, 1.011e-3
-1.960, 1.011e-3
-1.961, 1.011e-3
-1.962, 1.011e-3
-1.963, 1.011e-3
-1.964, 1.011e-3
-1.965, 1.011e-3
-1.966, 1.011e-3
-1.967, 1.011e-3
-1.968, 1.011e-3
-1.969, 1.011e-3
-1.970, 1.011e-3
-1.971, 1.011e-3
-1.972, 1.011e-3
-1.973, 1.011e-3
-1.974, 1.011e-3
-1.975, 1.011e-3
-1.976, 1.011e-3
-1.977, 1.011e-3
-1.978, 1.011e-3
-1.979, 1.011e-3
-1.980, 1.011e-3
-1.981, 1.011e-3
-1.982, 1.011e-3
-1.983, 1.011e-3
-1.984, 1.011e-3
-1.985, 1.011e-3
-1.986, 1.011e-3
-1.987, 1.011e-3
-1.988, 1.011e-3
-1.989, 1.011e-3
-1.990, 1.011e-3
-1.991, 1.011e-3
-1.992, 1.011e-3
-1.993, 1.011e-3
-1.994, 1.011e-3
-1.995, 1.011e-3
-1.996, 1.011e-3
-1.997, 1.011e-3
-1.998, 1.011e-3
-1.999, 1.011e-3
-2.000, 1.011e-3
-2.001, 1.011e-3
-2.002, 1.011e-3
-2.003, 1.011e-3
-2.004, 1.011e-3
-2.005, 1.011e-3
-2.006, 1.011e-3
-2.007, 1.011e-3
-2.008, 1.011e-3
-2.009, 1.011e-3
-2.010, 1.011e-3
-2.011, 1.011e-3
-2.012, 1.011e-3
-2.013, 1.011e-3
-2.014, 1.011e-3
-2.015, 1.011e-3
-2.016, 1.011e-3
-2.017, 1.011e-3
-2.018, 1.011e-3
-2.019, 1.011e-3
-2.020, 1.011e-3
-2.021, 1.011e-3
-2.022, 1.011e-3
-2.023, 1.011e-3
-2.024, 1.011e-3
-2.025, 1.011e-3
-2.026, 1.011e-3
-2.027, 1.011e-3
-2.028, 1.011e-3
-2.029, 1.011e-3
-2.030, 1.011e-3
-2.031, 1.011e-3
-2.032, 1.011e-3
-2.033, 1.011e-3
-2.034, 1.011e-3
-2.035, 1.011e-3
-2.036, 1.011e-3
-2.037, 1.011e-3
-2.038, 1.011e-3
-2.039, 1.011e-3
-2.040, 1.011e-3
-2.041, 1.011e-3
-2.042, 1.011e-3
-2.043, 1.011e-3
-2.044, 1.011e-3
-2.045, 1.011e-3
-2.046, 1.011e-3
-2.047, 1.011e-3
-2.048, 1.011e-3
-2.049, 1.011e-3
-2.050, 1.011e-3
-2.051, 1.011e-3
-2.052, 1.011e-3
-2.053, 1.011e-3
-2.054, 1.011e-3
-2.055, 1.011e-3
-2.056, 1.011e-3
-2.057, 1.011e-3
-2.058, 1.011e-3
-2.059, 1.011e-3
-2.060, 1.011e-3
-2.061, 1.011e-3
-2.062, 1.011e-3
-2.063, 1.011e-3
-2.064, 1.011e-3
-2.065, 1.011e-3
-2.066, 1.011e-3
-2.067, 1.011e-3
-2.068, 1.011e-3
-2.069, 1.011e-3
-2.070, 1.011e-3
-2.071, 1.011e-3
-2.072, 1.011e-3
-2.073, 1.011e-3
-2.074, 1.011e-3
-2.075, 1.011e-3
-2.076, 1.011e-3
-2.077, 1.011e-3
-2.078, 1.011e-3
-2.079, 1.011e-3
-2.080, 1.011e-3
-2.081, 1.011e-3
-2.082, 1.011e-3
-2.083, 1.011e-3
-2.084, 1.011e-3
-2.085, 1.011e-3
-2.086, 1.011e-3
-2.087, 1.011e-3
-2.088, 1.011e-3
-2.089, 1.011e-3
-2.090, 1.011e-3
-2.091, 1.011e-3
-2.092, 1.011e-3
-2.093, 1.011e-3
-2.094, 1.011e-3
-2.095, 1.011e-3
-2.096, 1.011e-3
-2.097, 1.011e-3
-2.098, 1.011e-3
-2.099, 1.011e-3
-2.100, 1.011e-3
-2.101, 1.011e-3
-2.102, 1.011e-3
-2.103, 1.011e-3
-2.104, 1.011e-3
-2.105, 1.011e-3
-2.106, 1.011e-3
-2.107, 1.011e-3
-2.108, 1.011e-3
-2.109, 1.011e-3
-2.110, 1.011e-3
-2.111, 1.011e-3
-2.112, 1.011e-3
-2.113, 1.011e-3
-2.114, 1.011e-3
-2.115, 1.011e-3
-2.116, 1.011e-3
-2.117, 1.011e-3
-2.118, 1.011e-3
-2.119, 1.011e-3
-2.120, 1.011e-3
-2.121, 1.011e-3
-2.122, 1.011e-3
-2.123, 1.011e-3
-2.124, 1.011e-3
-2.125, 1.011e-3
-2.126, 1.011e-3
-2.127, 1.011e-3
-2.128, 1.011e-3
-2.129, 1.011e-3
-2.130, 1.011e-3
-2.131, 1.011e-3
-2.132, 1.011e-3
-2.133, 1.011e-3
-2.134, 1.011e-3
-2.135, 1.011e-3
-2.136, 1.011e-3
-2.137, 1.011e-3
-2.138, 1.011e-3
-2.139, 1.011e-3
-2.140, 1.011e-3
-2.141, 1.011e-3
-2.142, 1.011e-3
-2.143, 1.011e-3
-2.144, 1.011e-3
-2.145, 1.011e-3
-2.146, 1.011e-3
-2.147, 1.011e-3
-2.148, 1.011e-3
-2.149, 1.011e-3
-2.150, 1.011e-3
-2.151, 1.011e-3
-2.152, 1.011e-3
-2.153, 1.011e-3
-2.154, 1.011e-3
-2.155, 1.011e-3
-2.156, 1.011e-3
-2.157, 1.011e-3
-2.158, 1.011e-3
-2.159, 1.011e-3
-2.160, 1.011e-3
-2.161, 1.011e-3
-2.162, 1.011e-3
-2.163, 1.011e-3
-2.164, 1.011e-3
-2.165, 1.011e-3
-2.166, 1.011e-3
-2.167, 1.011e-3
-2.168, 1.011e-3
-2.169, 1.011e-3
-2.170, 1.011e-3
-2.171, 1.011e-3
-2.172, 1.011e-3
-2.173, 1.011e-3
-2.174, 1.011e-3
-2.175, 1.011e-3
-2.176, 1.011e-3
-2.177, 1.011e-3
-2.178, 1.011e-3
-2.179, 1.011e-3
-2.180, 1.011e-3
-2.181, 1.011e-3
-2.182, 1.011e-3
-2.183, 1.011e-3
-2.184, 1.011e-3
-2.185, 1.011e-3
-2.186, 1.011e-3
-2.187, 1.011e-3
-2.188, 1.011e-3
-2.189, 1.011e-3
-2.190, 1.011e-3
-2.191, 1.011e-3
-2.192, 1.011e-3
-2.193, 1.011e-3
-2.194, 1.011e-3
-2.195, 1.011e-3
-2.196, 1.011e-3
-2.197, 1.011e-3
-2.198, 1.011e-3
-2.199, 1.011e-3
-2.200, 1.011e-3
-2.201, 1.011e-3
-2.202, 1.011e-3
-2.203, 1.011e-3
-2.204, 1.011e-3
-2.205, 1.011e-3
-2.206, 1.011e-3
-2.207, 1.011e-3
-2.208, 1.011e-3
-2.209, 1.011e-3
-2.210, 1.011e-3
-2.211, 1.011e-3
-2.212, 1.011e-3
-2.213, 1.011e-3
-2.214, 1.011e-3
-2.215, 1.011e-3
-2.216, 1.011e-3
-2.217, 1.011e-3
-2.218, 1.011e-3
-2.219, 1.011e-3
-2.220, 1.011e-3
-2.221, 1.011e-3
-2.222, 1.011e-3
-2.223, 1.011e-3
-2.224, 1.011e-3
-2.225, 1.011e-3
-2.226, 1.011e-3
-2.227, 1.011e-3
-2.228, 1.011e-3
-2.229, 1.011e-3
-2.230, 1.011e-3
-2.231, 1.011e-3
-2.232, 1.011e-3
-2.233, 1.011e-3
-2.234, 1.011e-3
-2.235, 1.011e-3
-2.236, 1.011e-3
-2.237, 1.011e-3
-2.238, 1.011e-3
-2.239, 1.011e-3
-2.240, 1.011e-3
-2.241, 1.011e-3
-2.242, 1.011e-3
-2.243, 1.011e-3
-2.244, 1.011e-3
-2.245, 1.011e-3
-2.246, 1.011e-3
-2.247, 1.011e-3
-2.248, 1.011e-3
-2.249, 1.011e-3
-2.250, 1.011e-3
-2.251, 1.011e-3
-2.252, 1.011e-3
-2.253, 1.011e-3
-2.254, 1.011e-3
-2.255, 1.011e-3
-2.256, 1.011e-3
-2.257, 1.011e-3
-2.258, 1.011e-3
-2.259, 1.011e-3
-2.260, 1.011e-3
-2.261, 1.011e-3
-2.262, 1.011e-3
-2.263, 1.011e-3
-2.264, 1.011e-3
-2.265, 1.011e-3
-2.266, 1.011e-3
-2.267, 1.011e-3
-2.268, 1.011e-3
-2.269, 1.011e-3
-2.270, 1.011e-3
-2.271, 1.011e-3
-2.272, 1.011e-3
-2.273, 1.011e-3
-2.274, 1.011e-3
-2.275, 1.011e-3
-2.276, 1.011e-3
-2.277, 1.011e-3
-2.278, 1.011e-3
-2.279, 1.011e-3
-2.280, 1.011e-3
-2.281, 1.011e-3
-2.282, 1.011e-3
-2.283, 1.011e-3
-2.284, 1.011e-3
-2.285, 1.011e-3
-2.286, 1.011e-3
-2.287, 1.011e-3
-2.288, 1.011e-3
-2.289, 1.011e-3
-2.290, 1.011e-3
-2.291, 1.011e-3
-2.292, 1.011e-3
-2.293, 1.011e-3
-2.294, 1.011e-3
-2.295, 1.011e-3
-2.296, 1.011e-3
-2.297, 1.011e-3
-2.298, 1.011e-3
-2.299, 1.011e-3
