Potential V vs RHE, Current mA cm-2
0.013299999999999867,0.3031726315610774
0.012299999999999978,-1.0490084288499246
0.011299999999999866,-2.4446211261667834
0.010299999999999976,-3.7532290785419424
0.009299999999999864,-5.149549131508733
0.008299999999999974,-6.414301033588076
0.007299999999999862,-7.7653503249591855
0.006299999999999972,-8.725939297567548
0.00529999999999986,-9.59740145828441
0.0042999999999999705,-10.164700689530287
0.0032999999999998586,-10.601846481188586
0.0022999999999999687,-10.863568071663616
0.0012999999999998568,-11.343155202317865
0.00029999999999996696,-11.82274233297211
-0.000700000000000145,-12.432482903213943
-0.0017000000000000348,-13.13135028534727
-0.0027000000000001467,-13.872659006476551
-0.0037000000000000366,-14.401761032626075
-0.0047000000000001485,-14.783733083589633
-0.005700000000000038,-14.967645552572087
-0.00670000000000015,-15.05252823056399
-0.00770000000000004,-15.01008689156804
-0.008700000000000152,-15.179852247551842
-0.009700000000000042,-15.3920589425316
-0.010700000000000154,-15.830619445489761
-0.011700000000000044,-16.269179948447924
-0.012700000000000156,-16.792623129397985
-0.013700000000000045,-17.103859615368293
-0.014700000000000157,-17.316066310348052
-0.015700000000000047,-17.316066310348052
-0.01670000000000016,-17.188742293360193
-0.01770000000000005,-17.061418276372343
-0.01870000000000016,-17.018976937376394
-0.01970000000000005,-17.061418276372343
-0.020700000000000163,-17.316066310348052
-0.021700000000000053,-17.627302796318357
-0.022700000000000164,-17.966833508285966
-0.023700000000000054,-18.19318731626437
-0.024700000000000166,-18.320511333252224
-0.025700000000000056,-18.19318731626437
-0.026700000000000168,-18.06586329927652
-0.027700000000000058,-17.797068152302163
-0.02870000000000017,-17.75462681330621
-0.02970000000000006,-17.75462681330621
-0.03070000000000017,-18.06586329927652
-0.03170000000000006,-18.320511333252224
-0.03270000000000017,-18.759071836210385
-0.03370000000000006,-18.97127853119014
-0.034700000000000175,-19.112749661176647
-0.035700000000000065,-18.97127853119014
-0.03670000000000018,-18.88639585319824
-0.03770000000000007,-18.589306480226583
-0.03870000000000018,-18.49027668923603
-0.03970000000000007,-18.49027668923603
-0.04070000000000018,-18.759071836210385
-0.04170000000000007,-19.01371987018609
-0.04270000000000018,-19.367397695152352
-0.04370000000000007,-19.537163051136158
-0.044700000000000184,-19.537163051136158
-0.045700000000000074,-19.409839034148305
-0.046700000000000186,-19.2400736781645
-0.047700000000000076,-18.92883719219419
-0.04870000000000019,-18.759071836210385
-0.04970000000000008,-18.80151317520634
-0.05070000000000019,-18.97127853119014
-0.05170000000000008,-19.2400736781645
-0.05270000000000019,-19.579604390132108
-0.05370000000000008,-19.805958198110513
-0.05470000000000019,-19.848399537106463
-0.05570000000000008,-19.721075520118614
-0.056700000000000195,-19.537163051136158
-0.057700000000000085,-19.2400736781645
-0.058700000000000196,-19.197632339168546
-0.059700000000000086,-19.2400736781645
-0.0607000000000002,-19.452280373144255
-0.06170000000000009,-19.721075520118614
-0.0627000000000002,-20.10304757108217
-0.06370000000000009,-20.244518701068674
-0.0647000000000002,-20.329401379060574
-0.06570000000000009,-20.244518701068674
-0.0667000000000002,-20.06060623208622
-0.0677000000000001,-19.763516859114564
-0.0687000000000002,-19.721075520118614
-0.0697000000000001,-19.721075520118614
-0.07070000000000021,-19.848399537106463
-0.0717000000000001,-20.10304757108217
-0.07270000000000021,-20.499166735044383
-0.0737000000000001,-20.626490752032236
-0.07470000000000021,-20.72552054302279
-0.0757000000000001,-20.584049413036283
-0.07670000000000021,-20.371842718056527
-0.0777000000000001,-20.10304757108217
-0.07870000000000021,-20.01816489309027
-0.0797000000000001,-20.06060623208622
-0.08070000000000022,-20.244518701068674
-0.0817000000000001,-20.541608074040333
-0.08270000000000022,-20.93772723800254
-0.08370000000000011,-21.149933932982297
-0.08470000000000022,-21.248963723972853
-0.08570000000000011,-21.2065223849769
-0.08670000000000022,-21.022609915994444
-0.08770000000000011,-20.810403221014692
-0.08870000000000022,-20.72552054302279
-0.08970000000000011,-20.76796188201874
-0.09070000000000022,-21.065051254990397
-0.09170000000000011,-21.333846401964752
-0.09270000000000023,-21.729965565926964
-0.09370000000000012,-21.94217226090672
-0.09470000000000023,-22.027054938898623
-0.09570000000000012,-21.857289582914817
-0.09670000000000023,-21.729965565926964
-0.09770000000000012,-21.461170418952605
-0.09870000000000023,-21.376287740960702
-0.09970000000000012,-21.376287740960702
-0.10070000000000023,-21.67337711393236
-0.10170000000000012,-21.899730921910766
-0.10270000000000024,-22.253408746877028
-0.10370000000000013,-22.42317410286083
-0.10470000000000024,-22.508056780852733
-0.10570000000000013,-22.33829142486893
-0.10670000000000024,-22.196820294882425
-0.10770000000000013,-21.94217226090672
-0.10870000000000024,-21.814848243918867
-0.10970000000000013,-21.857289582914817
-0.11070000000000024,-22.111937616890522
-0.11170000000000013,-22.33829142486893
-0.11270000000000002,-22.72026347583249
-0.11370000000000013,-22.989058622806844
-0.11470000000000002,-23.031499961802798
-0.11570000000000014,-22.989058622806844
-0.11670000000000003,-22.861734605818995
-0.11770000000000014,-22.63538079784059
-0.11870000000000003,-22.550498119848687
-0.11970000000000014,-22.63538079784059
-0.12070000000000003,-22.904175944814945
-0.12170000000000014,-23.2012653177866
-0.12270000000000003,-23.639825820744765
-0.12370000000000014,-23.908620967719123
-0.12470000000000003,-23.993503645711023
-0.12570000000000014,-23.951062306715073
-0.12670000000000003,-23.823738289727217
-0.12770000000000015,-23.55494314275286
-0.12870000000000004,-23.47006046476096
-0.12970000000000015,-23.55494314275286
-0.13070000000000004,-23.86617962872317
-0.13170000000000015,-24.120827662698876
-0.13270000000000004,-24.559388165657033
-0.13370000000000015,-24.771594860636792
-0.13470000000000004,-24.814036199632742
-0.13570000000000015,-24.686712182644893
-0.13670000000000004,-24.559388165657033
-0.13770000000000016,-24.24815167968673
-0.13870000000000005,-24.20571034069078
-0.13970000000000016,-24.24815167968673
-0.14070000000000005,-24.474505487665134
-0.14170000000000016,-24.870624651627345
-0.14270000000000005,-25.252596702590903
-0.14370000000000016,-25.478950510569312
-0.14470000000000005,-25.60627452755716
-0.14570000000000016,-25.521391849565262
-0.14670000000000005,-25.39406783257741
-0.14770000000000016,-25.167714024599
-0.14870000000000005,-25.167714024599
-0.14970000000000017,-25.252596702590903
-0.15070000000000006,-25.521391849565262
-0.15170000000000017,-25.86092256153287
-0.15270000000000006,-26.29948306449103
-0.15370000000000017,-26.525836872469437
-0.15470000000000006,-26.65316088945729
-0.15570000000000017,-26.61071955046134
-0.15670000000000006,-26.483395533473487
-0.15770000000000017,-26.29948306449103
-0.15870000000000006,-26.257041725495082
-0.15970000000000018,-26.29948306449103
-0.16070000000000007,-26.65316088945729
-0.16170000000000018,-26.9643973754276
-0.16270000000000007,-27.38881076538711
-0.16370000000000018,-27.615164573365515
-0.16470000000000007,-27.78492992934932
-0.16570000000000018,-27.65760591236147
-0.16670000000000007,-27.572723234369565
-0.16770000000000018,-27.34636942639116
-0.16870000000000007,-27.303928087395207
-0.16970000000000018,-27.34636942639116
-0.17070000000000007,-27.615164573365515
-0.17170000000000019,-27.912253946337174
-0.17270000000000008,-28.308373110299385
-0.1737000000000002,-28.577168257273744
-0.17470000000000008,-28.662050935265643
-0.1757000000000002,-28.577168257273744
-0.17670000000000008,-28.478138466283188
-0.1777000000000002,-28.308373110299385
-0.17870000000000008,-28.22349043230748
-0.1797000000000002,-28.350814449295335
-0.18070000000000008,-28.662050935265643
-0.1817000000000002,-28.959140308237306
-0.18270000000000008,-29.39770081119546
-0.1837000000000002,-29.708937297165768
-0.1847000000000001,-29.836261314153624
-0.1857000000000002,-29.793819975157668
-0.1867000000000001,-29.751378636161718
-0.1877000000000002,-29.581613280177915
-0.1887000000000001,-29.525024828183312
-0.1897000000000002,-29.66649595816982
-0.1907000000000001,-30.04846800913338
-0.1917000000000001,-30.402145834099635
-0.19269999999999998,-31.010471693041605
-0.1937000000000001,-31.49147353499572
-0.19469999999999998,-31.802710020966025
-0.1957000000000001,-31.930034037953877
-0.19669999999999999,-32.01491671594578
-0.1977000000000001,-31.84515135996197
-0.1987,-31.84515135996197
-0.1997000000000001,-31.972475376949827
-0.2007,-32.283711862920136
-0.2017000000000001,-32.53835989689585
-0.2027,-32.97692039985401
-0.2037000000000001,-33.18912709483376
-0.2047,-33.18912709483376
-0.2057000000000001,-33.06180307784591
-0.2067,-32.892037721862096
-0.2077000000000001,-32.53835989689585
-0.2087,-32.41103587990799
-0.2097000000000001,-32.41103587990799
-0.2107,-32.58080123589179
-0.2117000000000001,-32.892037721862096
-0.2127,-33.288156885824314
-0.2137000000000001,-33.58524625879597
-0.2147,-33.755011614779775
-0.2157000000000001,-33.85404140577033
-0.2167,-33.755011614779775
-0.21770000000000012,-33.670128936787876
-0.2187,-33.755011614779775
-0.21970000000000012,-34.10868943974604
-0.2207,-34.50480860370825
-0.22170000000000012,-35.07069312365426
-0.2227,-35.636577643600276
-0.22370000000000012,-35.99025546856653
-0.2247,-36.28734484153819
-0.22570000000000012,-36.28734484153819
-0.2267,-36.28734484153819
-0.22770000000000012,-36.20246216354629
-0.22870000000000001,-36.244903502542236
-0.22970000000000013,-36.37222751953009
-0.23070000000000002,-36.6834640055004
-0.23170000000000013,-36.99470049147071
-0.23270000000000002,-37.334231203438314
-0.23370000000000013,-37.47570233342482
-0.23470000000000002,-37.60302635041268
-0.23570000000000013,-37.47570233342482
-0.23670000000000002,-37.376672542434264
-0.2376999999999999,-37.249348525446415
-0.23870000000000002,-37.249348525446415
-0.2396999999999999,-37.334231203438314
-0.24070000000000003,-37.73035036740053
-0.24169999999999991,-38.08402819236679
-0.24270000000000003,-38.607471373316855
-0.24369999999999992,-39.130914554266916
-0.24470000000000003,-39.47044526623452
-0.24569999999999992,-39.696799074212926
-0.24670000000000003,-39.95144710818864
-0.24769999999999992,-40.03632978618054
-0.24870000000000003,-40.30512493315489
-0.24969999999999992,-40.701244097117105
-0.25070000000000003,-41.267128617063115
-0.2516999999999999,-41.87545447600508
-0.25270000000000004,-42.4413389959511
-0.2536999999999999,-42.87989949890926
-0.25470000000000004,-43.134547532884966
-0.2556999999999999,-43.17698887188092
-0.25670000000000004,-43.17698887188092
-0.25769999999999993,-43.04966485489307
-0.25870000000000004,-43.04966485489307
-0.25969999999999993,-43.27601866287147
-0.26070000000000004,-43.61554937483908
-0.26169999999999993,-44.011668538801295
-0.26270000000000004,-44.535111719751356
-0.26369999999999993,-44.88878954471762
-0.26470000000000005,-45.10099623969737
-0.26569999999999994,-45.18587891768927
-0.26670000000000005,-45.27076159568118
-0.26769999999999994,-45.22832025668522
-0.26870000000000005,-45.36979138667173
-0.26969999999999994,-45.666880759643384
-0.27070000000000005,-46.10544126260155
-0.27169999999999994,-46.501560426563756
-0.27270000000000005,-47.10988628550572
-0.27369999999999994,-47.46356411047198
-0.27470000000000006,-47.633329466455784
-0.27569999999999995,-47.67577080545174
-0.27670000000000006,-47.633329466455784
-0.27769999999999995,-47.40697565847737
-0.27870000000000006,-47.36453431948143
-0.27969999999999995,-47.46356411047198
-0.28070000000000006,-47.633329466455784
-0.28169999999999995,-47.93041883942744
-0.28270000000000006,-48.32653800338966
-0.28369999999999995,-48.51045047237211
-0.28470000000000006,-48.51045047237211
-0.28569999999999995,-48.41142068138156
-0.28670000000000007,-48.1992139864018
-0.28769999999999996,-47.93041883942744
-0.28870000000000007,-47.84553616143554
-0.28969999999999996,-47.987007291422046
-0.29070000000000007,-48.156772647405845
-0.29169999999999996,-48.55289181136806
-0.29270000000000007,-48.93486386233162
-0.29369999999999996,-49.16121767031002
-0.2947000000000001,-49.28854168729788
-0.29569999999999996,-49.20365900930597
-0.2967000000000001,-49.076334992318124
-0.29769999999999996,-48.80753984534376
-0.2987000000000001,-48.72265716735186
-0.29969999999999997,-48.76509850634781
-0.3007000000000001,-49.03389365332217
-0.30169999999999997,-49.28854168729788
-0.3027000000000001,-49.642219512264134
-0.30369999999999997,-49.642219512264134
-0.3047000000000001,-49.642219512264134
-0.30569999999999997,-49.373424365289786
-0.3067000000000001,-49.03389365332217
-0.3077,-48.63777448935996
-0.3087000000000001,-48.36897934238561
-0.3097,-48.1992139864018
-0.3107000000000001,-48.2840966643937
-0.3117,-48.36897934238561
-0.3127000000000001,-48.51045047237211
-0.3137,-48.55289181136806
-0.3147000000000001,-48.36897934238561
-0.3157,-48.071889969413945
-0.3167000000000001,-47.71821214444768
-0.3177,-47.27965164148953
-0.3187000000000001,-46.94012092952192
-0.3197,-46.79864979953541
-0.3207000000000001,-46.79864979953541
-0.3217,-46.84109113853137
-0.3227000000000001,-46.88353247752732
-0.3237,-46.94012092952192
-0.3247000000000001,-46.75620846053947
-0.3257,-46.41667774857186
-0.3267000000000001,-46.062999923605595
-0.3277,-45.581998081651484
-0.3287000000000001,-45.22832025668522
-0.3297,-45.05855490070142
-0.3307000000000001,-45.01611356170547
-0.3317,-44.97367222270952
-0.3327000000000001,-45.10099623969737
-0.3337,-45.05855490070142
-0.3347000000000001,-44.93123088371356
-0.3357,-44.619994397743255
-0.3367000000000001,-44.36534636376755
-0.3377,-43.88434452181344
-0.3387000000000001,-43.657990713835034
-0.3397,-43.57310803584313
-0.3407000000000001,-43.70043205283099
-0.3417,-43.79946184382153
-0.3427000000000001,-44.138992555789144
-0.3437,-44.223875233781044
-0.3447000000000001,-44.181433894785094
-0.3457,-44.054109877797245
-0.3467000000000001,-43.84190318281749
-0.3477,-43.48822535785123
-0.3487000000000001,-43.40334267985933
-0.3497,-43.44578401885527
-0.3507000000000001,-43.61554937483908
-0.3517,-43.88434452181344
-0.3527000000000001,-44.3229050247716
-0.3537,-44.577553058747306
-0.3547000000000001,-44.66243573673921
-0.3557,-44.66243573673921
-0.35670000000000013,-44.619994397743255
-0.3577,-44.4926703807554
-0.35870000000000013,-44.577553058747306
-0.3597,-44.84634820572166
-0.36070000000000013,-45.22832025668522
-0.3617,-45.75176343763528
-0.3626999999999999,-46.3176479575813
-0.3637,-46.79864979953541
-0.3646999999999999,-47.19476896349763
-0.3657,-47.40697565847737
-0.3666999999999999,-47.633329466455784
-0.3677,-47.80309482243959
-0.3686999999999999,-48.114331308409895
-0.36970000000000003,-48.51045047237211
-0.3706999999999999,-49.118776331314066
-0.37170000000000003,-49.81198486824794
-0.3726999999999999,-50.547634744177756
-0.37370000000000003,-51.21254905511432
-0.3746999999999999,-51.73599223606439
-0.37570000000000003,-52.033081609036046
-0.3766999999999999,-52.34431809500636
-0.37770000000000004,-52.514083450990164
-0.3786999999999999,-52.82531993696047
-0.37970000000000004,-53.16485064892808
-0.3806999999999999,-53.82976495986464
-0.38170000000000004,-54.43809081880661
-0.38269999999999993,-55.13129935574048
-0.38370000000000004,-55.7820665536784
-0.38469999999999993,-56.30550973462846
-0.38570000000000004,-56.61674622059877
-0.38669999999999993,-56.88554136757313
-0.38770000000000004,-57.097748062552874
-0.38869999999999993,-57.45142588751914
-0.38970000000000005,-58.017310407465146
-0.39069999999999994,-58.79540162239092
-0.39170000000000005,-59.6300812893113
-0.39269999999999994,-60.54964363422357
-0.39370000000000005,-61.455058866137186
-0.39469999999999994,-62.16241451606972
-0.39570000000000005,-62.68585769701977
-0.39669999999999994,-63.15271242597524
-0.39770000000000005,-63.54883158993744
-0.39869999999999994,-64.15715744887942
-0.39970000000000006,-64.90695443780788
-0.40069999999999995,-65.82651678272015
-0.40170000000000006,-66.68949067563783
-0.40269999999999995,-67.73637703753796
-0.40370000000000006,-68.57105670445833
-0.40469999999999995,-69.26426524139221
-0.40570000000000006,-69.74526708334632
-0.40669999999999995,-70.26871026429637
-0.40770000000000006,-70.62238808926263
-0.40869999999999995,-71.18827260920865
-0.40970000000000006,-71.92392248513846
-0.41069999999999995,-72.84348483005074
-0.41170000000000007,-73.76304717496302
-0.41269999999999996,-74.80993353686314
-0.41370000000000007,-75.63046609078486
-0.41469999999999996,-76.29538040172143
-0.41570000000000007,-76.81882358267148
-0.41669999999999996,-77.28567831162695
-0.41770000000000007,-77.63935613659322
-0.41869999999999996,-78.24768199553519
-0.4197000000000001,-79.0399203234596
-0.42069999999999996,-80.00192400736783
-0.4217000000000001,-81.04881036926795
-0.42269999999999996,-82.22302074815593
-0.4237000000000001,-83.18502443206415
-0.42469999999999997,-83.96311564698992
-0.4257000000000001,-84.6563241839238
-0.42669999999999997,-85.36367983385631
-0.4277000000000001,-85.92956435380233
-0.42869999999999997,-86.7076555687281
-0.4297000000000001,-87.66965925263632
-0.43069999999999997,-88.71654561453644
-0.4317000000000001,-89.94734444541903
-0.4327,-91.16399616330297
-0.4337000000000001,-92.12599984721119
-0.4347,-93.08800353111941
-0.4357000000000001,-93.86609474604518
-0.4367,-94.5168619439831
-0.4377000000000001,-95.30910027190752
-0.4387,-96.21451550382113
-0.4397000000000001,-97.21896052672531
-0.4407,-98.40731801861195
-0.4417000000000001,-99.58152839749994
-0.4427,-100.79818011538387
-0.4437000000000001,-101.80262513828804
-0.4447,-102.76462882219626
-0.4457000000000001,-103.54272003712204
-0.4467,-104.2925170260505
-0.4477000000000001,-105.02816690198033
-0.4487,-105.94772924689259
-0.4497000000000001,-106.86729159180487
-0.4507,-108.04150197069285
-0.4517000000000001,-109.25815368857677
-0.4527,-110.48895251945936
-0.4537000000000001,-111.7056042373433
-0.4547,-112.75249059924342
-0.4557000000000001,-113.53058181416918
-0.4567,-114.3228201420936
-0.4577000000000001,-115.01602867902749
-0.4587,-115.76582566795594
-0.4597000000000001,-116.62879956087362
-0.4607,-117.71812726176971
-0.4617000000000001,-118.72257228467387
-0.4627,-119.769458646574
-0.4637000000000001,-120.73146233048222
-0.4647,-121.56614199740261
-0.4657000000000001,-122.34423321232836
-0.4667,-123.2213542182447
-0.4677000000000001,-124.26824058014482
-0.4687,-125.5273336370247
-0.4697000000000001,-126.9278978238911
-0.4707,-128.37090334975343
-0.4717000000000001,-129.7148790846252
-0.4727,-131.07300193249566
-0.4737000000000001,-132.2896536503796
-0.4747,-133.46386402926754
-0.4757000000000001,-134.6097801821582
-0.4767,-135.82643190004217
-0.4777000000000001,-136.91575960093826
-0.4787,-138.04752864083028
-0.4797000000000001,-139.1792976807223
-0.4807,-140.22618404262244
-0.48170000000000013,-141.14574638753473
-0.4827,-142.17848563643616
-0.48370000000000013,-143.16878354634173
-0.4847,-143.87613919627424
-0.48570000000000013,-144.58349484620675
-0.4867,-144.01761032626072
-0.48570000000000013,-141.3721001955131
-0.4847,-139.05197366373446
-0.48370000000000013,-137.08552495692206
-0.4827,-135.34543005808808
-0.48170000000000013,-133.77510051523788
-0.4807,-132.47356611936203
-0.4797000000000001,-131.15788461048754
-0.4787,-129.98367423159957
-0.4777000000000001,-128.71043406172103
-0.4767,-127.4088996658452
-0.4757000000000001,-126.00833547897882
-0.4747,-124.87656643908679
-0.4737000000000001,-123.78723873819072
-0.4727,-122.86767639327843
-0.4717000000000001,-122.0471438393567
-0.4707,-121.2549055114323
-0.4697000000000001,-120.29290182752408
-0.4687,-119.2884568046199
-0.4677000000000001,-117.98692240874406
-0.4667,-116.62879956087362
-0.4657000000000001,-115.15749980901398
-0.4647,-113.79937696114357
