Potential V vs RHE, Current mA cm-2
0.013299999999999867,0.5647527509061226
0.012299999999999978,-1.0925815368857679
0.011299999999999866,-2.576189277054232
0.010299999999999976,-4.0588067193127895
0.009299999999999864,-5.5414241615713475
0.008299999999999974,-6.93774421453814
0.007299999999999862,-8.288793505909249
0.006299999999999972,-9.685113558876042
0.00529999999999986,-10.775855971071984
0.0042999999999999705,-11.82274233297211
0.0032999999999998586,-12.73806054398479
0.0022999999999999687,-13.567081365705702
0.0012999999999998568,-14.217848563643619
0.00029999999999996696,-14.783733083589633
-0.000700000000000145,-15.307176264539699
-0.0017000000000000348,-15.87306078448571
-0.0027000000000001467,-16.396503965435777
-0.0037000000000000366,-16.919947146385837
-0.0047000000000001485,-17.4433903273359
-0.005700000000000038,-18.23562865526032
-0.00670000000000015,-18.80151317520634
-0.00770000000000004,-19.452280373144255
-0.008700000000000152,-20.10304757108217
-0.009700000000000042,-20.626490752032236
-0.010700000000000154,-21.2065223849769
-0.011700000000000044,-21.54605309694451
-0.012700000000000156,-21.814848243918867
-0.013700000000000045,-22.027054938898623
-0.014700000000000157,-22.15437895588647
-0.015700000000000047,-22.196820294882425
-0.01670000000000016,-22.33829142486893
-0.01770000000000005,-22.508056780852733
-0.01870000000000016,-22.592939458844636
-0.01970000000000005,-22.861734605818995
-0.020700000000000163,-23.2012653177866
-0.021700000000000053,-23.55494314275286
-0.022700000000000164,-23.908620967719123
-0.023700000000000054,-24.24815167968673
-0.024700000000000166,-24.559388165657033
-0.025700000000000056,-24.814036199632742
-0.026700000000000168,-24.95550732961925
-0.027700000000000058,-24.95550732961925
-0.02870000000000017,-24.997948668615198
-0.02970000000000006,-24.997948668615198
-0.03070000000000017,-24.870624651627345
-0.03170000000000006,-24.870624651627345
-0.03270000000000017,-24.814036199632742
-0.03370000000000006,-24.814036199632742
-0.034700000000000175,-25.04039000761115
-0.035700000000000065,-25.252596702590903
-0.03670000000000018,-25.478950510569312
-0.03770000000000007,-25.73359854454502
-0.03870000000000018,-26.129717708507226
-0.03970000000000007,-26.34192440348698
-0.04070000000000018,-26.568278211465387
-0.04170000000000007,-26.65316088945729
-0.04270000000000018,-26.65316088945729
-0.04370000000000007,-26.65316088945729
-0.044700000000000184,-26.568278211465387
-0.045700000000000074,-26.440954194477534
-0.046700000000000186,-26.38436574248293
-0.047700000000000076,-26.29948306449103
-0.04870000000000019,-26.34192440348698
-0.04970000000000008,-26.483395533473487
-0.05070000000000019,-26.738043567449193
-0.05170000000000008,-26.907808923433
-0.05270000000000019,-27.091721392415455
-0.05370000000000008,-27.487840556377662
-0.05470000000000019,-27.615164573365515
-0.05570000000000008,-27.78492992934932
-0.056700000000000195,-27.742488590353368
-0.057700000000000085,-27.742488590353368
-0.058700000000000196,-27.65760591236147
-0.059700000000000086,-27.572723234369565
-0.0607000000000002,-27.34636942639116
-0.06170000000000009,-27.219045409403304
-0.0627000000000002,-27.219045409403304
-0.06370000000000009,-27.176604070407354
-0.0647000000000002,-27.261486748399253
-0.06570000000000009,-27.43125210438306
-0.0667000000000002,-27.572723234369565
-0.0677000000000001,-27.78492992934932
-0.0687000000000002,-28.09616641531963
-0.0697000000000001,-28.265931771303435
-0.07070000000000021,-28.435697127287238
-0.0717000000000001,-28.350814449295335
-0.07270000000000021,-28.435697127287238
-0.0737000000000001,-28.350814449295335
-0.07470000000000021,-28.265931771303435
-0.0757000000000001,-28.05372507632368
-0.07670000000000021,-28.011283737327723
-0.0777000000000001,-27.954695285333123
-0.07870000000000021,-27.912253946337174
-0.0797000000000001,-28.09616641531963
-0.08070000000000022,-28.265931771303435
-0.0817000000000001,-28.435697127287238
-0.08270000000000022,-28.746933613257543
-0.08370000000000011,-29.100611438223805
-0.08470000000000022,-29.22793545521166
-0.08570000000000011,-29.35525947219951
-0.08670000000000022,-29.482583489187363
-0.08770000000000011,-29.482583489187363
-0.08870000000000022,-29.482583489187363
-0.08970000000000011,-29.35525947219951
-0.09070000000000022,-29.18549411621571
-0.09170000000000011,-29.14305277721976
-0.09270000000000023,-29.100611438223805
-0.09370000000000012,-29.100611438223805
-0.09470000000000023,-29.18549411621571
-0.09570000000000012,-29.39770081119546
-0.09670000000000023,-29.62405461917387
-0.09770000000000012,-29.878702653149578
-0.09870000000000023,-30.189939139119886
-0.09970000000000012,-30.359704495103685
-0.10070000000000023,-30.444587173095588
-0.10170000000000012,-30.571911190083444
-0.10270000000000024,-30.529469851087494
-0.10370000000000013,-30.402145834099635
-0.10470000000000024,-30.274821817111786
-0.10570000000000013,-30.147497800123933
-0.10670000000000024,-30.10505646112798
-0.10770000000000013,-30.04846800913338
-0.10870000000000024,-30.04846800913338
-0.10970000000000013,-30.147497800123933
-0.11070000000000024,-30.359704495103685
-0.11170000000000013,-30.614352529079397
-0.11270000000000002,-30.8407063370578
-0.11370000000000013,-31.095354371033505
-0.11470000000000002,-31.321708179011907
-0.11570000000000014,-31.49147353499572
-0.11670000000000003,-31.57635621298762
-0.11770000000000014,-31.57635621298762
-0.11870000000000003,-31.57635621298762
-0.11970000000000014,-31.449032195999767
-0.12070000000000003,-31.40659085700382
-0.12170000000000014,-31.40659085700382
-0.12270000000000003,-31.40659085700382
-0.12370000000000014,-31.40659085700382
-0.12470000000000003,-31.57635621298762
-0.12570000000000014,-31.887592698957924
-0.12670000000000003,-32.09979939393769
-0.12770000000000015,-32.41103587990799
-0.12870000000000004,-32.70812525287965
-0.12970000000000015,-32.93447906085806
-0.13070000000000004,-33.14668575583781
-0.13170000000000015,-33.231568433829715
-0.13270000000000004,-33.231568433829715
-0.13370000000000015,-33.18912709483376
-0.13470000000000004,-33.14668575583781
-0.13570000000000015,-33.06180307784591
-0.13670000000000004,-33.06180307784591
-0.13770000000000016,-33.06180307784591
-0.13870000000000005,-33.01936173884996
-0.13970000000000016,-33.231568433829715
-0.14070000000000005,-33.41548090281216
-0.14170000000000016,-33.670128936787876
-0.14270000000000005,-33.89648274476628
-0.14370000000000016,-34.236013456733886
-0.14470000000000005,-34.462367264712285
-0.14570000000000016,-34.67457395969205
-0.14670000000000005,-34.75945663768395
-0.14770000000000016,-34.75945663768395
-0.14870000000000005,-34.75945663768395
-0.14970000000000017,-34.75945663768395
-0.15070000000000006,-34.632132620696105
-0.15170000000000017,-34.632132620696105
-0.15270000000000006,-34.58969128170015
-0.15370000000000017,-34.67457395969205
-0.15470000000000006,-34.8018979766799
-0.15570000000000017,-35.11313446265021
-0.15670000000000006,-35.32534115762997
-0.15770000000000017,-35.594136304604326
-0.15870000000000006,-36.03269680756248
-0.15970000000000018,-36.244903502542236
-0.16070000000000007,-36.5136986495166
-0.16170000000000018,-36.5985813275085
-0.16270000000000007,-36.5985813275085
-0.16370000000000018,-36.6834640055004
-0.16470000000000007,-36.64102266650445
-0.16570000000000018,-36.55613998851254
-0.16670000000000007,-36.55613998851254
-0.16770000000000018,-36.5136986495166
-0.16870000000000007,-36.5985813275085
-0.16970000000000018,-36.725905344496354
-0.17070000000000007,-36.95225915247476
-0.17170000000000019,-37.122024508458566
-0.17270000000000008,-37.376672542434264
-0.1737000000000002,-37.77279170639648
-0.17470000000000008,-37.90011572338433
-0.1757000000000002,-38.12646953136274
-0.17670000000000008,-38.12646953136274
-0.1777000000000002,-38.211352209354644
-0.17870000000000008,-38.16891087035869
-0.1797000000000002,-38.12646953136274
-0.18070000000000008,-37.94255706238028
-0.1817000000000002,-37.90011572338433
-0.18270000000000008,-37.99914551437489
-0.1837000000000002,-37.99914551437489
-0.1847000000000001,-38.211352209354644
-0.1857000000000002,-38.42355890433439
-0.1867000000000001,-38.6499127123128
-0.1877000000000002,-38.98944342428042
-0.1887000000000001,-39.34312124924667
-0.1897000000000002,-39.56947505722508
-0.1907000000000001,-39.78168175220483
-0.1917000000000001,-39.90900576919269
-0.19269999999999998,-40.03632978618054
-0.1937000000000001,-40.092918238175145
-0.19469999999999998,-40.135359577171094
-0.1957000000000001,-40.092918238175145
-0.19669999999999999,-40.177800916167044
-0.1977000000000001,-40.26268359415894
-0.1987,-40.3900076111468
-0.1997000000000001,-40.559772967130606
-0.2007,-40.87100945310091
-0.2017000000000001,-41.22468727806717
-0.2027,-41.56421799003478
-0.2037000000000001,-42.04521983198889
-0.2047,-42.31401497896325
-0.2057000000000001,-42.568663012938956
-0.2067,-42.79501682091736
-0.2077000000000001,-42.92234083790521
-0.2087,-43.007223515897124
-0.2097000000000001,-43.007223515897124
-0.2107,-42.96478217690117
-0.2117000000000001,-43.09210619388902
-0.2127,-43.134547532884966
-0.2137000000000001,-43.31846000186743
-0.2147,-43.44578401885527
-0.2157000000000001,-43.84190318281749
-0.2167,-44.181433894785094
-0.21770000000000012,-44.535111719751356
-0.2187,-44.93123088371356
-0.21970000000000012,-45.18587891768927
-0.2207,-45.497115403659585
-0.22170000000000012,-45.70932209863933
-0.2227,-45.85079322862584
-0.22370000000000012,-45.93567590661774
-0.2247,-45.93567590661774
-0.22570000000000012,-45.93567590661774
-0.2267,-46.02055858460964
-0.22770000000000012,-46.10544126260155
-0.22870000000000001,-46.19032394059345
-0.22970000000000013,-46.45911908756781
-0.23070000000000002,-46.79864979953541
-0.23170000000000013,-47.15232762450167
-0.23270000000000002,-47.54844678846388
-0.23370000000000013,-48.029448630417996
-0.23470000000000002,-48.32653800338966
-0.23570000000000013,-48.68021582835591
-0.23670000000000002,-48.93486386233162
-0.2376999999999999,-49.03389365332217
-0.23870000000000002,-49.16121767031002
-0.2396999999999999,-49.24610034830193
-0.24070000000000003,-49.28854168729788
-0.24169999999999991,-49.41586570428573
-0.24270000000000003,-49.557336834272235
-0.24369999999999992,-49.68466085126009
-0.24470000000000003,-49.98175022423175
-0.24569999999999992,-50.37786938819396
-0.24670000000000003,-50.81642989115212
-0.24769999999999992,-51.21254905511432
-0.24870000000000003,-51.69355089706845
-0.24969999999999992,-52.11796428702795
-0.25070000000000003,-52.471642111994214
-0.2516999999999999,-52.78287859796452
-0.25270000000000004,-52.95264395394832
-0.2536999999999999,-53.079967970936174
-0.25470000000000004,-53.26388043991864
-0.2556999999999999,-53.30632177891458
-0.25670000000000004,-53.433645795902436
-0.25769999999999993,-53.56096981289029
-0.25870000000000004,-53.7873236208687
-0.25969999999999993,-54.1268543328363
-0.26070000000000004,-54.52297349679851
-0.26169999999999993,-54.961533999756675
-0.26270000000000004,-55.357653163718886
-0.26369999999999993,-55.96597902266086
-0.26470000000000005,-56.36209818662306
-0.26569999999999994,-56.786511576582576
-0.26670000000000005,-57.05530672355693
-0.26769999999999994,-57.26751341853669
-0.26870000000000005,-57.493867226515086
-0.26969999999999994,-57.62119124350295
-0.27070000000000005,-57.70607392149485
-0.27169999999999994,-57.8333979384827
-0.27270000000000005,-58.05975174646111
-0.27369999999999994,-58.27195844144086
-0.27470000000000006,-58.583194927411164
-0.27569999999999995,-59.02175543036933
-0.27670000000000006,-59.403727481332886
-0.27769999999999995,-59.92717066228296
-0.27870000000000006,-60.54964363422357
-0.27969999999999995,-60.93161568518713
-0.28070000000000006,-61.412617527141244
-0.28169999999999995,-61.5965299961237
-0.28270000000000006,-61.80873669110345
-0.28369999999999995,-62.02094338608321
-0.28470000000000006,-62.11997317707376
-0.28569999999999995,-62.16241451606972
-0.28670000000000007,-62.33217987205352
-0.28769999999999996,-62.501945228037314
-0.28870000000000007,-62.72829903601572
-0.28969999999999996,-63.02538840898739
-0.29070000000000007,-63.5063902509415
-0.29169999999999996,-63.860068075907755
-0.29270000000000007,-64.38351125685783
-0.29369999999999996,-64.90695443780788
-0.2947000000000001,-65.20404381077954
-0.29569999999999996,-65.51528029674984
-0.2967000000000001,-65.7274869917296
-0.29769999999999996,-65.86895812171612
-0.2987000000000001,-65.95384079970802
-0.29969999999999997,-65.99628213870396
-0.3007000000000001,-65.91139946071206
-0.30169999999999997,-65.95384079970802
-0.3027000000000001,-66.03872347769992
-0.30369999999999997,-66.12360615569182
-0.3047000000000001,-66.25093017267966
-0.30569999999999997,-66.51972531965401
-0.3067000000000001,-66.73193201463377
-0.3077,-67.00072716160814
-0.3087000000000001,-67.34025787357575
-0.3097,-67.56661168155415
-0.3107000000000001,-67.65149435954605
-0.3117,-67.7788183765339
-0.3127000000000001,-67.82125971552985
-0.3137,-67.82125971552985
-0.3147000000000001,-67.7788183765339
-0.3157,-67.73637703753796
-0.3167000000000001,-67.82125971552985
-0.3177,-67.9202895065204
-0.3187000000000001,-68.0051721845123
-0.3197,-68.13249620150016
-0.3207000000000001,-68.34470289647993
-0.3217,-68.69838072144618
-0.3227000000000001,-68.96717586842054
-0.3237,-69.30670658038814
-0.3247000000000001,-69.53306038836655
-0.3257,-69.78770842234226
-0.3267000000000001,-69.91503243933012
-0.3277,-69.91503243933012
-0.3287000000000001,-69.91503243933012
-0.3297,-69.78770842234226
-0.3307000000000001,-69.61794306635846
-0.3317,-69.4906190493706
-0.3327000000000001,-69.39158925838004
-0.3337,-69.1793825634003
-0.3347000000000001,-69.1793825634003
-0.3357,-69.22182390239624
-0.3367000000000001,-69.26426524139221
-0.3377,-69.30670658038814
-0.3387000000000001,-69.43403059737601
-0.3397,-69.39158925838004
-0.3407000000000001,-69.39158925838004
-0.3417,-69.22182390239624
-0.3427000000000001,-68.91058741642594
-0.3437,-68.61349804345427
-0.3447000000000001,-68.25982021848802
-0.3457,-67.82125971552985
-0.3467000000000001,-67.48172900356225
-0.3477,-67.128051178596
-0.3487000000000001,-66.77437335362974
-0.3497,-66.60460799764593
-0.3507000000000001,-66.60460799764593
-0.3517,-66.51972531965401
-0.3527000000000001,-66.43484264166212
-0.3537,-66.51972531965401
-0.3547000000000001,-66.43484264166212
-0.3557,-66.34995996367022
-0.35670000000000013,-66.16604749468777
-0.3577,-65.86895812171612
-0.35870000000000013,-65.51528029674984
-0.3597,-65.20404381077954
-0.36070000000000013,-64.77963042082003
-0.3617,-64.46839393484973
-0.3626999999999999,-64.15715744887942
-0.3637,-63.98739209289561
-0.3646999999999999,-63.902509414903705
-0.3657,-63.902509414903705
-0.3666999999999999,-63.98739209289561
-0.3677,-64.02983343189156
-0.3686999999999999,-64.19959878787537
-0.36970000000000003,-64.25618723986996
-0.3706999999999999,-64.34106991786187
-0.37170000000000003,-64.29862857886593
-0.3726999999999999,-64.15715744887942
-0.37370000000000003,-64.0722747708875
-0.3746999999999999,-63.98739209289561
-0.37570000000000003,-63.81762673691181
-0.3766999999999999,-63.77518539791585
-0.37770000000000004,-63.732744058919906
-0.3786999999999999,-63.81762673691181
-0.37970000000000004,-64.02983343189156
-0.3806999999999999,-64.34106991786187
-0.38170000000000004,-64.63815929083353
-0.38269999999999993,-65.11916113278764
-0.38370000000000004,-65.60016297474175
-0.38469999999999993,-65.99628213870396
-0.38570000000000004,-66.34995996367022
-0.38669999999999993,-66.60460799764593
-0.38770000000000004,-66.87340314462028
-0.38869999999999993,-67.128051178596
-0.38970000000000005,-67.34025787357575
-0.39069999999999994,-67.43928766456631
-0.39170000000000005,-67.65149435954605
-0.39269999999999994,-68.0051721845123
-0.39370000000000005,-68.34470289647993
-0.39469999999999994,-68.82570473843404
-0.39570000000000005,-69.39158925838004
-0.39669999999999994,-69.95747377832606
-0.39770000000000005,-70.66482942825859
-0.39869999999999994,-71.44292064318435
-0.39970000000000006,-72.00880516313036
-0.40069999999999995,-72.67371947406694
-0.40170000000000006,-73.197162655017
-0.40269999999999995,-73.6781644969711
-0.40370000000000006,-74.20160767792116
-0.40469999999999995,-74.62602106788069
-0.40570000000000006,-74.93725755385098
-0.40669999999999995,-75.37581805680915
-0.40770000000000006,-75.94170257675518
-0.40869999999999995,-76.46514575770523
-0.40970000000000006,-77.11591295564315
-0.41069999999999995,-77.80912149257702
-0.41170000000000007,-78.60135982050144
-0.41269999999999996,-79.37945103542721
-0.41370000000000007,-80.29901338033947
-0.41469999999999996,-81.04881036926795
-0.41570000000000007,-81.74201890620182
-0.41669999999999996,-82.35034476514379
-0.41770000000000007,-83.0011119630817
-0.41869999999999996,-83.56699648302772
-0.4197000000000001,-84.00555698598588
-0.42069999999999996,-84.44411748894404
-0.4217000000000001,-85.052443347886
-0.42269999999999996,-85.57588652883607
-0.4237000000000001,-86.18421238777805
-0.42469999999999997,-86.89156803771054
-0.4257000000000001,-87.66965925263632
-0.42669999999999997,-88.5043389195567
-0.4277000000000001,-89.36731281247435
-0.42869999999999997,-90.37175783537855
-0.4297000000000001,-91.16399616330297
-0.43069999999999997,-92.12599984721119
-0.4317000000000001,-92.90409106213696
-0.4327,-93.65388805106544
-0.4337000000000001,-94.4319792659912
-0.4347,-95.08274646392913
-0.4357000000000001,-95.69107232287108
-0.4367,-96.4833106507955
-0.4377000000000001,-97.21896052672531
-0.4387,-98.09608153264163
-0.4397000000000001,-99.01564387755391
-0.4407,-100.10497157844999
-0.4417000000000001,-101.23674061834203
-0.4427,-102.3260683192381
-0.4437000000000001,-103.54272003712204
-0.4447,-104.50472372103027
-0.4457000000000001,-105.50916874393444
-0.4467,-106.4287310888467
-0.4477000000000001,-107.26341075576708
-0.4487,-108.04150197069285
-0.4497000000000001,-108.87618163761321
-0.4507,-109.61183151354304
-0.4517000000000001,-110.48895251945936
-0.4527,-111.394367751373
-0.4537000000000001,-112.31393009628526
-0.4547,-113.27593378019348
-0.4557000000000001,-114.45014415908147
-0.4567,-115.53947185997755
-0.4577000000000001,-116.58635822187767
-0.4587,-117.67568592277377
-0.4597000000000001,-118.76501362366983
-0.4607,-119.769458646574
-0.4617000000000001,-120.64657965249035
-0.4627,-121.56614199740261
-0.4637000000000001,-122.38667455132433
-0.4647,-123.26379555724066
-0.4657000000000001,-124.09847522416102
-0.4667,-125.04633179507057
-0.4677000000000001,-125.92345280098691
-0.4687,-126.9278978238911
-0.4697000000000001,-128.05966686378312
-0.4707,-129.19143590367514
-0.4717000000000001,-130.46467607355368
-0.4727,-131.63888645244168
-0.4737000000000001,-132.89797950932152
-0.4747,-133.9873072102176
-0.4757000000000001,-135.17566470210423
-0.4767,-136.08107993401788
-0.4777000000000001,-137.00064227893017
-0.4787,-137.9626459628384
-0.4797000000000001,-138.8397669687547
-0.4807,-139.70274086167237
-0.48170000000000013,-140.70718588457655
-0.4827,-141.61260111649017
-0.48370000000000013,-142.7443701563822
-0.4847,-143.87613919627424
-0.48570000000000013,-145.14937936615277
-0.4867,-145.00790823616626
-0.48570000000000013,-142.6028990263957
-0.4847,-140.74962722357247
-0.48370000000000013,-138.8397669687547
-0.4827,-137.12796629591801
-0.48170000000000013,-135.3029887190921
-0.4807,-133.5628938202581
-0.4797000000000001,-131.95012293841197
-0.4787,-130.28076360457123
-0.4777000000000001,-128.5831100447332
-0.4767,-127.012780501883
-0.4757000000000001,-125.5273336370247
-0.4747,-124.09847522416102
-0.4737000000000001,-122.78279371528653
-0.4727,-121.56614199740261
-0.4717000000000001,-120.39193161851462
-0.4707,-119.20357412662798
-0.4697000000000001,-118.1991291037238
-0.4687,-117.02491872483584
-0.4677000000000001,-115.85070834594785
-0.4667,-114.63405662806393
-0.4657000000000001,-113.36081645818538
-0.4647,-112.10172340130552
-0.4637000000000001,-110.78604189243102
-0.4627,-109.4845074965552
