Mar. 14, 2025   14:02:11
Cyclic Voltammetry
File: c:/users/guazh/data/banditlqround7_x0exp891_r5/2025-03-03-exp893\exp893-2025-03-14t13_55_29-h2koh\exp893_cv_sr_300mvs_efin_-1400mv.bin
Data Source:  Experiment
Instrument Model:  CHI760E
Header: CV ran at 300 mVs
Note: 

Init E (V) = -1
High E (V) = -1
Low E (V) = -1.4
Final E (V) = -1
Init P/N = N
Scan Rate (V/s) = 0.3
Segment = 3
Sample Interval (V) = 0.001
Quiet Time (sec) = 2
Sensitivity (A/V) = 0.01
Comp R (ohm) = 1.5

Results:

Channel 1:
Segment 1:

Segment 2:

Segment 3:

Potential/V, Current/A

-1.000, 1.865e-5
-1.001, 5.565e-5
-1.002, 7.415e-5
-1.003, 8.032e-5
-1.004, 8.648e-5
-1.005, 9.265e-5
-1.006, 9.882e-5
-1.007, 9.882e-5
-1.008, 9.882e-5
-1.009, 9.882e-5
-1.010, 1.019e-4
-1.011, 1.050e-4
-1.012, 1.050e-4
-1.013, 1.050e-4
-1.014, 1.019e-4
-1.015, 1.050e-4
-1.016, 1.081e-4
-1.017, 1.081e-4
-1.018, 1.081e-4
-1.019, 1.050e-4
-1.020, 1.081e-4
-1.021, 1.081e-4
-1.022, 1.081e-4
-1.023, 1.081e-4
-1.024, 1.050e-4
-1.025, 1.081e-4
-1.026, 1.111e-4
-1.027, 1.081e-4
-1.028, 1.081e-4
-1.029, 1.081e-4
-1.030, 1.081e-4
-1.031, 1.111e-4
-1.032, 1.081e-4
-1.033, 1.081e-4
-1.034, 1.081e-4
-1.035, 1.081e-4
-1.036, 1.111e-4
-1.037, 1.081e-4
-1.038, 1.081e-4
-1.039, 1.081e-4
-1.040, 1.081e-4
-1.041, 1.111e-4
-1.042, 1.081e-4
-1.043, 1.081e-4
-1.044, 1.081e-4
-1.045, 1.081e-4
-1.046, 1.111e-4
-1.047, 1.111e-4
-1.048, 1.111e-4
-1.049, 1.081e-4
-1.050, 1.081e-4
-1.051, 1.111e-4
-1.052, 1.111e-4
-1.053, 1.081e-4
-1.054, 1.081e-4
-1.055, 1.111e-4
-1.056, 1.111e-4
-1.057, 1.111e-4
-1.058, 1.081e-4
-1.059, 1.081e-4
-1.060, 1.081e-4
-1.061, 1.111e-4
-1.062, 1.111e-4
-1.063, 1.111e-4
-1.064, 1.081e-4
-1.065, 1.081e-4
-1.066, 1.111e-4
-1.067, 1.111e-4
-1.068, 1.111e-4
-1.069, 1.081e-4
-1.070, 1.111e-4
-1.071, 1.142e-4
-1.072, 1.111e-4
-1.073, 1.111e-4
-1.074, 1.111e-4
-1.075, 1.111e-4
-1.076, 1.142e-4
-1.077, 1.142e-4
-1.078, 1.111e-4
-1.079, 1.111e-4
-1.080, 1.111e-4
-1.081, 1.142e-4
-1.082, 1.142e-4
-1.083, 1.111e-4
-1.084, 1.111e-4
-1.085, 1.111e-4
-1.086, 1.142e-4
-1.087, 1.142e-4
-1.088, 1.111e-4
-1.089, 1.111e-4
-1.090, 1.142e-4
-1.091, 1.142e-4
-1.092, 1.142e-4
-1.093, 1.142e-4
-1.094, 1.111e-4
-1.095, 1.142e-4
-1.096, 1.142e-4
-1.097, 1.142e-4
-1.098, 1.142e-4
-1.099, 1.142e-4
-1.100, 1.142e-4
-1.101, 1.173e-4
-1.102, 1.173e-4
-1.103, 1.142e-4
-1.104, 1.142e-4
-1.105, 1.142e-4
-1.106, 1.173e-4
-1.107, 1.173e-4
-1.108, 1.142e-4
-1.109, 1.142e-4
-1.110, 1.173e-4
-1.111, 1.173e-4
-1.112, 1.173e-4
-1.113, 1.173e-4
-1.114, 1.142e-4
-1.115, 1.173e-4
-1.116, 1.204e-4
-1.117, 1.173e-4
-1.118, 1.173e-4
-1.119, 1.173e-4
-1.120, 1.204e-4
-1.121, 1.204e-4
-1.122, 1.204e-4
-1.123, 1.173e-4
-1.124, 1.173e-4
-1.125, 1.204e-4
-1.126, 1.204e-4
-1.127, 1.204e-4
-1.128, 1.204e-4
-1.129, 1.204e-4
-1.130, 1.204e-4
-1.131, 1.235e-4
-1.132, 1.235e-4
-1.133, 1.204e-4
-1.134, 1.204e-4
-1.135, 1.235e-4
-1.136, 1.235e-4
-1.137, 1.235e-4
-1.138, 1.235e-4
-1.139, 1.235e-4
-1.140, 1.235e-4
-1.141, 1.266e-4
-1.142, 1.235e-4
-1.143, 1.235e-4
-1.144, 1.235e-4
-1.145, 1.266e-4
-1.146, 1.266e-4
-1.147, 1.266e-4
-1.148, 1.266e-4
-1.149, 1.266e-4
-1.150, 1.266e-4
-1.151, 1.296e-4
-1.152, 1.296e-4
-1.153, 1.266e-4
-1.154, 1.266e-4
-1.155, 1.296e-4
-1.156, 1.327e-4
-1.157, 1.327e-4
-1.158, 1.296e-4
-1.159, 1.296e-4
-1.160, 1.296e-4
-1.161, 1.327e-4
-1.162, 1.327e-4
-1.163, 1.327e-4
-1.164, 1.296e-4
-1.165, 1.327e-4
-1.166, 1.358e-4
-1.167, 1.358e-4
-1.168, 1.327e-4
-1.169, 1.327e-4
-1.170, 1.358e-4
-1.171, 1.358e-4
-1.172, 1.358e-4
-1.173, 1.358e-4
-1.174, 1.358e-4
-1.175, 1.358e-4
-1.176, 1.389e-4
-1.177, 1.389e-4
-1.178, 1.389e-4
-1.179, 1.389e-4
-1.180, 1.389e-4
-1.181, 1.420e-4
-1.182, 1.420e-4
-1.183, 1.389e-4
-1.184, 1.389e-4
-1.185, 1.420e-4
-1.186, 1.420e-4
-1.187, 1.420e-4
-1.188, 1.420e-4
-1.189, 1.420e-4
-1.190, 1.420e-4
-1.191, 1.451e-4
-1.192, 1.451e-4
-1.193, 1.451e-4
-1.194, 1.420e-4
-1.195, 1.451e-4
-1.196, 1.481e-4
-1.197, 1.481e-4
-1.198, 1.451e-4
-1.199, 1.451e-4
-1.200, 1.481e-4
-1.201, 1.481e-4
-1.202, 1.481e-4
-1.203, 1.481e-4
-1.204, 1.451e-4
-1.205, 1.481e-4
-1.206, 1.512e-4
-1.207, 1.512e-4
-1.208, 1.481e-4
-1.209, 1.481e-4
-1.210, 1.512e-4
-1.211, 1.543e-4
-1.212, 1.543e-4
-1.213, 1.512e-4
-1.214, 1.512e-4
-1.215, 1.543e-4
-1.216, 1.543e-4
-1.217, 1.543e-4
-1.218, 1.512e-4
-1.219, 1.512e-4
-1.220, 1.543e-4
-1.221, 1.574e-4
-1.222, 1.543e-4
-1.223, 1.543e-4
-1.224, 1.543e-4
-1.225, 1.574e-4
-1.226, 1.574e-4
-1.227, 1.605e-4
-1.228, 1.574e-4
-1.229, 1.574e-4
-1.230, 1.574e-4
-1.231, 1.605e-4
-1.232, 1.574e-4
-1.233, 1.574e-4
-1.234, 1.574e-4
-1.235, 1.605e-4
-1.236, 1.636e-4
-1.237, 1.605e-4
-1.238, 1.574e-4
-1.239, 1.574e-4
-1.240, 1.605e-4
-1.241, 1.636e-4
-1.242, 1.636e-4
-1.243, 1.605e-4
-1.244, 1.605e-4
-1.245, 1.605e-4
-1.246, 1.636e-4
-1.247, 1.636e-4
-1.248, 1.605e-4
-1.249, 1.636e-4
-1.250, 1.636e-4
-1.251, 1.666e-4
-1.252, 1.636e-4
-1.253, 1.636e-4
-1.254, 1.636e-4
-1.255, 1.666e-4
-1.256, 1.666e-4
-1.257, 1.666e-4
-1.258, 1.636e-4
-1.259, 1.636e-4
-1.260, 1.666e-4
-1.261, 1.666e-4
-1.262, 1.666e-4
-1.263, 1.666e-4
-1.264, 1.666e-4
-1.265, 1.666e-4
-1.266, 1.697e-4
-1.267, 1.697e-4
-1.268, 1.697e-4
-1.269, 1.697e-4
-1.270, 1.697e-4
-1.271, 1.728e-4
-1.272, 1.728e-4
-1.273, 1.728e-4
-1.274, 1.728e-4
-1.275, 1.728e-4
-1.276, 1.759e-4
-1.277, 1.759e-4
-1.278, 1.759e-4
-1.279, 1.759e-4
-1.280, 1.790e-4
-1.281, 1.790e-4
-1.282, 1.790e-4
-1.283, 1.790e-4
-1.284, 1.790e-4
-1.285, 1.790e-4
-1.286, 1.851e-4
-1.287, 1.851e-4
-1.288, 1.821e-4
-1.289, 1.821e-4
-1.290, 1.851e-4
-1.291, 1.882e-4
-1.292, 1.913e-4
-1.293, 1.882e-4
-1.294, 1.882e-4
-1.295, 1.913e-4
-1.296, 1.944e-4
-1.297, 1.975e-4
-1.298, 1.944e-4
-1.299, 1.975e-4
-1.300, 2.006e-4
-1.301, 2.036e-4
-1.302, 2.036e-4
-1.303, 2.036e-4
-1.304, 2.036e-4
-1.305, 2.098e-4
-1.306, 2.129e-4
-1.307, 2.129e-4
-1.308, 2.160e-4
-1.309, 2.160e-4
-1.310, 2.191e-4
-1.311, 2.221e-4
-1.312, 2.252e-4
-1.313, 2.283e-4
-1.314, 2.283e-4
-1.315, 2.314e-4
-1.316, 2.376e-4
-1.317, 2.406e-4
-1.318, 2.437e-4
-1.319, 2.468e-4
-1.320, 2.499e-4
-1.321, 2.561e-4
-1.322, 2.591e-4
-1.323, 2.622e-4
-1.324, 2.684e-4
-1.325, 2.746e-4
-1.326, 2.807e-4
-1.327, 2.838e-4
-1.328, 2.869e-4
-1.329, 2.961e-4
-1.330, 3.023e-4
-1.331, 3.115e-4
-1.332, 3.177e-4
-1.333, 3.239e-4
-1.334, 3.331e-4
-1.335, 3.424e-4
-1.336, 3.516e-4
-1.337, 3.609e-4
-1.338, 3.732e-4
-1.339, 3.855e-4
-1.340, 3.979e-4
-1.341, 4.133e-4
-1.342, 4.318e-4
-1.343, 4.441e-4
-1.344, 4.626e-4
-1.345, 4.842e-4
-1.346, 5.089e-4
-1.347, 5.305e-4
-1.348, 5.582e-4
-1.349, 5.859e-4
-1.350, 6.199e-4
-1.351, 6.569e-4
-1.352, 6.969e-4
-1.353, 7.370e-4
-1.354, 7.863e-4
-1.355, 8.418e-4
-1.356, 9.035e-4
-1.357, 9.652e-4
-1.358, 1.036e-3
-1.359, 1.113e-3
-1.360, 1.196e-3
-1.361, 1.292e-3
-1.362, 1.391e-3
-1.363, 1.495e-3
-1.364, 1.610e-3
-1.365, 1.727e-3
-1.366, 1.853e-3
-1.367, 1.986e-3
-1.368, 2.118e-3
-1.369, 2.257e-3
-1.370, 2.399e-3
-1.371, 2.544e-3
-1.372, 2.689e-3
-1.373, 2.830e-3
-1.374, 2.978e-3
-1.375, 3.130e-3
-1.376, 3.290e-3
-1.377, 3.438e-3
-1.378, 3.583e-3
-1.379, 3.725e-3
-1.380, 3.879e-3
-1.381, 4.030e-3
-1.382, 4.178e-3
-1.383, 4.307e-3
-1.384, 4.437e-3
-1.385, 4.579e-3
-1.386, 4.720e-3
-1.387, 4.862e-3
-1.388, 4.992e-3
-1.389, 5.121e-3
-1.390, 5.251e-3
-1.391, 5.365e-3
-1.392, 5.479e-3
-1.393, 5.599e-3
-1.394, 5.707e-3
-1.395, 5.812e-3
-1.396, 5.917e-3
-1.397, 6.015e-3
-1.398, 6.102e-3
-1.399, 6.188e-3
-1.400, 6.228e-3
-1.399, 6.182e-3
-1.398, 6.129e-3
-1.397, 6.071e-3
-1.396, 6.018e-3
-1.395, 5.963e-3
-1.394, 5.901e-3
-1.393, 5.836e-3
-1.392, 5.769e-3
-1.391, 5.710e-3
-1.390, 5.639e-3
-1.389, 5.568e-3
-1.388, 5.510e-3
-1.387, 5.448e-3
-1.386, 5.386e-3
-1.385, 5.325e-3
-1.384, 5.251e-3
-1.383, 5.223e-3
-1.382, 5.161e-3
-1.381, 5.072e-3
-1.380, 5.023e-3
-1.379, 4.973e-3
-1.378, 4.905e-3
-1.377, 4.834e-3
-1.376, 4.782e-3
-1.375, 4.717e-3
-1.374, 4.653e-3
-1.373, 4.591e-3
-1.372, 4.535e-3
-1.371, 4.474e-3
-1.370, 4.415e-3
-1.369, 4.354e-3
-1.368, 4.295e-3
-1.367, 4.230e-3
-1.366, 4.175e-3
-1.365, 4.107e-3
-1.364, 4.045e-3
-1.363, 3.987e-3
-1.362, 3.925e-3
-1.361, 3.869e-3
-1.360, 3.811e-3
-1.359, 3.755e-3
-1.358, 3.706e-3
-1.357, 3.651e-3
-1.356, 3.589e-3
-1.355, 3.533e-3
-1.354, 3.481e-3
-1.353, 3.429e-3
-1.352, 3.376e-3
-1.351, 3.314e-3
-1.350, 3.262e-3
-1.349, 3.222e-3
-1.348, 3.167e-3
-1.347, 3.102e-3
-1.346, 3.046e-3
-1.345, 3.000e-3
-1.344, 2.954e-3
-1.343, 2.901e-3
-1.342, 2.849e-3
-1.341, 2.800e-3
-1.340, 2.753e-3
-1.339, 2.704e-3
-1.338, 2.655e-3
-1.337, 2.612e-3
-1.336, 2.565e-3
-1.335, 2.519e-3
-1.334, 2.476e-3
-1.333, 2.433e-3
-1.332, 2.374e-3
-1.331, 2.325e-3
-1.330, 2.288e-3
-1.329, 2.254e-3
-1.328, 2.208e-3
-1.327, 2.161e-3
-1.326, 2.115e-3
-1.325, 2.069e-3
-1.324, 2.032e-3
-1.323, 1.995e-3
-1.322, 1.955e-3
-1.321, 1.912e-3
-1.320, 1.872e-3
-1.319, 1.835e-3
-1.318, 1.801e-3
-1.317, 1.764e-3
-1.316, 1.717e-3
-1.315, 1.677e-3
-1.314, 1.643e-3
-1.313, 1.610e-3
-1.312, 1.573e-3
-1.311, 1.536e-3
-1.310, 1.499e-3
-1.309, 1.468e-3
-1.308, 1.434e-3
-1.307, 1.400e-3
-1.306, 1.363e-3
-1.305, 1.332e-3
-1.304, 1.304e-3
-1.303, 1.267e-3
-1.302, 1.236e-3
-1.301, 1.206e-3
-1.300, 1.175e-3
-1.299, 1.147e-3
-1.298, 1.116e-3
-1.297, 1.088e-3
-1.296, 1.061e-3
-1.295, 1.033e-3
-1.294, 1.005e-3
-1.293, 9.806e-4
-1.292, 9.498e-4
-1.291, 9.251e-4
-1.290, 9.004e-4
-1.289, 8.788e-4
-1.288, 8.542e-4
-1.287, 8.264e-4
-1.286, 8.018e-4
-1.285, 7.771e-4
-1.284, 7.555e-4
-1.283, 7.339e-4
-1.282, 7.124e-4
-1.281, 6.877e-4
-1.280, 6.661e-4
-1.279, 6.476e-4
-1.278, 6.260e-4
-1.277, 6.075e-4
-1.276, 5.859e-4
-1.275, 5.674e-4
-1.274, 5.520e-4
-1.273, 5.335e-4
-1.272, 5.150e-4
-1.271, 4.935e-4
-1.270, 4.811e-4
-1.269, 4.657e-4
-1.268, 4.472e-4
-1.267, 4.318e-4
-1.266, 4.133e-4
-1.265, 4.010e-4
-1.264, 3.886e-4
-1.263, 3.732e-4
-1.262, 3.578e-4
-1.261, 3.424e-4
-1.260, 3.331e-4
-1.259, 3.239e-4
-1.258, 3.054e-4
-1.257, 2.900e-4
-1.256, 2.807e-4
-1.255, 2.684e-4
-1.254, 2.591e-4
-1.253, 2.499e-4
-1.252, 2.345e-4
-1.251, 2.252e-4
-1.250, 2.160e-4
-1.249, 2.067e-4
-1.248, 1.975e-4
-1.247, 1.851e-4
-1.246, 1.759e-4
-1.245, 1.666e-4
-1.244, 1.605e-4
-1.243, 1.512e-4
-1.242, 1.420e-4
-1.241, 1.327e-4
-1.240, 1.266e-4
-1.239, 1.235e-4
-1.238, 1.111e-4
-1.237, 1.050e-4
-1.236, 9.573e-5
-1.235, 9.265e-5
-1.234, 8.648e-5
-1.233, 7.723e-5
-1.232, 7.107e-5
-1.231, 6.490e-5
-1.230, 6.182e-5
-1.229, 5.565e-5
-1.228, 4.949e-5
-1.227, 4.332e-5
-1.226, 3.715e-5
-1.225, 3.407e-5
-1.224, 3.099e-5
-1.223, 2.482e-5
-1.222, 1.865e-5
-1.221, 1.249e-5
-1.220, 1.249e-5
-1.219, 6.322e-6
-1.218, 3.239e-6
-1.217, -2.927e-6
-1.216, -6.010e-6
-1.215, -9.093e-6
-1.214, -1.218e-5
-1.213, -1.526e-5
-1.212, -2.143e-5
-1.211, -2.451e-5
-1.210, -2.451e-5
-1.209, -2.759e-5
-1.208, -3.068e-5
-1.207, -3.376e-5
-1.206, -3.992e-5
-1.205, -3.992e-5
-1.204, -3.992e-5
-1.203, -4.301e-5
-1.202, -4.917e-5
-1.201, -5.226e-5
-1.200, -5.226e-5
-1.199, -5.226e-5
-1.198, -5.534e-5
-1.197, -5.842e-5
-1.196, -6.151e-5
-1.195, -6.151e-5
-1.194, -6.459e-5
-1.193, -6.767e-5
-1.192, -7.076e-5
-1.191, -7.384e-5
-1.190, -7.076e-5
-1.189, -7.384e-5
-1.188, -7.384e-5
-1.187, -7.692e-5
-1.186, -8.000e-5
-1.185, -8.000e-5
-1.184, -8.000e-5
-1.183, -8.309e-5
-1.182, -8.617e-5
-1.181, -8.925e-5
-1.180, -8.925e-5
-1.179, -8.617e-5
-1.178, -8.925e-5
-1.177, -9.542e-5
-1.176, -9.542e-5
-1.175, -9.542e-5
-1.174, -9.542e-5
-1.173, -9.542e-5
-1.172, -9.850e-5
-1.171, -1.016e-4
-1.170, -1.016e-4
-1.169, -1.016e-4
-1.168, -1.016e-4
-1.167, -1.047e-4
-1.166, -1.078e-4
-1.165, -1.047e-4
-1.164, -1.047e-4
-1.163, -1.078e-4
-1.162, -1.108e-4
-1.161, -1.108e-4
-1.160, -1.108e-4
-1.159, -1.108e-4
-1.158, -1.108e-4
-1.157, -1.139e-4
-1.156, -1.139e-4
-1.155, -1.139e-4
-1.154, -1.139e-4
-1.153, -1.139e-4
-1.152, -1.170e-4
-1.151, -1.170e-4
-1.150, -1.170e-4
-1.149, -1.170e-4
-1.148, -1.170e-4
-1.147, -1.201e-4
-1.146, -1.232e-4
-1.145, -1.201e-4
-1.144, -1.201e-4
-1.143, -1.201e-4
-1.142, -1.232e-4
-1.141, -1.232e-4
-1.140, -1.232e-4
-1.139, -1.232e-4
-1.138, -1.232e-4
-1.137, -1.263e-4
-1.136, -1.263e-4
-1.135, -1.263e-4
-1.134, -1.263e-4
-1.133, -1.263e-4
-1.132, -1.293e-4
-1.131, -1.293e-4
-1.130, -1.293e-4
-1.129, -1.263e-4
-1.128, -1.263e-4
-1.127, -1.293e-4
-1.126, -1.293e-4
-1.125, -1.293e-4
-1.124, -1.293e-4
-1.123, -1.293e-4
-1.122, -1.324e-4
-1.121, -1.324e-4
-1.120, -1.324e-4
-1.119, -1.293e-4
-1.118, -1.324e-4
-1.117, -1.324e-4
-1.116, -1.355e-4
-1.115, -1.324e-4
-1.114, -1.324e-4
-1.113, -1.324e-4
-1.112, -1.355e-4
-1.111, -1.355e-4
-1.110, -1.324e-4
-1.109, -1.324e-4
-1.108, -1.324e-4
-1.107, -1.355e-4
-1.106, -1.386e-4
-1.105, -1.386e-4
-1.104, -1.355e-4
-1.103, -1.355e-4
-1.102, -1.386e-4
-1.101, -1.386e-4
-1.100, -1.355e-4
-1.099, -1.355e-4
-1.098, -1.355e-4
-1.097, -1.386e-4
-1.096, -1.386e-4
-1.095, -1.386e-4
-1.094, -1.355e-4
-1.093, -1.355e-4
-1.092, -1.386e-4
-1.091, -1.386e-4
-1.090, -1.386e-4
-1.089, -1.386e-4
-1.088, -1.386e-4
-1.087, -1.386e-4
-1.086, -1.386e-4
-1.085, -1.386e-4
-1.084, -1.386e-4
-1.083, -1.386e-4
-1.082, -1.386e-4
-1.081, -1.417e-4
-1.080, -1.386e-4
-1.079, -1.386e-4
-1.078, -1.386e-4
-1.077, -1.417e-4
-1.076, -1.417e-4
-1.075, -1.386e-4
-1.074, -1.386e-4
-1.073, -1.386e-4
-1.072, -1.417e-4
-1.071, -1.417e-4
-1.070, -1.417e-4
-1.069, -1.386e-4
-1.068, -1.386e-4
-1.067, -1.417e-4
-1.066, -1.417e-4
-1.065, -1.417e-4
-1.064, -1.386e-4
-1.063, -1.417e-4
-1.062, -1.417e-4
-1.061, -1.448e-4
-1.060, -1.417e-4
-1.059, -1.417e-4
-1.058, -1.417e-4
-1.057, -1.448e-4
-1.056, -1.448e-4
-1.055, -1.417e-4
-1.054, -1.417e-4
-1.053, -1.417e-4
-1.052, -1.448e-4
-1.051, -1.448e-4
-1.050, -1.448e-4
-1.049, -1.448e-4
-1.048, -1.417e-4
-1.047, -1.448e-4
-1.046, -1.448e-4
-1.045, -1.448e-4
-1.044, -1.448e-4
-1.043, -1.448e-4
-1.042, -1.478e-4
-1.041, -1.478e-4
-1.040, -1.448e-4
-1.039, -1.448e-4
-1.038, -1.448e-4
-1.037, -1.478e-4
-1.036, -1.478e-4
-1.035, -1.478e-4
-1.034, -1.448e-4
-1.033, -1.478e-4
-1.032, -1.509e-4
-1.031, -1.509e-4
-1.030, -1.478e-4
-1.029, -1.478e-4
-1.028, -1.478e-4
-1.027, -1.509e-4
-1.026, -1.509e-4
-1.025, -1.509e-4
-1.024, -1.509e-4
-1.023, -1.478e-4
-1.022, -1.509e-4
-1.021, -1.540e-4
-1.020, -1.540e-4
-1.019, -1.509e-4
-1.018, -1.540e-4
-1.017, -1.540e-4
-1.016, -1.571e-4
-1.015, -1.540e-4
-1.014, -1.540e-4
-1.013, -1.540e-4
-1.012, -1.571e-4
-1.011, -1.571e-4
-1.010, -1.571e-4
-1.009, -1.571e-4
-1.008, -1.571e-4
-1.007, -1.602e-4
-1.006, -1.602e-4
-1.005, -1.602e-4
-1.004, -1.602e-4
-1.003, -1.602e-4
-1.002, -1.632e-4
-1.001, -1.632e-4
