Potential V vs RHE, Current mA cm-2
0.013299999999999867,2.352664891675556
0.012299999999999978,0.4776065348344364
0.011299999999999866,-1.2234423321232837
0.010299999999999976,-2.8803522065252145
0.009299999999999864,-4.494537799671222
0.008299999999999974,-6.021011292225596
0.007299999999999862,-7.50504344578402
0.006299999999999972,-8.987660888042578
0.00529999999999986,-10.340124890713554
0.0042999999999999705,-11.647318131788847
0.0032999999999998586,-12.869628694872238
0.0022999999999999687,-14.046668496359947
0.0012999999999998568,-15.179852247551842
0.00029999999999996696,-16.22673860945197
-0.000700000000000145,-17.316066310348052
-0.0017000000000000348,-18.320511333252224
-0.0027000000000001467,-19.367397695152352
-0.0037000000000000366,-20.371842718056527
-0.0047000000000001485,-21.333846401964752
-0.005700000000000038,-22.253408746877028
-0.00670000000000015,-23.1163826397947
-0.00770000000000004,-23.908620967719123
-0.008700000000000152,-24.64427084364894
-0.009700000000000042,-25.43650917157336
-0.010700000000000154,-26.17215904750318
-0.011700000000000044,-26.9643973754276
-0.012700000000000156,-27.65760591236147
-0.013700000000000045,-28.435697127287238
-0.014700000000000157,-29.14305277721976
-0.015700000000000047,-29.751378636161718
-0.01670000000000016,-30.359704495103685
-0.01770000000000005,-30.925589015049702
-0.01870000000000016,-31.449032195999767
-0.01970000000000005,-31.972475376949827
-0.020700000000000163,-32.49591855789989
-0.021700000000000053,-33.01936173884996
-0.022700000000000164,-33.54280491980002
-0.023700000000000054,-34.06624810075008
-0.024700000000000166,-34.5472499427042
-0.025700000000000056,-35.02825178465831
-0.026700000000000168,-35.42437094862052
-0.027700000000000058,-35.848784338580025
-0.02870000000000017,-36.20246216354629
-0.02970000000000006,-36.64102266650445
-0.03070000000000017,-37.037141830466666
-0.03170000000000006,-37.47570233342482
-0.03270000000000017,-37.85767438438838
-0.03370000000000006,-38.253793548350586
-0.034700000000000175,-38.6499127123128
-0.035700000000000065,-38.98944342428042
-0.03670000000000018,-39.30067991025072
-0.03770000000000007,-39.51288660523048
-0.03870000000000018,-39.78168175220483
-0.03970000000000007,-39.99388844718459
-0.04070000000000018,-40.30512493315489
-0.04170000000000007,-40.616361419125205
-0.04270000000000018,-40.95589213109281
-0.04370000000000007,-41.267128617063115
-0.044700000000000184,-41.56421799003478
-0.045700000000000074,-41.79057179801318
-0.046700000000000186,-42.00277849299294
-0.047700000000000076,-42.229132300971344
-0.04870000000000019,-42.39889765695515
-0.04970000000000008,-42.568663012938956
-0.05070000000000019,-42.752575481921404
-0.05170000000000008,-42.96478217690117
-0.05270000000000019,-43.17698887188092
-0.05370000000000008,-43.40334267985933
-0.05470000000000019,-43.57310803584313
-0.05570000000000008,-43.75702050482558
-0.056700000000000195,-43.92678586080939
-0.057700000000000085,-44.096551216793195
-0.058700000000000196,-44.223875233781044
-0.059700000000000086,-44.3229050247716
-0.0607000000000002,-44.4926703807554
-0.06170000000000009,-44.704877075735155
-0.0627000000000002,-44.93123088371356
-0.06370000000000009,-45.143437578693316
-0.0647000000000002,-45.27076159568118
-0.06570000000000009,-45.412232725667685
-0.0667000000000002,-45.497115403659585
-0.0677000000000001,-45.624439420647434
-0.0687000000000002,-45.666880759643384
-0.0697000000000001,-45.75176343763528
-0.07070000000000021,-45.85079322862584
-0.0717000000000001,-45.97811724561369
-0.07270000000000021,-46.147882601597495
-0.0737000000000001,-46.3176479575813
-0.07470000000000021,-46.501560426563756
-0.0757000000000001,-46.586443104555656
-0.07670000000000021,-46.67132578254756
-0.0777000000000001,-46.713767121543505
-0.07870000000000021,-46.75620846053947
-0.0797000000000001,-46.79864979953541
-0.08070000000000022,-46.84109113853137
-0.0817000000000001,-46.88353247752732
-0.08270000000000022,-47.02500360751382
-0.08370000000000011,-47.10988628550572
-0.08470000000000022,-47.19476896349763
-0.08570000000000011,-47.23721030249357
-0.08670000000000022,-47.23721030249357
-0.08770000000000011,-47.27965164148953
-0.08870000000000022,-47.27965164148953
-0.08970000000000011,-47.27965164148953
-0.09070000000000022,-47.27965164148953
-0.09170000000000011,-47.27965164148953
-0.09270000000000023,-47.32209298048547
-0.09370000000000012,-47.36453431948143
-0.09470000000000023,-47.46356411047198
-0.09570000000000012,-47.40697565847737
-0.09670000000000023,-47.40697565847737
-0.09770000000000012,-47.32209298048547
-0.09870000000000023,-47.27965164148953
-0.09970000000000012,-47.23721030249357
-0.10070000000000023,-47.19476896349763
-0.10170000000000012,-47.19476896349763
-0.10270000000000024,-47.23721030249357
-0.10370000000000013,-47.23721030249357
-0.10470000000000024,-47.23721030249357
-0.10570000000000013,-47.15232762450167
-0.10670000000000024,-47.067444946509774
-0.10770000000000013,-46.982562268517874
-0.10870000000000024,-46.84109113853137
-0.10970000000000013,-46.79864979953541
-0.11070000000000024,-46.713767121543505
-0.11170000000000013,-46.67132578254756
-0.11270000000000002,-46.67132578254756
-0.11370000000000013,-46.67132578254756
-0.11470000000000002,-46.628884443551605
-0.11570000000000014,-46.544001765559706
-0.11670000000000003,-46.37423640957591
-0.11770000000000014,-46.147882601597495
-0.11870000000000003,-45.93567590661774
-0.11970000000000014,-45.75176343763528
-0.12070000000000003,-45.666880759643384
-0.12170000000000014,-45.624439420647434
-0.12270000000000003,-45.581998081651484
-0.12370000000000014,-45.53955674265553
-0.12470000000000003,-45.497115403659585
-0.12570000000000014,-45.412232725667685
-0.12670000000000003,-45.22832025668522
-0.12770000000000015,-45.01611356170547
-0.12870000000000004,-44.74731841473111
-0.12970000000000015,-44.535111719751356
-0.13070000000000004,-44.4077877027635
-0.13170000000000015,-44.28046368577565
-0.13270000000000004,-44.181433894785094
-0.13370000000000015,-44.054109877797245
-0.13470000000000004,-43.96922719980534
-0.13570000000000015,-43.84190318281749
-0.13670000000000004,-43.657990713835034
-0.13770000000000016,-43.48822535785123
-0.13870000000000005,-43.31846000186743
-0.13970000000000016,-43.134547532884966
-0.14070000000000005,-43.007223515897124
-0.14170000000000016,-42.87989949890926
-0.14270000000000005,-42.752575481921404
-0.14370000000000016,-42.653545690930855
-0.14470000000000005,-42.526221673943
-0.14570000000000016,-42.3564563179592
-0.14670000000000005,-42.186690961975394
-0.14770000000000016,-42.00277849299294
-0.14870000000000005,-41.79057179801318
-0.14970000000000017,-41.606659329030734
-0.15070000000000006,-41.43689397304693
-0.15170000000000017,-41.30956995605907
-0.15270000000000006,-41.22468727806717
-0.15370000000000017,-41.139804600075266
-0.15470000000000006,-40.99833347008877
-0.15570000000000017,-40.828568114104954
-0.15670000000000006,-40.616361419125205
-0.15770000000000017,-40.34756627215084
-0.15870000000000006,-40.092918238175145
-0.15970000000000018,-39.86656443019674
-0.16070000000000007,-39.696799074212926
-0.16170000000000018,-39.61191639622103
-0.16270000000000007,-39.47044526623452
-0.16370000000000018,-39.38556258824262
-0.16470000000000007,-39.30067991025072
-0.16570000000000018,-39.130914554266916
-0.16670000000000007,-39.046031876275016
-0.16770000000000018,-38.86211940729255
-0.16870000000000007,-38.6499127123128
-0.16970000000000018,-38.46600024333035
-0.17070000000000007,-38.29623488734655
-0.17170000000000019,-38.16891087035869
-0.17270000000000008,-38.08402819236679
-0.1737000000000002,-37.99914551437489
-0.17470000000000008,-37.85767438438838
-0.1757000000000002,-37.73035036740053
-0.17670000000000008,-37.56058501141672
-0.1777000000000002,-37.376672542434264
-0.17870000000000008,-37.206907186450465
-0.1797000000000002,-37.07958316946261
-0.18070000000000008,-36.95225915247476
-0.1817000000000002,-36.81078802248826
-0.18270000000000008,-36.768346683492304
-0.1837000000000002,-36.6834640055004
-0.1847000000000001,-36.64102266650445
-0.1857000000000002,-36.5136986495166
-0.1867000000000001,-36.37222751953009
-0.1877000000000002,-36.244903502542236
-0.1887000000000001,-36.07513814655844
-0.1897000000000002,-35.94781412957058
-0.1907000000000001,-35.848784338580025
-0.1917000000000001,-35.763901660588125
-0.19269999999999998,-35.763901660588125
-0.1937000000000001,-35.763901660588125
-0.19469999999999998,-35.721460321592176
-0.1957000000000001,-35.679018982596226
-0.19669999999999999,-35.594136304604326
-0.1977000000000001,-35.46681228761647
-0.1987,-35.38192960962457
-0.1997000000000001,-35.240458479638065
-0.2007,-35.198017140642115
-0.2017000000000001,-35.11313446265021
-0.2027,-35.07069312365426
-0.2037000000000001,-35.07069312365426
-0.2047,-35.02825178465831
-0.2057000000000001,-34.98581044566235
-0.2067,-34.94336910666641
-0.2077000000000001,-34.85848642867451
-0.2087,-34.8018979766799
-0.2097000000000001,-34.75945663768395
-0.2107,-34.717015298688004
-0.2117000000000001,-34.717015298688004
-0.2127,-34.67457395969205
-0.2137000000000001,-34.67457395969205
-0.2147,-34.67457395969205
-0.2157000000000001,-34.67457395969205
-0.2167,-34.632132620696105
-0.21770000000000012,-34.58969128170015
-0.2187,-34.5472499427042
-0.21970000000000012,-34.50480860370825
-0.2207,-34.462367264712285
-0.22170000000000012,-34.50480860370825
-0.2227,-34.5472499427042
-0.22370000000000012,-34.58969128170015
-0.2247,-34.632132620696105
-0.22570000000000012,-34.632132620696105
-0.2267,-34.632132620696105
-0.22770000000000012,-34.632132620696105
-0.22870000000000001,-34.58969128170015
-0.22970000000000013,-34.58969128170015
-0.23070000000000002,-34.58969128170015
-0.23170000000000013,-34.67457395969205
-0.23270000000000002,-34.75945663768395
-0.23370000000000013,-34.85848642867451
-0.23470000000000002,-34.94336910666641
-0.23570000000000013,-34.98581044566235
-0.23670000000000002,-35.02825178465831
-0.2376999999999999,-35.02825178465831
-0.23870000000000002,-35.07069312365426
-0.2396999999999999,-35.07069312365426
-0.24070000000000003,-35.11313446265021
-0.24169999999999991,-35.198017140642115
-0.24270000000000003,-35.282899818634014
-0.24369999999999992,-35.42437094862052
-0.24470000000000003,-35.50925362661242
-0.24569999999999992,-35.594136304604326
-0.24670000000000003,-35.679018982596226
-0.24769999999999992,-35.763901660588125
-0.24870000000000003,-35.848784338580025
-0.24969999999999992,-35.99025546856653
-0.25070000000000003,-36.11757948555439
-0.2516999999999999,-36.244903502542236
-0.25270000000000004,-36.329786180534136
-0.2536999999999999,-36.5136986495166
-0.25470000000000004,-36.64102266650445
-0.2556999999999999,-36.768346683492304
-0.25670000000000004,-36.89567070048016
-0.25769999999999993,-37.037141830466666
-0.25870000000000004,-37.122024508458566
-0.25969999999999993,-37.291789864442364
-0.26070000000000004,-37.41911388143023
-0.26169999999999993,-37.60302635041268
-0.26270000000000004,-37.73035036740053
-0.26369999999999993,-37.90011572338433
-0.26470000000000005,-38.08402819236679
-0.26569999999999994,-38.253793548350586
-0.26670000000000005,-38.42355890433439
-0.26769999999999994,-38.5650300343209
-0.26870000000000005,-38.692354051308754
-0.26969999999999994,-38.81967806829661
-0.27070000000000005,-39.046031876275016
-0.27169999999999994,-39.258238571254765
-0.27270000000000005,-39.47044526623452
-0.27369999999999994,-39.739240413208876
-0.27470000000000006,-39.99388844718459
-0.27569999999999995,-40.220242255162994
-0.27670000000000006,-40.34756627215084
-0.27769999999999995,-40.51733162813464
-0.27870000000000006,-40.616361419125205
-0.27969999999999995,-40.78612677510901
-0.28070000000000006,-40.99833347008877
-0.28169999999999995,-41.22468727806717
-0.28270000000000006,-41.47933531204288
-0.28369999999999995,-41.74813045901723
-0.28470000000000006,-42.04521983198889
-0.28569999999999995,-42.31401497896325
-0.28670000000000007,-42.568663012938956
-0.28769999999999996,-42.837458159913304
-0.28870000000000007,-43.04966485489307
-0.28969999999999996,-43.31846000186743
-0.29070000000000007,-43.57310803584313
-0.29169999999999996,-43.88434452181344
-0.29270000000000007,-44.181433894785094
-0.29369999999999996,-44.535111719751356
-0.2947000000000001,-44.80390686672572
-0.29569999999999996,-45.10099623969737
-0.2967000000000001,-45.36979138667173
-0.29769999999999996,-45.581998081651484
-0.2987000000000001,-45.85079322862584
-0.29969999999999997,-46.147882601597495
-0.3007000000000001,-46.45911908756781
-0.30169999999999997,-46.88353247752732
-0.3027000000000001,-47.32209298048547
-0.30369999999999997,-47.76065348344364
-0.3047000000000001,-48.156772647405845
-0.30569999999999997,-48.55289181136806
-0.3067000000000001,-48.84998118433972
-0.3077,-49.16121767031002
-0.3087000000000001,-49.373424365289786
-0.3097,-49.72710219025603
-0.3107000000000001,-50.024191563227696
-0.3117,-50.46275206618586
-0.3127000000000001,-50.90131256914402
-0.3137,-51.33987307210218
-0.3147000000000001,-51.73599223606439
-0.3157,-52.17455273902255
-0.3167000000000001,-52.514083450990164
-0.3177,-52.91020261495237
-0.3187000000000001,-53.26388043991864
-0.3197,-53.56096981289029
-0.3207000000000001,-53.999530315848446
-0.3217,-54.43809081880661
-0.3227000000000001,-54.919092660760725
-0.3237,-55.400094502714836
-0.3247000000000001,-55.9235376836649
-0.3257,-56.404539525619015
-0.3267000000000001,-56.927982706569075
-0.3277,-57.352396096528594
-0.3287000000000001,-57.8333979384827
-0.3297,-58.31439978043681
-0.3307000000000001,-58.75296028339497
-0.3317,-59.27640346434504
-0.3327000000000001,-59.7998466452951
-0.3337,-60.32328982624517
-0.3347000000000001,-60.80429166819927
-0.3357,-61.28529351015339
-0.3367000000000001,-61.7662953521075
-0.3377,-62.24729719406162
-0.3387000000000001,-62.68585769701977
-0.3397,-63.20930087796983
-0.3407000000000001,-63.732744058919906
-0.3417,-64.29862857886593
-0.3427000000000001,-64.86451309881193
-0.3437,-65.43039761875795
-0.3447000000000001,-66.03872347769992
-0.3457,-66.60460799764593
-0.3467000000000001,-67.128051178596
-0.3477,-67.65149435954605
-0.3487000000000001,-68.13249620150016
-0.3497,-68.65593938245023
-0.3507000000000001,-69.22182390239624
-0.3517,-69.8301497613382
-0.3527000000000001,-70.48091695927613
-0.3537,-71.10338993121674
-0.3547000000000001,-71.7117157901587
-0.3557,-72.32004164910067
-0.35670000000000013,-72.92836750804264
-0.3577,-73.49425202798865
-0.35870000000000013,-74.06013654793468
-0.3597,-74.62602106788069
-0.36070000000000013,-75.19190558782671
-0.3617,-75.85681989876326
-0.3626999999999999,-76.50758709670117
-0.3637,-77.1583542946391
-0.3646999999999999,-77.76668015358106
-0.3657,-78.38915312552167
-0.3666999999999999,-78.99747898446365
-0.3677,-79.60580484340561
-0.3686999999999999,-80.25657204134353
-0.36970000000000003,-80.86489790028548
-0.3706999999999999,-81.47322375922747
-0.37170000000000003,-82.13813807016405
-0.3726999999999999,-82.8313466070979
-0.37370000000000003,-83.52455514403178
-0.3746999999999999,-84.13288100297372
-0.37570000000000003,-84.75535397491434
-0.3766999999999999,-85.36367983385631
-0.37770000000000004,-85.97200569279828
-0.3786999999999999,-86.6227728907362
-0.37970000000000004,-87.18865741068221
-0.3806999999999999,-87.79698326962418
-0.38170000000000004,-88.46189758056073
-0.38269999999999993,-89.15510611749461
-0.38370000000000004,-89.89075599342443
-0.38469999999999993,-90.59811164335694
-0.38570000000000004,-91.29132018029082
-0.38669999999999993,-90.6405529823529
-0.38570000000000004,-87.66965925263632
-0.38469999999999993,-85.09488468688197
-0.38370000000000004,-82.746463929106
-0.38269999999999993,-80.61024986630979
-0.38170000000000004,-78.60135982050144
-0.3806999999999999,-76.81882358267148
-0.37970000000000004,-75.14946424883075
-0.3786999999999999,-73.57913470598055
-0.37770000000000004,-72.05124650212633
-0.3766999999999999,-70.53750541127073
-0.37570000000000003,-69.0944998854084
-0.3746999999999999,-67.65149435954605
-0.37370000000000003,-66.29337151167562
-0.3726999999999999,-64.99183711579978
-0.37170000000000003,-63.77518539791585
-0.3706999999999999,-62.58682790602922
-0.36970000000000003,-61.455058866137186
-0.3686999999999999,-60.28084848724921
-0.3677,-59.10663810836124
-0.3666999999999999,-57.87583927747865
-0.3657,-56.65918755959472
-0.3646999999999999,-55.484977180706736
-0.3637,-54.35320814081471
-0.3626999999999999,-53.26388043991864
-0.3617,-52.17455273902255
-0.36070000000000013,-51.17010771611838
-0.3597,-50.20810403221015
-0.35870000000000013,-49.16121767031002
-0.3577,-48.156772647405845
-0.35670000000000013,-47.15232762450167
-0.3557,-46.10544126260155
-0.3547000000000001,-45.05855490070142
-0.3537,-44.011668538801295
-0.3527000000000001,-43.04966485489307
-0.3517,-42.087661170984845
-0.3507000000000001,-41.182245939071215
-0.3497,-40.30512493315489
-0.3487000000000001,-39.42800392723857
-0.3477,-38.522588695324956
-0.3467000000000001,-37.645467689408626
-0.3457,-36.725905344496354
-0.3447000000000001,-35.806342999584075
-0.3437,-34.94336910666641
-0.3427000000000001,-34.10868943974604
-0.3417,-33.231568433829715
-0.3407000000000001,-32.49591855789989
-0.3397,-31.76026868197007
-0.3387000000000001,-31.010471693041605
-0.3377,-30.232380478115836
-0.3367000000000001,-29.440142150191413
-0.3357,-28.662050935265643
-0.3347000000000001,-27.869812607341224
-0.3337,-27.091721392415455
-0.3327000000000001,-26.38436574248293
-0.3317,-25.648715866553115
-0.3307000000000001,-24.95550732961925
-0.3297,-24.24815167968673
-0.3287000000000001,-23.55494314275286
-0.3277,-22.861734605818995
-0.3267000000000001,-22.111937616890522
-0.3257,-21.376287740960702
-0.3247000000000001,-20.683079204026836
-0.3237,-20.01816489309027
-0.3227000000000001,-19.367397695152352
-0.3217,-18.759071836210385
-0.3207000000000001,-18.15074597726842
-0.3197,-17.627302796318357
-0.3187000000000001,-17.061418276372343
-0.3177,-16.438945304431726
-0.3167000000000001,-15.830619445489761
-0.3157,-15.222293586547794
-0.3147000000000001,-14.57152638860988
-0.3137,-13.960371107068182
-0.3127000000000001,-13.3930718758223
-0.3117,-12.869628694872238
-0.3107000000000001,-12.346185513922174
-0.3097,-11.86659838326793
-0.3087000000000001,-11.343155202317865
-0.3077,-10.819712021367803
-0.3067000000000001,-10.296268840417738
-0.30569999999999997,-9.772825659467674
-0.3047000000000001,-9.205526428221793
-0.30369999999999997,-8.725939297567548
-0.3027000000000001,-8.202496116617484
-0.30169999999999997,-7.7653503249591855
-0.3007000000000001,-7.28576319430494
-0.29969999999999997,-6.893888164242324
-0.2987000000000001,-6.458157083883892
-0.29769999999999996,-6.021011292225596
-0.2967000000000001,-5.585280211867165
-0.29569999999999996,-5.105693081212917
-0.2947000000000001,-4.626105950558669
-0.29369999999999996,-4.1889601589003735
-0.29270000000000007,-3.7532290785419424
-0.29169999999999996,-3.361354048479327
-0.29070000000000007,-3.0119203574126634
-0.28969999999999996,-2.662486666345999
-0.28870000000000007,-2.2706116362833835
-0.28769999999999996,-1.8773218949209036
-0.28670000000000007,-1.4854468648582886
-0.28569999999999995,-1.0925815368857679
-0.28470000000000006,-0.6564260431373771
-0.28369999999999995,-0.26384365742482935
-0.28270000000000006,0.04140859974704963
-0.28169999999999995,0.3903188476327636
-0.28070000000000006,0.7393281253094681
-0.27969999999999995,1.0010497157844997
-0.27870000000000006,1.3063444142953748
-0.27769999999999995,1.655212220842093
-0.27670000000000006,1.9607898616129409
-0.27569999999999995,2.352664891675556
-0.27470000000000006,2.658242532446404
-0.27369999999999994,3.0076762235130676
-0.27270000000000005,3.355695203279867
-0.27169999999999994,3.6174167937548987
-0.27070000000000005,3.8791383842299307
-0.26969999999999994,4.098418635709011
-0.26870000000000005,4.360140226184043
-0.26769999999999994,4.664303155655026
-0.26670000000000005,4.9698807964258735
-0.26569999999999994,5.231602386900906
-0.26470000000000005,5.537180027671754
