Potential V vs RHE, Current mA cm-2
0.013299999999999867,4.402581565179994
0.012299999999999978,2.396520941971372
0.011299999999999866,0.5211796428702795
0.010299999999999976,-1.3107300193249565
0.009299999999999864,-3.0996324580042955
0.008299999999999974,-4.843971490737885
0.007299999999999862,-6.54445447317566
0.006299999999999972,-8.158640066321666
0.00529999999999986,-9.772825659467674
0.0042999999999999705,-11.385596541313816
0.0032999999999998586,-12.913484745168056
0.0022999999999999687,-14.401761032626075
0.0012999999999998568,-15.830619445489761
0.00029999999999996696,-17.231183632356142
-0.000700000000000145,-18.589306480226583
-0.0017000000000000348,-19.93328221509837
-0.0027000000000001467,-21.2065223849769
-0.0037000000000000366,-22.508056780852733
-0.0047000000000001485,-23.823738289727217
-0.005700000000000038,-25.0828313466071
-0.00670000000000015,-26.34192440348698
-0.00770000000000004,-27.615164573365515
-0.008700000000000152,-28.8742576302454
-0.009700000000000042,-30.10505646112798
-0.010700000000000154,-31.36414951800786
-0.011700000000000044,-32.53835989689585
-0.012700000000000156,-33.755011614779775
-0.013700000000000045,-34.94336910666641
-0.014700000000000157,-36.07513814655844
-0.015700000000000047,-37.164465847454515
-0.01670000000000016,-38.29623488734655
-0.01770000000000005,-39.34312124924667
-0.01870000000000016,-40.43244895014274
-0.01970000000000005,-41.52177665103883
-0.020700000000000163,-42.568663012938956
-0.021700000000000053,-43.657990713835034
-0.022700000000000164,-44.704877075735155
-0.023700000000000054,-45.75176343763528
-0.024700000000000166,-46.79864979953541
-0.025700000000000056,-47.80309482243959
-0.026700000000000168,-48.80753984534376
-0.027700000000000058,-49.85442620724389
-0.02870000000000017,-50.85887123014807
-0.02970000000000006,-51.82087491405629
-0.03070000000000017,-52.82531993696047
-0.03170000000000006,-53.7873236208687
-0.03270000000000017,-54.69273885278232
-0.03370000000000006,-55.65474253669055
-0.034700000000000175,-56.61674622059877
-0.035700000000000065,-57.62119124350295
-0.03670000000000018,-58.583194927411164
-0.03770000000000007,-59.54519861131939
-0.03870000000000018,-60.54964363422357
-0.03970000000000007,-61.53994154412909
-0.04070000000000018,-62.501945228037314
-0.04170000000000007,-63.5063902509415
-0.04270000000000018,-64.51083527384567
-0.04370000000000007,-65.51528029674984
-0.044700000000000184,-66.47728398065809
-0.045700000000000074,-67.48172900356225
-0.046700000000000186,-68.38714423547587
-0.047700000000000076,-69.30670658038814
-0.04870000000000019,-70.22626892530042
-0.04970000000000008,-71.1458312702127
-0.05070000000000019,-72.10783495412092
-0.05170000000000008,-73.01325018603454
-0.05270000000000019,-73.97525386994278
-0.05370000000000008,-74.93725755385098
-0.05470000000000019,-75.8992612377592
-0.05570000000000008,-76.9037062606634
-0.056700000000000195,-77.90815128356756
-0.057700000000000085,-78.91259630647174
-0.058700000000000196,-79.86045287738132
-0.059700000000000086,-80.82245656128954
-0.0607000000000002,-81.74201890620182
-0.06170000000000009,-82.61913991211814
-0.0627000000000002,-83.48211380503581
-0.06370000000000009,-84.31679347195619
-0.0647000000000002,-85.13732602587791
-0.06570000000000009,-86.01444703179425
-0.0667000000000002,-86.89156803771054
-0.0677000000000001,-87.79698326962418
-0.0687000000000002,-88.6741042755405
-0.0697000000000001,-89.59366662045278
-0.07070000000000021,-90.55567030436099
-0.0717000000000001,-91.41864419727867
-0.07270000000000021,-92.33820654219093
-0.0737000000000001,-93.30021022609918
-0.07470000000000021,-94.21977257101145
-0.0757000000000001,-95.18177625491967
-0.07670000000000021,-96.0871914868333
-0.0777000000000001,-97.00675383174556
-0.07870000000000021,-97.88387483766188
-0.0797000000000001,-98.7892900695755
-0.08070000000000022,-99.75129375348374
-0.0817000000000001,-100.75573877638791
-0.08270000000000022,-101.71774246029614
-0.08370000000000011,-102.76462882219626
-0.08470000000000022,-103.76907384510045
-0.08570000000000011,-104.77351886800463
-0.08670000000000022,-105.7779638909088
-0.08770000000000011,-106.73996757481702
-0.08870000000000022,-107.64538280673065
-0.08970000000000011,-108.60738649063886
-0.09070000000000022,-109.52694883555114
-0.09170000000000011,-110.4465111804634
-0.09270000000000023,-111.26704373438514
-0.09370000000000012,-112.14416474030146
-0.09470000000000023,-112.96469729422319
-0.09570000000000012,-113.84181830013951
-0.09670000000000023,-114.76138064505177
-0.09770000000000012,-115.72338432896
-0.09870000000000023,-116.62879956087362
-0.09970000000000012,-117.59080324478184
-0.10070000000000023,-118.55280692869007
-0.10170000000000012,-119.51481061259831
-0.10270000000000024,-120.43437295751058
-0.10370000000000013,-121.33978818942418
-0.10470000000000024,-122.21690919534053
-0.10570000000000013,-123.09403020125686
-0.10670000000000024,-123.91456275517855
-0.10770000000000013,-124.66435974410705
-0.10870000000000024,-125.44245095903281
-0.10970000000000013,-126.23468928695722
-0.11070000000000024,-127.05522184087894
-0.11170000000000013,-127.93234284679528
-0.11270000000000002,-128.8094638527116
-0.11370000000000013,-129.7148790846252
-0.11470000000000002,-130.59200009054155
-0.11570000000000014,-131.46912109645783
-0.11670000000000003,-132.2896536503796
-0.11770000000000014,-133.08189197830401
-0.11870000000000003,-133.90242453222572
-0.11970000000000014,-134.69466286015015
-0.12070000000000003,-135.43031273607997
-0.12170000000000014,-136.1801097250084
-0.12270000000000003,-136.91575960093826
-0.12370000000000014,-137.6089681378721
-0.12470000000000003,-138.3163237878046
-0.12570000000000014,-139.05197366373446
-0.12670000000000003,-139.84421199165885
-0.12770000000000015,-140.5798618675887
-0.12870000000000004,-141.41454153450906
-0.12970000000000015,-142.17848563643616
-0.13070000000000004,-142.8858412863687
-0.13170000000000015,-143.5931969363012
-0.13270000000000004,-144.30055258623375
-0.13370000000000015,-145.00790823616626
-0.13470000000000004,-145.57379275611228
-0.13570000000000015,-146.1396772760583
-0.13670000000000004,-146.8470329259908
-0.13770000000000016,-147.4129174459368
-0.13870000000000005,-147.97880196588284
-0.13970000000000016,-148.54468648582886
-0.14070000000000005,-149.1105710057749
-0.14170000000000016,-149.6764555257209
-0.14270000000000005,-150.24234004566688
-0.14370000000000016,-150.8082245656129
-0.14470000000000005,-151.5155802155454
-0.14570000000000016,-152.0814647354914
-0.14670000000000005,-152.64734925543743
-0.14770000000000016,-153.21323377538346
-0.14870000000000005,-153.77911829532948
-0.14970000000000017,-154.3450028152755
-0.15070000000000006,-154.9108873352215
-0.15170000000000017,-155.47677185516753
-0.15270000000000006,-156.04265637511355
-0.15370000000000017,-156.46706976507306
-0.15470000000000006,-156.89148315503257
-0.15570000000000017,-157.31589654499206
-0.15670000000000006,-157.7403099349516
-0.15770000000000017,-158.1647233249111
-0.15870000000000006,-158.5891367148706
-0.15970000000000018,-159.01355010483013
-0.16070000000000007,-159.43796349478964
-0.16170000000000018,-159.72090575476264
-0.16270000000000007,-160.00384801473567
-0.16370000000000018,-160.28679027470866
-0.16470000000000007,-160.71120366466818
-0.16570000000000018,-160.8526747946547
-0.16670000000000007,-161.1356170546277
-0.16770000000000018,-161.41855931460069
-0.16870000000000007,-161.70150157457368
-0.16970000000000018,-161.84297270456022
-0.17070000000000007,-162.12591496453322
-0.17170000000000019,-162.40885722450622
-0.17270000000000008,-162.5503283544927
-0.1737000000000002,-162.8332706144657
-0.17470000000000008,-162.97474174445222
-0.1757000000000002,-163.11621287443873
-0.17670000000000008,-163.11621287443873
-0.1777000000000002,-163.11621287443873
-0.17870000000000008,-162.97474174445222
-0.1797000000000002,-162.8332706144657
-0.18070000000000008,-162.6917994844792
-0.1817000000000002,-162.6917994844792
-0.18270000000000008,-162.5503283544927
-0.1837000000000002,-162.40885722450622
-0.1847000000000001,-162.40885722450622
-0.1857000000000002,-162.2673860945197
-0.1867000000000001,-162.12591496453322
-0.1877000000000002,-162.2673860945197
-0.1887000000000001,-162.2673860945197
-0.1897000000000002,-162.40885722450622
-0.1907000000000001,-162.5503283544927
-0.1917000000000001,-162.5503283544927
-0.19269999999999998,-162.6917994844792
-0.1937000000000001,-162.5503283544927
-0.19469999999999998,-162.5503283544927
-0.1957000000000001,-162.5503283544927
-0.19669999999999999,-162.5503283544927
-0.1977000000000001,-162.40885722450622
-0.1987,-162.2673860945197
-0.1997000000000001,-161.9844438345467
-0.2007,-161.84297270456022
-0.2017000000000001,-161.5600304445872
-0.2027,-161.1356170546277
-0.2037000000000001,-160.8526747946547
-0.2047,-160.42826140469515
-0.2057000000000001,-160.14531914472215
-0.2067,-159.72090575476264
-0.2077000000000001,-159.29649236480313
-0.2087,-159.01355010483013
-0.2097000000000001,-158.4476655848841
-0.2107,-158.02325219492457
-0.2117000000000001,-157.45736767497857
-0.2127,-157.03295428501906
-0.2137000000000001,-156.32559863508658
-0.2147,-155.90118524512707
-0.2157000000000001,-155.33530072518104
-0.2167,-154.76941620523502
-0.21770000000000012,-154.203531685289
-0.2187,-153.63764716534297
-0.21970000000000012,-153.07176264539694
-0.2207,-152.64734925543743
-0.22170000000000012,-152.0814647354914
-0.2227,-151.5155802155454
-0.22370000000000012,-150.94969569559944
-0.2247,-150.5252823056399
-0.22570000000000012,-149.95939778569388
-0.2267,-149.39351326574788
-0.22770000000000012,-148.82762874580186
-0.22870000000000001,-148.12027309586935
-0.22970000000000013,-147.55438857592333
-0.23070000000000002,-146.8470329259908
-0.23170000000000013,-146.1396772760583
-0.23270000000000002,-145.43232162612577
-0.23370000000000013,-144.72496597619326
-0.23470000000000002,-143.87613919627424
-0.23570000000000013,-143.16878354634173
-0.23670000000000002,-142.4614278964092
-0.2376999999999999,-141.61260111649017
-0.23870000000000002,-140.79206856256846
-0.2396999999999999,-139.8866533306548
-0.24070000000000003,-138.92464964674662
-0.24169999999999991,-138.04752864083028
-0.24270000000000003,-137.1845547479126
-0.24369999999999992,-136.3923164199882
-0.24470000000000003,-135.5576367530678
-0.24569999999999992,-134.86442821613394
-0.24670000000000003,-134.256102357192
-0.24769999999999992,-133.5628938202581
-0.24870000000000003,-132.81309683132966
-0.24969999999999992,-131.99256427740792
-0.25070000000000003,-131.15788461048754
-0.2516999999999999,-130.32320494356716
-0.25270000000000004,-129.50267238964545
-0.2536999999999999,-128.62555138372915
-0.25470000000000004,-127.76257749081147
-0.2556999999999999,-126.97033916288706
-0.25670000000000004,-126.19224794796128
-0.25769999999999993,-125.40000962003687
-0.25870000000000004,-124.57947706611512
-0.25969999999999993,-123.74479739919475
-0.26070000000000004,-122.95255907127036
-0.26169999999999993,-122.25935053433648
-0.26270000000000004,-121.56614199740261
-0.26369999999999993,-120.95781613846064
-0.26470000000000005,-120.29290182752408
-0.26569999999999994,-119.68457596858211
-0.26670000000000005,-118.99136743164823
-0.26769999999999994,-118.24157044271978
-0.26870000000000005,-117.3785965498021
-0.26969999999999994,-116.45903420488982
-0.27070000000000005,-115.4970305209816
-0.27169999999999994,-114.4925854980774
-0.27270000000000005,-113.53058181416918
-0.27369999999999994,-112.58272524325962
-0.27470000000000006,-111.57828022035544
-0.27569999999999995,-110.57383519745127
-0.27670000000000006,-109.61183151354304
-0.27769999999999995,-108.64982782963483
-0.27870000000000006,-107.78685393671715
-0.27969999999999995,-106.95217426979677
-0.28070000000000006,-106.15993594187235
-0.28169999999999995,-105.46672740493848
-0.28270000000000006,-104.77351886800463
-0.28369999999999995,-104.06616321807209
-0.28470000000000006,-103.37295468113824
-0.28569999999999995,-102.76462882219626
-0.28670000000000007,-102.1563029632543
-0.28769999999999996,-101.54797710431234
-0.28870000000000007,-100.98209258436633
-0.28969999999999996,-100.40206095142165
-0.29070000000000007,-99.7937350924797
-0.29169999999999996,-99.14296789454177
-0.29270000000000007,-98.4497593576079
-0.29369999999999996,-97.78484504667132
-0.2947000000000001,-97.09163650973747
-0.29569999999999996,-96.35598663380765
-0.2967000000000001,-95.60618964487918
-0.29769999999999996,-94.87053976894937
-0.2987000000000001,-94.13488989301955
-0.29969999999999997,-93.38509290409107
-0.3007000000000001,-92.6070016891653
-0.30169999999999997,-91.89964603923279
-0.3027000000000001,-91.24887884129487
-0.30369999999999997,-90.68299432134886
-0.3047000000000001,-90.15955114039879
-0.30569999999999997,-89.67854929844468
-0.3067000000000001,-89.19754745649055
-0.3077,-88.6741042755405
-0.3087000000000001,-88.10821975559449
-0.3097,-87.54233523564847
-0.3107000000000001,-87.01889205469841
-0.3117,-86.49544887374834
-0.3127000000000001,-85.92956435380233
-0.3137,-85.36367983385631
-0.3147000000000001,-84.7977953139103
-0.3157,-84.27435213296022
-0.3167000000000001,-83.75090895201016
-0.3177,-83.31234844905201
-0.3187000000000001,-82.95867062408576
-0.3197,-82.6615812511141
-0.3207000000000001,-82.47766878213164
-0.3217,-82.30790342614785
-0.3227000000000001,-82.13813807016405
-0.3237,-81.95422560118158
-0.3247000000000001,-81.78446024519776
-0.3257,-81.51566509822342
-0.3267000000000001,-81.21857572525175
-0.3277,-80.86489790028548
-0.3287000000000001,-80.56780852731384
-0.3297,-80.17168936335163
-0.3307000000000001,-79.81801153838538
-0.3317,-79.47848082641775
-0.3327000000000001,-79.08236166245555
-0.3337,-78.72868383748929
-0.3347000000000001,-78.38915312552167
-0.3357,-78.07791663955136
-0.3367000000000001,-77.80912149257702
-0.3377,-77.59691479759726
-0.3387000000000001,-77.42714944161345
-0.3397,-77.38470810261751
-0.3407000000000001,-77.34226676362155
-0.3417,-77.28567831162695
-0.3427000000000001,-77.243236972631
-0.3437,-77.20079563363505
-0.3447000000000001,-77.1583542946391
-0.3457,-77.11591295564315
-0.3467000000000001,-77.03103027765125
-0.3477,-76.94614759965934
-0.3487000000000001,-76.81882358267148
-0.3497,-76.67735245268499
-0.3507000000000001,-76.55002843569714
-0.3517,-76.38026307971333
-0.3527000000000001,-76.19635061073087
-0.3537,-76.02658525474708
-0.3547000000000001,-75.8992612377592
-0.3557,-75.77193722077136
-0.35670000000000013,-75.71534876877676
-0.3577,-75.77193722077136
-0.35870000000000013,-75.77193722077136
-0.3597,-75.77193722077136
-0.36070000000000013,-75.81437855976732
-0.3617,-75.8992612377592
-0.3626999999999999,-75.94170257675518
-0.3637,-76.11146793273898
-0.3646999999999999,-76.19635061073087
-0.3657,-76.33782174071737
-0.3666999999999999,-76.50758709670117
-0.3677,-76.63491111368903
-0.3686999999999999,-76.81882358267148
-0.36970000000000003,-77.0734716166472
-0.3706999999999999,-77.28567831162695
-0.37170000000000003,-77.55447345860131
-0.3726999999999999,-77.76668015358106
-0.37370000000000003,-77.99303396155948
-0.3746999999999999,-78.16279931754329
-0.37570000000000003,-78.38915312552167
-0.3766999999999999,-78.55891848150549
-0.37770000000000004,-78.77112517648524
-0.3786999999999999,-79.0399203234596
-0.37970000000000004,-79.25212701843935
-0.3806999999999999,-79.52092216541372
-0.38170000000000004,-79.7755701993894
-0.38269999999999993,-80.08680668535972
-0.38370000000000004,-80.34145471933543
-0.38469999999999993,-80.65269120530574
-0.38570000000000004,-80.9497805782774
-0.38669999999999993,-79.73312886039348
-0.38570000000000004,-75.98414391575112
-0.38469999999999993,-72.57468968307639
-0.38370000000000004,-69.3491479193841
-0.38269999999999993,-66.34995996367022
-0.38170000000000004,-63.59127292893339
-0.3806999999999999,-61.07308681517363
-0.37970000000000004,-58.66807760540307
-0.3786999999999999,-56.404539525619015
-0.37770000000000004,-54.26832546282281
-0.3766999999999999,-52.2169940780185
-0.37570000000000003,-50.335428049198
-0.3746999999999999,-48.51045047237211
-0.37370000000000003,-46.79864979953541
-0.3726999999999999,-45.143437578693316
-0.37170000000000003,-43.53066669684718
-0.3706999999999999,-42.00277849299294
-0.36970000000000003,-40.4748902891387
-0.3686999999999999,-38.94700208528445
-0.3677,-37.56058501141672
-0.3666999999999999,-36.11757948555439
-0.3657,-34.75945663768395
-0.3646999999999999,-33.41548090281216
-0.3637,-32.14224073293363
-0.3626999999999999,-30.925589015049702
-0.3617,-29.751378636161718
-0.36070000000000013,-28.577168257273744
-0.3597,-27.43125210438306
-0.35870000000000013,-26.34192440348698
-0.3577,-25.252596702590903
-0.35670000000000013,-24.20571034069078
-0.3557,-23.15882397879065
-0.3547000000000001,-22.15437895588647
-0.3537,-21.065051254990397
-0.3527000000000001,-20.10304757108217
-0.3517,-19.112749661176647
-0.3507000000000001,-18.15074597726842
-0.3497,-17.188742293360193
-0.3487000000000001,-16.311621287443874
-0.3477,-15.448647394526201
-0.3467000000000001,-14.57152638860988
-0.3457,-13.784946905884919
-0.3447000000000001,-12.913484745168056
-0.3437,-12.12831997374296
-0.3427000000000001,-11.343155202317865
-0.3417,-10.557990430892769
-0.3407000000000001,-9.772825659467674
-0.3397,-9.031516938338395
-0.3387000000000001,-8.246352166913299
-0.3377,-7.50504344578402
-0.3367000000000001,-6.762320013354876
-0.3357,-5.977155241929781
-0.3347000000000001,-5.279702571096316
-0.3337,-4.582249900262854
-0.3327000000000001,-3.927238568425342
-0.3317,-3.2297858975918787
-0.3307000000000001,-2.618630616050183
-0.3297,-1.9650339955125358
-0.3287000000000001,-1.3543031273607997
-0.3277,-0.7872868383748929
-0.3267000000000001,-0.1330535977523067
-0.3257,0.43403342679859325
-0.3247000000000001,1.0446228238203432
-0.3237,1.655212220842093
-0.3227000000000001,2.2663675023837886
-0.3217,2.8761080726256196
-0.3207000000000001,3.4872633541673155
-0.3197,4.054562585413195
-0.3187000000000001,4.6218618166590755
-0.3177,5.145304997609139
-0.3167000000000001,5.667333467259336
-0.3157,6.1907766482094
-0.3147000000000001,6.671778490163514
-0.3137,7.15136562081776
-0.3127000000000001,7.630952751472008
-0.3117,8.110539882126256
-0.3107000000000001,8.590127012780503
-0.3097,9.113570193730567
-0.3087000000000001,9.593157324384812
-0.3077,10.07274445503906
-0.3067000000000001,10.553746296993173
-0.30569999999999997,11.077189477943236
-0.3047000000000001,11.556776608597485
-0.30369999999999997,11.992507688955916
-0.3027000000000001,12.428238769314348
-0.30169999999999997,12.865384560972643
-0.3007000000000001,13.257259591035258
-0.29969999999999997,13.65054933239774
-0.2987000000000001,13.954712261868721
-0.29769999999999996,14.345172580631472
-0.2967000000000001,14.741291744593681
-0.29569999999999996,15.094969569559943
-0.2947000000000001,15.4769416205235
-0.29369999999999996,15.87306078448571
-0.29270000000000007,16.311621287443874
-0.29169999999999996,16.665299112410132
-0.29070000000000007,17.047271163373694
-0.28969999999999996,17.4433903273359
-0.28870000000000007,17.839509491298113
-0.28769999999999996,18.19318731626437
-0.28670000000000007,18.53271802823198
-0.28569999999999995,18.843954514202288
-0.28470000000000006,19.141043887173947
-0.28369999999999995,19.49472171214021
-0.28270000000000006,19.805958198110513
-0.28169999999999995,20.14548891007812
-0.28070000000000006,20.456725396048434
-0.27969999999999995,20.75381476902009
-0.27870000000000006,21.107492593986347
-0.27769999999999995,21.418729079956652
-0.27670000000000006,21.758259791924264
-0.27569999999999995,22.111937616890522
-0.27470000000000006,22.36658565086623
-0.27369999999999994,22.67782213683654
-0.27270000000000005,22.989058622806844
-0.27169999999999994,23.24370665678255
-0.27070000000000005,23.47006046476096
-0.26969999999999994,23.724708498736668
-0.26870000000000005,23.93691519371642
-0.26769999999999994,24.20571034069078
-0.26670000000000005,24.460358374666487
-0.26569999999999994,24.729153521640843
-0.26470000000000005,24.983801555616548
