Potential V vs RHE, Current mA cm-2
0.013299999999999867,5.18774633660509
0.012299999999999978,3.2693978139880997
0.011299999999999866,1.4373466806628774
0.010299999999999976,-0.3511313446265021
0.009299999999999864,-2.052746096104168
0.008299999999999974,-3.7093730282461257
0.007299999999999862,-5.323558621392133
0.006299999999999972,-6.893888164242324
0.00529999999999986,-8.376505606500881
0.0042999999999999705,-9.772825659467674
0.0032999999999998586,-11.123874950838783
0.0022999999999999687,-12.432482903213943
0.0012999999999998568,-13.698649516593148
0.00029999999999996696,-14.967645552572087
-0.000700000000000145,-16.22673860945197
-0.0017000000000000348,-17.4433903273359
-0.0027000000000001467,-18.716630497214435
-0.0037000000000000366,-19.97572355409432
-0.0047000000000001485,-21.2065223849769
-0.005700000000000038,-22.33829142486893
-0.00670000000000015,-23.47006046476096
-0.00770000000000004,-24.516946826661083
-0.008700000000000152,-25.563833188561212
-0.009700000000000042,-26.61071955046134
-0.010700000000000154,-27.65760591236147
-0.011700000000000044,-28.662050935265643
-0.012700000000000156,-29.708937297165768
-0.013700000000000045,-30.71338232006995
-0.014700000000000157,-31.717827342974125
-0.015700000000000047,-32.66568391388369
-0.01670000000000016,-33.58524625879597
-0.01770000000000005,-34.5472499427042
-0.01870000000000016,-35.50925362661242
-0.01970000000000005,-36.47125731052064
-0.020700000000000163,-37.376672542434264
-0.021700000000000053,-38.33867622634249
-0.022700000000000164,-39.30067991025072
-0.023700000000000054,-40.26268359415894
-0.024700000000000166,-41.182245939071215
-0.025700000000000056,-42.00277849299294
-0.026700000000000168,-42.837458159913304
-0.027700000000000058,-43.70043205283099
-0.02870000000000017,-44.577553058747306
-0.02970000000000006,-45.45467406466363
-0.03070000000000017,-46.37423640957591
-0.03170000000000006,-47.27965164148953
-0.03270000000000017,-48.24165532539775
-0.03370000000000006,-49.20365900930597
-0.034700000000000175,-50.0807800152223
-0.035700000000000065,-50.90131256914402
-0.03670000000000018,-51.77843357506035
-0.03770000000000007,-52.55652478998611
-0.03870000000000018,-53.39120445690648
-0.03970000000000007,-54.2117370108282
-0.04070000000000018,-55.088858016744524
-0.04170000000000007,-55.96597902266086
-0.04270000000000018,-56.82895291557852
-0.04370000000000007,-57.7485152604908
-0.044700000000000184,-58.66807760540307
-0.045700000000000074,-59.502757272323436
-0.046700000000000186,-60.32328982624517
-0.047700000000000076,-61.15796949316553
-0.04870000000000019,-61.97850204708726
-0.04970000000000008,-62.89806439199953
-0.05070000000000019,-63.77518539791585
-0.05170000000000008,-64.63815929083353
-0.05270000000000019,-65.5577216357458
-0.05370000000000008,-66.47728398065809
-0.05470000000000019,-67.34025787357575
-0.05570000000000008,-68.17493754049613
-0.056700000000000195,-68.96717586842054
-0.057700000000000085,-69.70282574435035
-0.058700000000000196,-70.48091695927613
-0.059700000000000086,-71.31559662619651
-0.0607000000000002,-72.19271763211282
-0.06170000000000009,-73.01325018603454
-0.0627000000000002,-73.93281253094682
-0.06370000000000009,-74.8523748758591
-0.0647000000000002,-75.77193722077136
-0.06570000000000009,-76.63491111368903
-0.0667000000000002,-77.42714944161345
-0.0677000000000001,-78.24768199553519
-0.0687000000000002,-79.1248030014515
-0.0697000000000001,-80.00192400736783
-0.07070000000000021,-80.90733923928146
-0.0717000000000001,-81.78446024519776
-0.07270000000000021,-82.70402259011003
-0.0737000000000001,-83.75090895201016
-0.07470000000000021,-84.7977953139103
-0.0757000000000001,-85.84468167581042
-0.07670000000000021,-86.75009690772404
-0.0777000000000001,-87.54233523564847
-0.07870000000000021,-88.32042645057423
-0.0797000000000001,-89.15510611749461
-0.08070000000000022,-89.94734444541903
-0.0817000000000001,-90.68299432134886
-0.08270000000000022,-91.33376151928677
-0.08370000000000011,-92.04111716921928
-0.08470000000000022,-92.73432570615316
-0.08570000000000011,-93.38509290409107
-0.08670000000000022,-93.99341876303303
-0.08770000000000011,-94.55930328297906
-0.08870000000000022,-95.30910027190752
-0.08970000000000011,-96.0871914868333
-0.09070000000000022,-96.96431249274961
-0.09170000000000011,-97.88387483766188
-0.09270000000000023,-98.74684873057957
-0.09370000000000012,-99.62396973649588
-0.09470000000000023,-100.40206095142165
-0.09570000000000012,-101.06697526235823
-0.09670000000000023,-101.6753011213002
-0.09770000000000012,-102.19874430225026
-0.09870000000000023,-102.80707016119221
-0.09970000000000012,-103.41539602013418
-0.10070000000000023,-103.98128054008019
-0.10170000000000012,-104.58960639902216
-0.10270000000000024,-105.25452070995874
-0.10370000000000013,-105.90528790789664
-0.10470000000000024,-106.55605510583456
-0.10570000000000013,-107.20682230377247
-0.10670000000000024,-107.87173661470905
-0.10770000000000013,-108.52250381264696
-0.10870000000000024,-109.13082967158894
-0.10970000000000013,-109.8240382085228
-0.11070000000000024,-110.57383519745127
-0.11170000000000013,-111.18216105639323
-0.11270000000000002,-111.83292825433115
-0.11370000000000013,-112.44125411327312
-0.11470000000000002,-113.00713863321914
-0.11570000000000014,-113.58717026616378
-0.11670000000000003,-114.11061344711386
-0.11770000000000014,-114.67649796705987
-0.11870000000000003,-115.2423824870059
-0.11970000000000014,-115.72338432896
-0.12070000000000003,-116.20438617091412
-0.12170000000000014,-116.58635822187767
-0.12270000000000003,-117.06736006383179
-0.12370000000000014,-117.50592056678994
-0.12470000000000003,-117.90203973075215
-0.12570000000000014,-118.1991291037238
-0.12670000000000003,-118.59524826768603
-0.12770000000000015,-118.99136743164823
-0.12870000000000004,-119.51481061259831
-0.12970000000000015,-119.95337111555646
-0.13070000000000004,-120.29290182752408
-0.13170000000000015,-120.60413831349437
-0.13270000000000004,-120.85878634747009
-0.13370000000000015,-121.12758149444444
-0.13470000000000004,-121.38222952842017
-0.13570000000000015,-121.77834869238235
-0.13670000000000004,-122.21690919534053
-0.13770000000000016,-122.65546969829869
-0.13870000000000005,-123.09403020125686
-0.13970000000000016,-123.34867823523254
-0.14070000000000005,-123.532590704215
-0.14170000000000016,-123.6174733822069
-0.14270000000000005,-123.65991472120285
-0.14370000000000016,-123.65991472120285
-0.14470000000000005,-123.6174733822069
-0.14570000000000016,-123.532590704215
-0.14670000000000005,-123.4760022522204
-0.14770000000000016,-123.57503204321095
-0.14870000000000005,-123.70235606019881
-0.14970000000000017,-123.91456275517855
-0.15070000000000006,-124.14091656315696
-0.15170000000000017,-124.43800593612862
-0.15270000000000006,-124.7916837610949
-0.15370000000000017,-125.18780292505707
-0.15470000000000006,-125.48489229802875
-0.15570000000000017,-125.6688047670112
-0.15670000000000006,-125.7536874450031
-0.15770000000000017,-125.6688047670112
-0.15870000000000006,-125.48489229802875
-0.15970000000000018,-125.10292024706521
-0.16070000000000007,-124.74924242209892
-0.16170000000000018,-124.39556459713268
-0.16270000000000007,-123.95700409417452
-0.16370000000000018,-123.4760022522204
-0.16470000000000007,-122.91011773227437
-0.16570000000000018,-122.48570434231489
-0.16670000000000007,-122.1320265173486
-0.16770000000000018,-121.96226116136481
-0.16870000000000007,-121.82079003137831
-0.16970000000000018,-121.69346601439047
-0.17070000000000007,-121.60858333639854
-0.17170000000000019,-121.56614199740261
-0.17270000000000008,-121.43881798041474
-0.1737000000000002,-121.2549055114323
-0.17470000000000008,-120.95781613846064
-0.1757000000000002,-120.51925563550247
-0.17670000000000008,-120.03825379354835
-0.1777000000000002,-119.55725195159425
-0.17870000000000008,-119.07625010964013
-0.1797000000000002,-118.55280692869007
-0.18070000000000008,-117.98692240874406
-0.1817000000000002,-117.59080324478184
-0.18270000000000008,-117.19468408081964
-0.1837000000000002,-116.81271202985609
-0.1847000000000001,-116.45903420488982
-0.1857000000000002,-115.93559102393975
-0.1867000000000001,-115.4121478429897
-0.1877000000000002,-114.84626332304367
-0.1887000000000001,-114.3228201420936
-0.1897000000000002,-113.71449428315165
-0.1907000000000001,-113.14860976320564
-0.1917000000000001,-112.66760792125153
-0.19269999999999998,-112.22904741829338
-0.1937000000000001,-111.7904869153352
-0.19469999999999998,-111.35192641237703
-0.1957000000000001,-110.82848323142699
-0.19669999999999999,-110.3050400504769
-0.1977000000000001,-109.69671419153494
-0.1987,-109.04594699359701
-0.1997000000000001,-108.2537086656726
-0.2007,-107.47561745074682
-0.2017000000000001,-106.73996757481702
-0.2027,-106.0326119248845
-0.2037000000000001,-105.38184472694657
-0.2047,-104.68863619001272
-0.2057000000000001,-103.98128054008019
-0.2067,-103.20318932515443
-0.2077000000000001,-102.36850965823406
-0.2087,-101.63285978230424
-0.2097000000000001,-100.98209258436633
-0.2107,-100.45864940341626
-0.2117000000000001,-99.87861777047159
-0.2127,-99.35517458952152
-0.2137000000000001,-98.7044073915836
-0.2147,-97.84143349866595
-0.2157000000000001,-96.96431249274961
-0.2167,-96.0871914868333
-0.21770000000000012,-95.12518780292505
-0.2187,-94.17733123201549
-0.21970000000000012,-93.21532754810727
-0.2207,-92.42308922018285
-0.22170000000000012,-91.77232202224494
-0.2227,-91.20643750229891
-0.22370000000000012,-90.68299432134886
-0.2247,-90.15955114039879
-0.22570000000000012,-89.55122528145681
-0.2267,-88.9004580835189
-0.22770000000000012,-88.19310243358639
-0.22870000000000001,-87.41501121866061
-0.22970000000000013,-86.5378902127443
-0.23070000000000002,-85.61832786783202
-0.23170000000000013,-84.7129126359184
-0.23270000000000002,-83.92067430799398
-0.23370000000000013,-83.14258309306821
-0.23470000000000002,-82.35034476514379
-0.23570000000000013,-81.61469488921396
-0.23670000000000002,-80.90733923928146
-0.2376999999999999,-80.29901338033947
-0.23870000000000002,-79.64824618240156
-0.2396999999999999,-78.9550376454677
-0.24070000000000003,-78.24768199553519
-0.24169999999999991,-77.59691479759726
-0.24270000000000003,-76.9037062606634
-0.24369999999999992,-76.29538040172143
-0.24470000000000003,-75.6729074297808
-0.24569999999999992,-75.02214023184291
-0.24670000000000003,-74.45625571189689
-0.24769999999999992,-73.80548851395896
-0.24870000000000003,-73.23960399401295
-0.24969999999999992,-72.67371947406694
-0.25070000000000003,-72.05124650212633
-0.2516999999999999,-71.52780332117625
-0.25270000000000004,-71.06094859222078
-0.2536999999999999,-70.57994675026669
-0.25470000000000004,-70.09894490831257
-0.2556999999999999,-69.53306038836655
-0.25670000000000004,-69.05205854641244
-0.25769999999999993,-68.52861536546239
-0.25870000000000004,-68.13249620150016
-0.25969999999999993,-67.65149435954605
-0.26070000000000004,-67.25537519558385
-0.26169999999999993,-66.87340314462028
-0.26270000000000004,-66.51972531965401
-0.26369999999999993,-66.12360615569182
-0.26470000000000005,-65.68504565273366
-0.26569999999999994,-65.16160247178358
-0.26670000000000005,-64.59571795183757
-0.26769999999999994,-63.98739209289561
-0.26870000000000005,-63.37906623395363
-0.26969999999999994,-62.81318171400764
-0.27070000000000005,-62.33217987205352
-0.27169999999999994,-61.89361936909536
-0.27270000000000005,-61.63897133511965
-0.27369999999999994,-61.327734849149344
-0.27470000000000006,-61.07308681517363
-0.27569999999999995,-60.761850329203334
-0.27670000000000006,-60.40817250423707
-0.27769999999999995,-60.02620045327351
-0.27870000000000006,-59.67252262830725
-0.27969999999999995,-59.27640346434504
-0.28070000000000006,-58.97931409137338
-0.28169999999999995,-58.583194927411164
-0.28270000000000006,-58.27195844144086
-0.28369999999999995,-58.05975174646111
-0.28470000000000006,-57.79095659948675
-0.28569999999999995,-57.493867226515086
-0.28670000000000007,-57.22507207954074
-0.28769999999999996,-56.88554136757313
-0.28870000000000007,-56.65918755959472
-0.28969999999999996,-56.404539525619015
-0.29070000000000007,-56.13574437864466
-0.29169999999999996,-55.9235376836649
-0.29270000000000007,-55.6971838756865
-0.29369999999999996,-55.527418519702685
-0.2947000000000001,-55.400094502714836
-0.29569999999999996,-55.17374069473642
-0.2967000000000001,-54.961533999756675
-0.29769999999999996,-54.834209982768826
-0.2987000000000001,-54.73518019177827
-0.29969999999999997,-54.60785617479041
-0.3007000000000001,-54.52297349679851
-0.30169999999999997,-54.39564947981066
-0.3027000000000001,-54.31076680181876
-0.30369999999999997,-54.16929567183226
-0.3047000000000001,-54.0419716548444
-0.30569999999999997,-53.872206298860604
-0.3067000000000001,-53.64585249088219
-0.3077,-53.476087134898386
-0.3087000000000001,-53.348763117910536
-0.3097,-53.26388043991864
-0.3107000000000001,-53.16485064892808
-0.3117,-53.16485064892808
-0.3127000000000001,-53.16485064892808
-0.3137,-53.16485064892808
-0.3147000000000001,-53.16485064892808
-0.3157,-53.12240930993213
-0.3167000000000001,-53.03752663194023
-0.3177,-52.95264395394832
-0.3187000000000001,-52.86776127595642
-0.3197,-52.78287859796452
-0.3207000000000001,-52.78287859796452
-0.3217,-52.74043725896857
-0.3227000000000001,-52.74043725896857
-0.3237,-52.82531993696047
-0.3247000000000001,-52.86776127595642
-0.3257,-52.91020261495237
-0.3267000000000001,-52.91020261495237
-0.3277,-52.91020261495237
-0.3287000000000001,-52.95264395394832
-0.3297,-53.03752663194023
-0.3307000000000001,-53.16485064892808
-0.3317,-53.26388043991864
-0.3327000000000001,-53.433645795902436
-0.3337,-53.56096981289029
-0.3347000000000001,-53.68829382987814
-0.3357,-53.7873236208687
-0.3367000000000001,-53.872206298860604
-0.3377,-53.91464763785655
-0.3387000000000001,-53.999530315848446
-0.3397,-54.08441299384035
-0.3407000000000001,-54.2117370108282
-0.3417,-54.35320814081471
-0.3427000000000001,-54.52297349679851
-0.3437,-54.69273885278232
-0.3447000000000001,-54.919092660760725
-0.3457,-55.088858016744524
-0.3467000000000001,-55.17374069473642
-0.3477,-55.357653163718886
-0.3487000000000001,-55.484977180706736
-0.3497,-55.65474253669055
-0.3507000000000001,-55.881096344668954
-0.3517,-56.093303039648696
-0.3527000000000001,-56.30550973462846
-0.3537,-56.57430488160282
-0.3547000000000001,-56.786511576582576
-0.3557,-57.012865384560975
-0.35670000000000013,-57.182630740544774
-0.3577,-57.352396096528594
-0.35870000000000013,-57.62119124350295
-0.3597,-57.87583927747865
-0.36070000000000013,-58.22951710244491
-0.3617,-58.583194927411164
-0.3626999999999999,-58.92272563937878
-0.3637,-59.31884480334099
-0.3646999999999999,-59.67252262830725
-0.3657,-60.02620045327351
-0.3666999999999999,-60.40817250423707
-0.3677,-60.761850329203334
-0.3686999999999999,-61.15796949316553
-0.36970000000000003,-61.49750020513315
-0.3706999999999999,-61.80873669110345
-0.37170000000000003,-62.16241451606972
-0.3726999999999999,-62.544386567033264
-0.37370000000000003,-62.89806439199953
-0.3746999999999999,-63.251742216965795
-0.37570000000000003,-63.633714267929356
-0.3766999999999999,-64.02983343189156
-0.37770000000000004,-64.34106991786187
-0.3786999999999999,-64.72304196882543
-0.37970000000000004,-65.11916113278764
-0.3806999999999999,-65.5577216357458
-0.38170000000000004,-65.99628213870396
-0.38269999999999993,-66.51972531965401
-0.38370000000000004,-67.00072716160814
-0.38469999999999993,-67.43928766456631
-0.38570000000000004,-67.82125971552985
-0.38669999999999993,-66.77437335362974
-0.38570000000000004,-63.29418355596174
-0.38469999999999993,-60.28084848724921
-0.38370000000000004,-57.66363258249889
-0.38269999999999993,-55.17374069473642
-0.38170000000000004,-52.95264395394832
-0.3806999999999999,-50.943753908139975
-0.37970000000000004,-49.118776331314066
-0.3786999999999999,-47.46356411047198
-0.37770000000000004,-45.89323456762179
-0.3766999999999999,-44.4077877027635
-0.37570000000000003,-42.92234083790521
-0.3746999999999999,-41.52177665103883
-0.37370000000000003,-40.220242255162994
-0.3726999999999999,-38.98944342428042
-0.37170000000000003,-37.77279170639648
-0.3706999999999999,-36.64102266650445
-0.36970000000000003,-35.55169496560837
-0.3686999999999999,-34.462367264712285
-0.3677,-33.330598224820264
-0.3666999999999999,-32.14224073293363
-0.3657,-31.010471693041605
-0.3646999999999999,-29.878702653149578
-0.3637,-28.789374952253496
-0.3626999999999999,-27.742488590353368
-0.3617,-26.69560222845324
-0.36070000000000013,-25.73359854454502
-0.3597,-24.814036199632742
-0.35870000000000013,-23.951062306715073
-0.3577,-23.15882397879065
-0.35670000000000013,-22.33829142486893
-0.3557,-21.503611757948562
-0.3547000000000001,-20.72552054302279
-0.3537,-19.97572355409432
-0.3527000000000001,-19.28251501716045
-0.3517,-18.589306480226583
-0.3507000000000001,-17.839509491298113
-0.3497,-17.146300954364243
-0.3487000000000001,-16.396503965435777
-0.3477,-15.575971411514052
-0.3467000000000001,-14.826174422585586
-0.3457,-14.046668496359947
-0.3447000000000001,-13.261503724934855
-0.3437,-12.56405105410139
-0.3427000000000001,-11.909039722263879
-0.3417,-11.299299152022046
-0.3407000000000001,-10.731999920776168
-0.3397,-10.164700689530287
-0.3387000000000001,-9.59740145828441
-0.3377,-9.031516938338395
-0.3367000000000001,-8.464217707092514
-0.3357,-7.853062425550818
-0.3347000000000001,-7.243321855308987
-0.3337,-6.719878674358924
-0.3327000000000001,-6.196435493408861
-0.3317,-5.672992312458796
-0.3307000000000001,-5.191990470504685
-0.3297,-4.626105950558669
-0.3287000000000001,-4.102662769608606
-0.3277,-3.579219588658543
-0.3267000000000001,-3.0119203574126634
-0.3257,-2.4884771764625997
-0.3247000000000001,-1.92117794521672
-0.3237,-1.4415908145624723
-0.3227000000000001,-1.0054353208140816
-0.3217,-0.5255652478998613
-0.3207000000000001,-0.1330535977523067
-0.3197,0.3031726315610774
-0.3187000000000001,0.7393281253094681
-0.3177,1.219056727093702
-0.3167000000000001,1.655212220842093
-0.3157,2.1347993514963406
-0.3147000000000001,2.5705304318547717
-0.3137,3.0076762235130676
-0.3127000000000001,3.3995512535756833
-0.3117,3.748984944642347
-0.3107000000000001,4.140859974704963
-0.3097,4.490293665771627
-0.3087000000000001,4.883583407134107
-0.3077,5.231602386900906
-0.3067000000000001,5.624892128263387
-0.30569999999999997,6.060623208621817
-0.3047000000000001,6.410056899688482
-0.30369999999999997,6.801931929751096
-0.3027000000000001,7.107509570521944
-0.30169999999999997,7.413087211292793
-0.3007000000000001,7.7186648520636405
-0.29969999999999997,8.022827781534623
-0.2987000000000001,8.328405422305472
-0.29769999999999996,8.677839113372134
-0.2967000000000001,9.025858093138934
-0.29569999999999996,9.419147834501414
-0.2947000000000001,9.724725475272262
-0.29369999999999996,10.03030311604311
-0.29270000000000007,10.334466045514093
-0.29169999999999996,10.596187635989125
-0.29070000000000007,10.815467887468206
-0.28969999999999996,11.033333427647422
-0.28870000000000007,11.295055018122452
-0.28769999999999996,11.6006326588933
-0.28670000000000007,11.904795588364284
-0.28569999999999995,12.166517178839316
-0.28470000000000006,12.472094819610163
-0.28369999999999995,12.733816410085195
-0.28270000000000006,12.995538000560227
-0.28169999999999995,13.213403540739444
-0.28070000000000006,13.431269080918659
-0.27969999999999995,13.65054933239774
-0.27870000000000006,13.91227092287277
-0.27769999999999995,14.175407224647667
-0.27670000000000006,14.430055258623375
-0.27569999999999995,14.741291744593681
-0.27470000000000006,14.953498439573437
-0.27369999999999994,15.179852247551842
-0.27270000000000005,15.3920589425316
-0.27169999999999994,15.575971411514052
-0.27070000000000005,15.74573676749786
-0.26969999999999994,15.91550212348166
-0.26870000000000005,16.141855931460068
-0.26769999999999994,16.354062626439823
-0.26670000000000005,16.622857773414182
-0.26569999999999994,16.877505807389888
-0.26470000000000005,17.089712502369647
