Sept. 1, 2024   12:08:21
Cyclic Voltammetry
File: c:/users/guazh/data/20240829_batch_215_500/2024-08-29-exp238\exp238-2024-09-01t12_03_26-arkoh\exp238_cv_50mvs_efin_-1400mv.bin
Data Source:  Experiment
Instrument Model:  CHI760E
Header: CV ran at 50 mVs
Note: 

Init E (V) = -1
High E (V) = -1
Low E (V) = -1.4
Final E (V) = -1
Init P/N = N
Scan Rate (V/s) = 0.05
Segment = 7
Sample Interval (V) = 0.001
Quiet Time (sec) = 60
Sensitivity (A/V) = 0.001
Comp R (ohm) = 1.8

Results:

Channel 1:
Segment 1:

Segment 2:

Segment 3:

Segment 4:

Segment 5:

Segment 6:

Segment 7:

Potential/V, Current/A

-1.000, 2.618e-6
-1.001, 3.856e-6
-1.002, 4.367e-6
-1.003, 4.656e-6
-1.004, 4.953e-6
-1.005, 5.199e-6
-1.006, 5.299e-6
-1.007, 5.516e-6
-1.008, 5.619e-6
-1.009, 5.769e-6
-1.010, 5.891e-6
-1.011, 6.011e-6
-1.012, 6.072e-6
-1.013, 6.204e-6
-1.014, 6.236e-6
-1.015, 6.372e-6
-1.016, 6.400e-6
-1.017, 6.504e-6
-1.018, 6.625e-6
-1.019, 6.647e-6
-1.020, 6.765e-6
-1.021, 6.834e-6
-1.022, 6.877e-6
-1.023, 6.929e-6
-1.024, 7.094e-6
-1.025, 7.088e-6
-1.026, 7.205e-6
-1.027, 7.195e-6
-1.028, 7.338e-6
-1.029, 7.358e-6
-1.030, 7.471e-6
-1.031, 7.561e-6
-1.032, 7.547e-6
-1.033, 7.645e-6
-1.034, 7.742e-6
-1.035, 7.802e-6
-1.036, 7.884e-6
-1.037, 7.952e-6
-1.038, 7.971e-6
-1.039, 8.131e-6
-1.040, 8.159e-6
-1.041, 8.288e-6
-1.042, 8.298e-6
-1.043, 8.410e-6
-1.044, 8.503e-6
-1.045, 8.573e-6
-1.046, 8.665e-6
-1.047, 8.718e-6
-1.048, 8.815e-6
-1.049, 8.882e-6
-1.050, 9.064e-6
-1.051, 9.061e-6
-1.052, 9.204e-6
-1.053, 9.236e-6
-1.054, 9.368e-6
-1.055, 9.474e-6
-1.056, 9.602e-6
-1.057, 9.639e-6
-1.058, 9.782e-6
-1.059, 9.873e-6
-1.060, 1.001e-5
-1.061, 1.007e-5
-1.062, 1.013e-5
-1.063, 1.030e-5
-1.064, 1.041e-5
-1.065, 1.055e-5
-1.066, 1.068e-5
-1.067, 1.079e-5
-1.068, 1.086e-5
-1.069, 1.105e-5
-1.070, 1.118e-5
-1.071, 1.128e-5
-1.072, 1.134e-5
-1.073, 1.151e-5
-1.074, 1.170e-5
-1.075, 1.185e-5
-1.076, 1.192e-5
-1.077, 1.209e-5
-1.078, 1.214e-5
-1.079, 1.237e-5
-1.080, 1.250e-5
-1.081, 1.258e-5
-1.082, 1.275e-5
-1.083, 1.286e-5
-1.084, 1.311e-5
-1.085, 1.320e-5
-1.086, 1.335e-5
-1.087, 1.348e-5
-1.088, 1.362e-5
-1.089, 1.379e-5
-1.090, 1.401e-5
-1.091, 1.407e-5
-1.092, 1.429e-5
-1.093, 1.443e-5
-1.094, 1.459e-5
-1.095, 1.483e-5
-1.096, 1.492e-5
-1.097, 1.511e-5
-1.098, 1.525e-5
-1.099, 1.544e-5
-1.100, 1.563e-5
-1.101, 1.579e-5
-1.102, 1.596e-5
-1.103, 1.619e-5
-1.104, 1.624e-5
-1.105, 1.653e-5
-1.106, 1.667e-5
-1.107, 1.684e-5
-1.108, 1.703e-5
-1.109, 1.724e-5
-1.110, 1.744e-5
-1.111, 1.762e-5
-1.112, 1.776e-5
-1.113, 1.798e-5
-1.114, 1.822e-5
-1.115, 1.840e-5
-1.116, 1.863e-5
-1.117, 1.877e-5
-1.118, 1.900e-5
-1.119, 1.923e-5
-1.120, 1.943e-5
-1.121, 1.960e-5
-1.122, 1.988e-5
-1.123, 2.009e-5
-1.124, 2.037e-5
-1.125, 2.052e-5
-1.126, 2.080e-5
-1.127, 2.099e-5
-1.128, 2.117e-5
-1.129, 2.139e-5
-1.130, 2.170e-5
-1.131, 2.183e-5
-1.132, 2.212e-5
-1.133, 2.229e-5
-1.134, 2.261e-5
-1.135, 2.289e-5
-1.136, 2.309e-5
-1.137, 2.336e-5
-1.138, 2.358e-5
-1.139, 2.380e-5
-1.140, 2.413e-5
-1.141, 2.440e-5
-1.142, 2.458e-5
-1.143, 2.493e-5
-1.144, 2.511e-5
-1.145, 2.545e-5
-1.146, 2.568e-5
-1.147, 2.595e-5
-1.148, 2.621e-5
-1.149, 2.653e-5
-1.150, 2.680e-5
-1.151, 2.709e-5
-1.152, 2.733e-5
-1.153, 2.760e-5
-1.154, 2.796e-5
-1.155, 2.825e-5
-1.156, 2.852e-5
-1.157, 2.880e-5
-1.158, 2.914e-5
-1.159, 2.944e-5
-1.160, 2.972e-5
-1.161, 3.000e-5
-1.162, 3.038e-5
-1.163, 3.059e-5
-1.164, 3.097e-5
-1.165, 3.129e-5
-1.166, 3.158e-5
-1.167, 3.186e-5
-1.168, 3.218e-5
-1.169, 3.255e-5
-1.170, 3.291e-5
-1.171, 3.317e-5
-1.172, 3.351e-5
-1.173, 3.380e-5
-1.174, 3.416e-5
-1.175, 3.451e-5
-1.176, 3.483e-5
-1.177, 3.516e-5
-1.178, 3.555e-5
-1.179, 3.588e-5
-1.180, 3.624e-5
-1.181, 3.655e-5
-1.182, 3.685e-5
-1.183, 3.724e-5
-1.184, 3.750e-5
-1.185, 3.794e-5
-1.186, 3.829e-5
-1.187, 3.857e-5
-1.188, 3.887e-5
-1.189, 3.927e-5
-1.190, 3.959e-5
-1.191, 4.004e-5
-1.192, 4.031e-5
-1.193, 4.057e-5
-1.194, 4.094e-5
-1.195, 4.127e-5
-1.196, 4.155e-5
-1.197, 4.192e-5
-1.198, 4.223e-5
-1.199, 4.257e-5
-1.200, 4.288e-5
-1.201, 4.312e-5
-1.202, 4.354e-5
-1.203, 4.379e-5
-1.204, 4.408e-5
-1.205, 4.439e-5
-1.206, 4.473e-5
-1.207, 4.498e-5
-1.208, 4.522e-5
-1.209, 4.548e-5
-1.210, 4.588e-5
-1.211, 4.604e-5
-1.212, 4.640e-5
-1.213, 4.658e-5
-1.214, 4.687e-5
-1.215, 4.707e-5
-1.216, 4.738e-5
-1.217, 4.754e-5
-1.218, 4.783e-5
-1.219, 4.799e-5
-1.220, 4.822e-5
-1.221, 4.840e-5
-1.222, 4.861e-5
-1.223, 4.882e-5
-1.224, 4.889e-5
-1.225, 4.910e-5
-1.226, 4.938e-5
-1.227, 4.946e-5
-1.228, 4.964e-5
-1.229, 4.987e-5
-1.230, 4.992e-5
-1.231, 5.014e-5
-1.232, 5.020e-5
-1.233, 5.029e-5
-1.234, 5.039e-5
-1.235, 5.052e-5
-1.236, 5.051e-5
-1.237, 5.067e-5
-1.238, 5.067e-5
-1.239, 5.075e-5
-1.240, 5.082e-5
-1.241, 5.092e-5
-1.242, 5.093e-5
-1.243, 5.098e-5
-1.244, 5.098e-5
-1.245, 5.109e-5
-1.246, 5.101e-5
-1.247, 5.106e-5
-1.248, 5.102e-5
-1.249, 5.104e-5
-1.250, 5.105e-5
-1.251, 5.095e-5
-1.252, 5.092e-5
-1.253, 5.080e-5
-1.254, 5.084e-5
-1.255, 5.080e-5
-1.256, 5.076e-5
-1.257, 5.073e-5
-1.258, 5.069e-5
-1.259, 5.064e-5
-1.260, 5.059e-5
-1.261, 5.051e-5
-1.262, 5.049e-5
-1.263, 5.039e-5
-1.264, 5.038e-5
-1.265, 5.031e-5
-1.266, 5.029e-5
-1.267, 5.015e-5
-1.268, 5.019e-5
-1.269, 5.011e-5
-1.270, 5.012e-5
-1.271, 5.012e-5
-1.272, 5.009e-5
-1.273, 5.026e-5
-1.274, 5.020e-5
-1.275, 5.005e-5
-1.276, 5.002e-5
-1.277, 5.005e-5
-1.278, 5.002e-5
-1.279, 5.004e-5
-1.280, 5.011e-5
-1.281, 5.013e-5
-1.282, 5.020e-5
-1.283, 5.020e-5
-1.284, 5.017e-5
-1.285, 5.027e-5
-1.286, 5.030e-5
-1.287, 5.038e-5
-1.288, 5.034e-5
-1.289, 5.051e-5
-1.290, 5.058e-5
-1.291, 5.068e-5
-1.292, 5.075e-5
-1.293, 5.084e-5
-1.294, 5.094e-5
-1.295, 5.112e-5
-1.296, 5.123e-5
-1.297, 5.132e-5
-1.298, 5.145e-5
-1.299, 5.161e-5
-1.300, 5.175e-5
-1.301, 5.187e-5
-1.302, 5.202e-5
-1.303, 5.214e-5
-1.304, 5.233e-5
-1.305, 5.250e-5
-1.306, 5.260e-5
-1.307, 5.276e-5
-1.308, 5.291e-5
-1.309, 5.317e-5
-1.310, 5.336e-5
-1.311, 5.357e-5
-1.312, 5.372e-5
-1.313, 5.393e-5
-1.314, 5.416e-5
-1.315, 5.445e-5
-1.316, 5.460e-5
-1.317, 5.492e-5
-1.318, 5.499e-5
-1.319, 5.533e-5
-1.320, 5.556e-5
-1.321, 5.583e-5
-1.322, 5.605e-5
-1.323, 5.636e-5
-1.324, 5.670e-5
-1.325, 5.702e-5
-1.326, 5.730e-5
-1.327, 5.762e-5
-1.328, 5.791e-5
-1.329, 5.821e-5
-1.330, 5.859e-5
-1.331, 5.886e-5
-1.332, 5.930e-5
-1.333, 5.972e-5
-1.334, 6.010e-5
-1.335, 6.045e-5
-1.336, 6.096e-5
-1.337, 6.135e-5
-1.338, 6.179e-5
-1.339, 6.227e-5
-1.340, 6.277e-5
-1.341, 6.322e-5
-1.342, 6.369e-5
-1.343, 6.417e-5
-1.344, 6.477e-5
-1.345, 6.530e-5
-1.346, 6.591e-5
-1.347, 6.646e-5
-1.348, 6.702e-5
-1.349, 6.772e-5
-1.350, 6.835e-5
-1.351, 6.899e-5
-1.352, 6.959e-5
-1.353, 7.024e-5
-1.354, 7.108e-5
-1.355, 7.179e-5
-1.356, 7.246e-5
-1.357, 7.326e-5
-1.358, 7.404e-5
-1.359, 7.491e-5
-1.360, 7.567e-5
-1.361, 7.653e-5
-1.362, 7.735e-5
-1.363, 7.824e-5
-1.364, 7.919e-5
-1.365, 8.010e-5
-1.366, 8.112e-5
-1.367, 8.214e-5
-1.368, 8.316e-5
-1.369, 8.421e-5
-1.370, 8.529e-5
-1.371, 8.629e-5
-1.372, 8.739e-5
-1.373, 8.848e-5
-1.374, 8.961e-5
-1.375, 9.074e-5
-1.376, 9.191e-5
-1.377, 9.316e-5
-1.378, 9.436e-5
-1.379, 9.579e-5
-1.380, 9.714e-5
-1.381, 9.850e-5
-1.382, 9.981e-5
-1.383, 1.011e-4
-1.384, 1.025e-4
-1.385, 1.040e-4
-1.386, 1.055e-4
-1.387, 1.070e-4
-1.388, 1.087e-4
-1.389, 1.103e-4
-1.390, 1.120e-4
-1.391, 1.135e-4
-1.392, 1.151e-4
-1.393, 1.168e-4
-1.394, 1.185e-4
-1.395, 1.202e-4
-1.396, 1.221e-4
-1.397, 1.239e-4
-1.398, 1.258e-4
-1.399, 1.275e-4
-1.400, 1.249e-4
-1.399, 1.212e-4
-1.398, 1.182e-4
-1.397, 1.152e-4
-1.396, 1.125e-4
-1.395, 1.098e-4
-1.394, 1.072e-4
-1.393, 1.048e-4
-1.392, 1.024e-4
-1.391, 9.998e-5
-1.390, 9.756e-5
-1.389, 9.538e-5
-1.388, 9.306e-5
-1.387, 9.093e-5
-1.386, 8.885e-5
-1.385, 8.686e-5
-1.384, 8.475e-5
-1.383, 8.282e-5
-1.382, 8.079e-5
-1.381, 7.896e-5
-1.380, 7.712e-5
-1.379, 7.532e-5
-1.378, 7.357e-5
-1.377, 7.182e-5
-1.376, 7.032e-5
-1.375, 6.860e-5
-1.374, 6.690e-5
-1.373, 6.532e-5
-1.372, 6.369e-5
-1.371, 6.226e-5
-1.370, 6.081e-5
-1.369, 5.932e-5
-1.368, 5.787e-5
-1.367, 5.661e-5
-1.366, 5.523e-5
-1.365, 5.398e-5
-1.364, 5.258e-5
-1.363, 5.130e-5
-1.362, 5.005e-5
-1.361, 4.890e-5
-1.360, 4.765e-5
-1.359, 4.653e-5
-1.358, 4.539e-5
-1.357, 4.423e-5
-1.356, 4.321e-5
-1.355, 4.211e-5
-1.354, 4.114e-5
-1.353, 4.009e-5
-1.352, 3.913e-5
-1.351, 3.822e-5
-1.350, 3.728e-5
-1.349, 3.639e-5
-1.348, 3.541e-5
-1.347, 3.450e-5
-1.346, 3.371e-5
-1.345, 3.283e-5
-1.344, 3.205e-5
-1.343, 3.122e-5
-1.342, 3.039e-5
-1.341, 2.971e-5
-1.340, 2.890e-5
-1.339, 2.816e-5
-1.338, 2.743e-5
-1.337, 2.675e-5
-1.336, 2.605e-5
-1.335, 2.544e-5
-1.334, 2.475e-5
-1.333, 2.413e-5
-1.332, 2.346e-5
-1.331, 2.283e-5
-1.330, 2.223e-5
-1.329, 2.172e-5
-1.328, 2.115e-5
-1.327, 2.057e-5
-1.326, 1.999e-5
-1.325, 1.949e-5
-1.324, 1.899e-5
-1.323, 1.841e-5
-1.322, 1.795e-5
-1.321, 1.740e-5
-1.320, 1.705e-5
-1.319, 1.648e-5
-1.318, 1.604e-5
-1.317, 1.561e-5
-1.316, 1.521e-5
-1.315, 1.475e-5
-1.314, 1.440e-5
-1.313, 1.394e-5
-1.312, 1.354e-5
-1.311, 1.315e-5
-1.310, 1.274e-5
-1.309, 1.246e-5
-1.308, 1.202e-5
-1.307, 1.169e-5
-1.306, 1.135e-5
-1.305, 1.099e-5
-1.304, 1.065e-5
-1.303, 1.038e-5
-1.302, 9.996e-6
-1.301, 9.755e-6
-1.300, 9.385e-6
-1.299, 9.110e-6
-1.298, 8.823e-6
-1.297, 8.533e-6
-1.296, 8.264e-6
-1.295, 8.027e-6
-1.294, 7.743e-6
-1.293, 7.473e-6
-1.292, 7.196e-6
-1.291, 6.943e-6
-1.290, 6.773e-6
-1.289, 6.450e-6
-1.288, 6.302e-6
-1.287, 5.997e-6
-1.286, 5.816e-6
-1.285, 5.598e-6
-1.284, 5.387e-6
-1.283, 5.151e-6
-1.282, 4.922e-6
-1.281, 4.750e-6
-1.280, 4.544e-6
-1.279, 4.370e-6
-1.278, 4.170e-6
-1.277, 4.028e-6
-1.276, 3.820e-6
-1.275, 3.673e-6
-1.274, 3.487e-6
-1.273, 3.320e-6
-1.272, 3.145e-6
-1.271, 2.989e-6
-1.270, 2.805e-6
-1.269, 2.664e-6
-1.268, 2.533e-6
-1.267, 2.364e-6
-1.266, 2.230e-6
-1.265, 2.029e-6
-1.264, 1.967e-6
-1.263, 1.787e-6
-1.262, 1.643e-6
-1.261, 1.491e-6
-1.260, 1.388e-6
-1.259, 1.251e-6
-1.258, 1.121e-6
-1.257, 9.598e-7
-1.256, 9.163e-7
-1.255, 7.516e-7
-1.254, 6.667e-7
-1.253, 5.168e-7
-1.252, 4.112e-7
-1.251, 3.056e-7
-1.250, 2.060e-7
-1.249, 7.182e-8
-1.248, -6.334e-8
-1.247, -8.899e-8
-1.246, -2.725e-7
-1.245, -2.814e-7
-1.244, -4.382e-7
-1.243, -5.320e-7
-1.242, -6.435e-7
-1.241, -7.352e-7
-1.240, -8.171e-7
-1.239, -9.079e-7
-1.238, -1.031e-6
-1.237, -1.095e-6
-1.236, -1.173e-6
-1.235, -1.293e-6
-1.234, -1.354e-6
-1.233, -1.492e-6
-1.232, -1.504e-6
-1.231, -1.680e-6
-1.230, -1.697e-6
-1.229, -1.840e-6
-1.228, -1.887e-6
-1.227, -2.021e-6
-1.226, -2.057e-6
-1.225, -2.146e-6
-1.224, -2.228e-6
-1.223, -2.333e-6
-1.222, -2.444e-6
-1.221, -2.454e-6
-1.220, -2.612e-6
-1.219, -2.626e-6
-1.218, -2.703e-6
-1.217, -2.797e-6
-1.216, -2.880e-6
-1.215, -2.967e-6
-1.214, -3.004e-6
-1.213, -3.116e-6
-1.212, -3.143e-6
-1.211, -3.282e-6
-1.210, -3.297e-6
-1.209, -3.395e-6
-1.208, -3.467e-6
-1.207, -3.537e-6
-1.206, -3.634e-6
-1.205, -3.685e-6
-1.204, -3.747e-6
-1.203, -3.869e-6
-1.202, -3.975e-6
-1.201, -3.946e-6
-1.200, -4.083e-6
-1.199, -4.154e-6
-1.198, -4.291e-6
-1.197, -4.310e-6
-1.196, -4.389e-6
-1.195, -4.477e-6
-1.194, -4.534e-6
-1.193, -4.620e-6
-1.192, -4.690e-6
-1.191, -4.772e-6
-1.190, -4.850e-6
-1.189, -4.891e-6
-1.188, -5.033e-6
-1.187, -5.121e-6
-1.186, -5.148e-6
-1.185, -5.257e-6
-1.184, -5.339e-6
-1.183, -5.419e-6
-1.182, -5.513e-6
-1.181, -5.608e-6
-1.180, -5.665e-6
-1.179, -5.747e-6
-1.178, -5.875e-6
-1.177, -5.947e-6
-1.176, -6.013e-6
-1.175, -6.054e-6
-1.174, -6.179e-6
-1.173, -6.249e-6
-1.172, -6.344e-6
-1.171, -6.450e-6
-1.170, -6.518e-6
-1.169, -6.607e-6
-1.168, -6.706e-6
-1.167, -6.799e-6
-1.166, -6.876e-6
-1.165, -6.950e-6
-1.164, -7.077e-6
-1.163, -7.157e-6
-1.162, -7.275e-6
-1.161, -7.414e-6
-1.160, -7.427e-6
-1.159, -7.567e-6
-1.158, -7.696e-6
-1.157, -7.763e-6
-1.156, -7.865e-6
-1.155, -7.996e-6
-1.154, -8.049e-6
-1.153, -8.212e-6
-1.152, -8.297e-6
-1.151, -8.410e-6
-1.150, -8.556e-6
-1.149, -8.608e-6
-1.148, -8.764e-6
-1.147, -8.903e-6
-1.146, -9.038e-6
-1.145, -9.107e-6
-1.144, -9.251e-6
-1.143, -9.365e-6
-1.142, -9.524e-6
-1.141, -9.546e-6
-1.140, -9.703e-6
-1.139, -9.846e-6
-1.138, -9.960e-6
-1.137, -1.015e-5
-1.136, -1.022e-5
-1.135, -1.034e-5
-1.134, -1.051e-5
-1.133, -1.064e-5
-1.132, -1.079e-5
-1.131, -1.099e-5
-1.130, -1.108e-5
-1.129, -1.127e-5
-1.128, -1.138e-5
-1.127, -1.157e-5
-1.126, -1.171e-5
-1.125, -1.185e-5
-1.124, -1.204e-5
-1.123, -1.217e-5
-1.122, -1.238e-5
-1.121, -1.254e-5
-1.120, -1.269e-5
-1.119, -1.282e-5
-1.118, -1.306e-5
-1.117, -1.318e-5
-1.116, -1.339e-5
-1.115, -1.357e-5
-1.114, -1.373e-5
-1.113, -1.393e-5
-1.112, -1.414e-5
-1.111, -1.435e-5
-1.110, -1.452e-5
-1.109, -1.470e-5
-1.108, -1.487e-5
-1.107, -1.516e-5
-1.106, -1.529e-5
-1.105, -1.554e-5
-1.104, -1.571e-5
-1.103, -1.596e-5
-1.102, -1.619e-5
-1.101, -1.636e-5
-1.100, -1.657e-5
-1.099, -1.680e-5
-1.098, -1.701e-5
-1.097, -1.725e-5
-1.096, -1.747e-5
-1.095, -1.765e-5
-1.094, -1.789e-5
-1.093, -1.807e-5
-1.092, -1.837e-5
-1.091, -1.861e-5
-1.090, -1.879e-5
-1.089, -1.906e-5
-1.088, -1.921e-5
-1.087, -1.951e-5
-1.086, -1.977e-5
-1.085, -1.995e-5
-1.084, -2.021e-5
-1.083, -2.044e-5
-1.082, -2.068e-5
-1.081, -2.098e-5
-1.080, -2.113e-5
-1.079, -2.139e-5
-1.078, -2.164e-5
-1.077, -2.188e-5
-1.076, -2.216e-5
-1.075, -2.237e-5
-1.074, -2.265e-5
-1.073, -2.281e-5
-1.072, -2.311e-5
-1.071, -2.332e-5
-1.070, -2.359e-5
-1.069, -2.376e-5
-1.068, -2.403e-5
-1.067, -2.428e-5
-1.066, -2.453e-5
-1.065, -2.478e-5
-1.064, -2.496e-5
-1.063, -2.522e-5
-1.062, -2.550e-5
-1.061, -2.571e-5
-1.060, -2.590e-5
-1.059, -2.619e-5
-1.058, -2.644e-5
-1.057, -2.669e-5
-1.056, -2.690e-5
-1.055, -2.714e-5
-1.054, -2.738e-5
-1.053, -2.757e-5
-1.052, -2.786e-5
-1.051, -2.806e-5
-1.050, -2.834e-5
-1.049, -2.857e-5
-1.048, -2.878e-5
-1.047, -2.902e-5
-1.046, -2.925e-5
-1.045, -2.950e-5
-1.044, -2.974e-5
-1.043, -2.998e-5
-1.042, -3.014e-5
-1.041, -3.049e-5
-1.040, -3.062e-5
-1.039, -3.086e-5
-1.038, -3.110e-5
-1.037, -3.133e-5
-1.036, -3.156e-5
-1.035, -3.169e-5
-1.034, -3.191e-5
-1.033, -3.218e-5
-1.032, -3.240e-5
-1.031, -3.260e-5
-1.030, -3.288e-5
-1.029, -3.300e-5
-1.028, -3.326e-5
-1.027, -3.352e-5
-1.026, -3.372e-5
-1.025, -3.393e-5
-1.024, -3.414e-5
-1.023, -3.436e-5
-1.022, -3.458e-5
-1.021, -3.479e-5
-1.020, -3.499e-5
-1.019, -3.525e-5
-1.018, -3.546e-5
-1.017, -3.573e-5
-1.016, -3.586e-5
-1.015, -3.614e-5
-1.014, -3.629e-5
-1.013, -3.654e-5
-1.012, -3.672e-5
-1.011, -3.695e-5
-1.010, -3.717e-5
-1.009, -3.739e-5
-1.008, -3.770e-5
-1.007, -3.782e-5
-1.006, -3.807e-5
-1.005, -3.826e-5
-1.004, -3.851e-5
-1.003, -3.873e-5
-1.002, -3.895e-5
-1.001, -3.914e-5
-1.000, -3.373e-5
-1.001, -2.937e-5
-1.002, -2.655e-5
-1.003, -2.413e-5
-1.004, -2.200e-5
-1.005, -2.014e-5
-1.006, -1.843e-5
-1.007, -1.695e-5
-1.008, -1.549e-5
-1.009, -1.423e-5
-1.010, -1.299e-5
-1.011, -1.194e-5
-1.012, -1.085e-5
-1.013, -9.907e-6
-1.014, -9.099e-6
-1.015, -8.179e-6
-1.016, -7.439e-6
-1.017, -6.696e-6
-1.018, -6.042e-6
-1.019, -5.390e-6
-1.020, -4.807e-6
-1.021, -4.207e-6
-1.022, -3.744e-6
-1.023, -3.179e-6
-1.024, -2.728e-6
-1.025, -2.283e-6
-1.026, -1.842e-6
-1.027, -1.496e-6
-1.028, -1.103e-6
-1.029, -7.638e-7
-1.030, -3.495e-7
-1.031, -7.715e-8
-1.032, 2.415e-7
-1.033, 4.655e-7
-1.034, 8.059e-7
-1.035, 1.047e-6
-1.036, 1.321e-6
-1.037, 1.565e-6
-1.038, 1.729e-6
-1.039, 2.007e-6
-1.040, 2.197e-6
-1.041, 2.394e-6
-1.042, 2.576e-6
-1.043, 2.765e-6
-1.044, 2.940e-6
-1.045, 3.133e-6
-1.046, 3.287e-6
-1.047, 3.416e-6
-1.048, 3.540e-6
-1.049, 3.686e-6
-1.050, 3.862e-6
-1.051, 3.949e-6
-1.052, 4.154e-6
-1.053, 4.169e-6
-1.054, 4.334e-6
-1.055, 4.489e-6
-1.056, 4.598e-6
-1.057, 4.694e-6
-1.058, 4.757e-6
-1.059, 4.875e-6
-1.060, 4.975e-6
-1.061, 5.098e-6
-1.062, 5.160e-6
-1.063, 5.289e-6
-1.064, 5.293e-6
-1.065, 5.456e-6
-1.066, 5.501e-6
-1.067, 5.583e-6
-1.068, 5.644e-6
-1.069, 5.690e-6
-1.070, 5.822e-6
-1.071, 5.864e-6
-1.072, 5.958e-6
-1.073, 5.992e-6
-1.074, 6.055e-6
-1.075, 6.111e-6
-1.076, 6.222e-6
-1.077, 6.263e-6
-1.078, 6.342e-6
-1.079, 6.392e-6
-1.080, 6.431e-6
-1.081, 6.501e-6
-1.082, 6.573e-6
-1.083, 6.619e-6
-1.084, 6.672e-6
-1.085, 6.757e-6
-1.086, 6.815e-6
-1.087, 6.905e-6
-1.088, 6.900e-6
-1.089, 6.993e-6
-1.090, 7.052e-6
-1.091, 7.057e-6
-1.092, 7.177e-6
-1.093, 7.151e-6
-1.094, 7.248e-6
-1.095, 7.310e-6
-1.096, 7.369e-6
-1.097, 7.428e-6
-1.098, 7.445e-6
-1.099, 7.494e-6
-1.100, 7.572e-6
-1.101, 7.646e-6
-1.102, 7.717e-6
-1.103, 7.783e-6
-1.104, 7.728e-6
-1.105, 7.868e-6
-1.106, 7.899e-6
-1.107, 7.974e-6
-1.108, 7.972e-6
-1.109, 8.021e-6
-1.110, 8.126e-6
-1.111, 8.168e-6
-1.112, 8.205e-6
-1.113, 8.213e-6
-1.114, 8.327e-6
-1.115, 8.367e-6
-1.116, 8.417e-6
-1.117, 8.454e-6
-1.118, 8.520e-6
-1.119, 8.598e-6
-1.120, 8.641e-6
-1.121, 8.735e-6
-1.122, 8.752e-6
-1.123, 8.808e-6
-1.124, 8.823e-6
-1.125, 8.909e-6
-1.126, 8.971e-6
-1.127, 9.057e-6
-1.128, 9.081e-6
-1.129, 9.142e-6
-1.130, 9.221e-6
-1.131, 9.273e-6
-1.132, 9.305e-6
-1.133, 9.359e-6
-1.134, 9.412e-6
-1.135, 9.486e-6
-1.136, 9.595e-6
-1.137, 9.602e-6
-1.138, 9.624e-6
-1.139, 9.707e-6
-1.140, 9.775e-6
-1.141, 9.848e-6
-1.142, 9.876e-6
-1.143, 9.961e-6
-1.144, 9.968e-6
-1.145, 1.009e-5
-1.146, 1.013e-5
-1.147, 1.018e-5
-1.148, 1.023e-5
-1.149, 1.027e-5
-1.150, 1.035e-5
-1.151, 1.044e-5
-1.152, 1.047e-5
-1.153, 1.051e-5
-1.154, 1.061e-5
-1.155, 1.065e-5
-1.156, 1.078e-5
-1.157, 1.078e-5
-1.158, 1.083e-5
-1.159, 1.091e-5
-1.160, 1.094e-5
-1.161, 1.105e-5
-1.162, 1.111e-5
-1.163, 1.112e-5
-1.164, 1.118e-5
-1.165, 1.127e-5
-1.166, 1.136e-5
-1.167, 1.141e-5
-1.168, 1.145e-5
-1.169, 1.147e-5
-1.170, 1.155e-5
-1.171, 1.158e-5
-1.172, 1.172e-5
-1.173, 1.173e-5
-1.174, 1.179e-5
-1.175, 1.183e-5
-1.176, 1.187e-5
-1.177, 1.199e-5
-1.178, 1.203e-5
-1.179, 1.211e-5
-1.180, 1.215e-5
-1.181, 1.224e-5
-1.182, 1.226e-5
-1.183, 1.232e-5
-1.184, 1.240e-5
-1.185, 1.244e-5
-1.186, 1.252e-5
-1.187, 1.256e-5
-1.188, 1.263e-5
-1.189, 1.267e-5
-1.190, 1.274e-5
-1.191, 1.282e-5
-1.192, 1.284e-5
-1.193, 1.293e-5
-1.194, 1.294e-5
-1.195, 1.303e-5
-1.196, 1.308e-5
-1.197, 1.317e-5
-1.198, 1.316e-5
-1.199, 1.324e-5
-1.200, 1.328e-5
-1.201, 1.342e-5
-1.202, 1.342e-5
-1.203, 1.349e-5
-1.204, 1.356e-5
-1.205, 1.357e-5
-1.206, 1.367e-5
-1.207, 1.372e-5
-1.208, 1.379e-5
-1.209, 1.382e-5
-1.210, 1.394e-5
-1.211, 1.398e-5
-1.212, 1.402e-5
-1.213, 1.410e-5
-1.214, 1.411e-5
-1.215, 1.420e-5
-1.216, 1.427e-5
-1.217, 1.436e-5
-1.218, 1.441e-5
-1.219, 1.447e-5
-1.220, 1.455e-5
-1.221, 1.459e-5
-1.222, 1.474e-5
-1.223, 1.474e-5
-1.224, 1.485e-5
-1.225, 1.484e-5
-1.226, 1.502e-5
-1.227, 1.505e-5
-1.228, 1.512e-5
-1.229, 1.522e-5
-1.230, 1.528e-5
-1.231, 1.543e-5
-1.232, 1.543e-5
-1.233, 1.553e-5
-1.234, 1.561e-5
-1.235, 1.569e-5
-1.236, 1.580e-5
-1.237, 1.591e-5
-1.238, 1.596e-5
-1.239, 1.609e-5
-1.240, 1.618e-5
-1.241, 1.621e-5
-1.242, 1.629e-5
-1.243, 1.640e-5
-1.244, 1.646e-5
-1.245, 1.657e-5
-1.246, 1.667e-5
-1.247, 1.679e-5
-1.248, 1.681e-5
-1.249, 1.688e-5
-1.250, 1.705e-5
-1.251, 1.708e-5
-1.252, 1.725e-5
-1.253, 1.729e-5
-1.254, 1.745e-5
-1.255, 1.750e-5
-1.256, 1.765e-5
-1.257, 1.776e-5
-1.258, 1.781e-5
-1.259, 1.793e-5
-1.260, 1.804e-5
-1.261, 1.817e-5
-1.262, 1.822e-5
-1.263, 1.833e-5
-1.264, 1.845e-5
-1.265, 1.853e-5
-1.266, 1.873e-5
-1.267, 1.880e-5
-1.268, 1.892e-5
-1.269, 1.901e-5
-1.270, 1.914e-5
-1.271, 1.927e-5
-1.272, 1.937e-5
-1.273, 1.949e-5
-1.274, 1.960e-5
-1.275, 1.972e-5
-1.276, 1.982e-5
-1.277, 2.000e-5
-1.278, 2.012e-5
-1.279, 2.025e-5
-1.280, 2.038e-5
-1.281, 2.049e-5
-1.282, 2.065e-5
-1.283, 2.077e-5
-1.284, 2.090e-5
-1.285, 2.103e-5
-1.286, 2.124e-5
-1.287, 2.137e-5
-1.288, 2.146e-5
-1.289, 2.157e-5
-1.290, 2.173e-5
-1.291, 2.192e-5
-1.292, 2.205e-5
-1.293, 2.224e-5
-1.294, 2.238e-5
-1.295, 2.257e-5
-1.296, 2.272e-5
-1.297, 2.289e-5
-1.298, 2.307e-5
-1.299, 2.326e-5
-1.300, 2.347e-5
-1.301, 2.361e-5
-1.302, 2.387e-5
-1.303, 2.399e-5
-1.304, 2.415e-5
-1.305, 2.439e-5
-1.306, 2.465e-5
-1.307, 2.486e-5
-1.308, 2.499e-5
-1.309, 2.529e-5
-1.310, 2.545e-5
-1.311, 2.572e-5
-1.312, 2.594e-5
-1.313, 2.621e-5
-1.314, 2.643e-5
-1.315, 2.670e-5
-1.316, 2.699e-5
-1.317, 2.725e-5
-1.318, 2.748e-5
-1.319, 2.779e-5
-1.320, 2.810e-5
-1.321, 2.841e-5
-1.322, 2.870e-5
-1.323, 2.898e-5
-1.324, 2.932e-5
-1.325, 2.969e-5
-1.326, 3.003e-5
-1.327, 3.038e-5
-1.328, 3.072e-5
-1.329, 3.108e-5
-1.330, 3.149e-5
-1.331, 3.183e-5
-1.332, 3.230e-5
-1.333, 3.264e-5
-1.334, 3.313e-5
-1.335, 3.351e-5
-1.336, 3.396e-5
-1.337, 3.444e-5
-1.338, 3.489e-5
-1.339, 3.537e-5
-1.340, 3.587e-5
-1.341, 3.638e-5
-1.342, 3.685e-5
-1.343, 3.739e-5
-1.344, 3.789e-5
-1.345, 3.846e-5
-1.346, 3.906e-5
-1.347, 3.961e-5
-1.348, 4.023e-5
-1.349, 4.082e-5
-1.350, 4.147e-5
-1.351, 4.209e-5
-1.352, 4.274e-5
-1.353, 4.344e-5
-1.354, 4.408e-5
-1.355, 4.489e-5
-1.356, 4.555e-5
-1.357, 4.625e-5
-1.358, 4.697e-5
-1.359, 4.775e-5
-1.360, 4.855e-5
-1.361, 4.933e-5
-1.362, 5.021e-5
-1.363, 5.095e-5
-1.364, 5.177e-5
-1.365, 5.271e-5
-1.366, 5.355e-5
-1.367, 5.454e-5
-1.368, 5.543e-5
-1.369, 5.638e-5
-1.370, 5.740e-5
-1.371, 5.842e-5
-1.372, 5.936e-5
-1.373, 6.038e-5
-1.374, 6.148e-5
-1.375, 6.255e-5
-1.376, 6.364e-5
-1.377, 6.468e-5
-1.378, 6.583e-5
-1.379, 6.699e-5
-1.380, 6.819e-5
-1.381, 6.944e-5
-1.382, 7.065e-5
-1.383, 7.196e-5
-1.384, 7.317e-5
-1.385, 7.446e-5
-1.386, 7.586e-5
-1.387, 7.710e-5
-1.388, 7.854e-5
-1.389, 7.994e-5
-1.390, 8.142e-5
-1.391, 8.288e-5
-1.392, 8.424e-5
-1.393, 8.584e-5
-1.394, 8.730e-5
-1.395, 8.888e-5
-1.396, 9.045e-5
-1.397, 9.203e-5
-1.398, 9.375e-5
-1.399, 9.539e-5
-1.400, 9.293e-5
-1.399, 8.992e-5
-1.398, 8.768e-5
-1.397, 8.542e-5
-1.396, 8.327e-5
-1.395, 8.120e-5
-1.394, 7.922e-5
-1.393, 7.730e-5
-1.392, 7.546e-5
-1.391, 7.365e-5
-1.390, 7.182e-5
-1.389, 7.022e-5
-1.388, 6.846e-5
-1.387, 6.682e-5
-1.386, 6.525e-5
-1.385, 6.366e-5
-1.384, 6.221e-5
-1.383, 6.068e-5
-1.382, 5.919e-5
-1.381, 5.774e-5
-1.380, 5.637e-5
-1.379, 5.503e-5
-1.378, 5.372e-5
-1.377, 5.242e-5
-1.376, 5.114e-5
-1.375, 4.996e-5
-1.374, 4.874e-5
-1.373, 4.757e-5
-1.372, 4.637e-5
-1.371, 4.522e-5
-1.370, 4.415e-5
-1.369, 4.305e-5
-1.368, 4.207e-5
-1.367, 4.100e-5
-1.366, 3.999e-5
-1.365, 3.901e-5
-1.364, 3.808e-5
-1.363, 3.712e-5
-1.362, 3.619e-5
-1.361, 3.527e-5
-1.360, 3.437e-5
-1.359, 3.361e-5
-1.358, 3.268e-5
-1.357, 3.192e-5
-1.356, 3.102e-5
-1.355, 3.027e-5
-1.354, 2.955e-5
-1.353, 2.873e-5
-1.352, 2.803e-5
-1.351, 2.725e-5
-1.350, 2.658e-5
-1.349, 2.588e-5
-1.348, 2.526e-5
-1.347, 2.455e-5
-1.346, 2.395e-5
-1.345, 2.334e-5
-1.344, 2.269e-5
-1.343, 2.208e-5
-1.342, 2.148e-5
-1.341, 2.094e-5
-1.340, 2.036e-5
-1.339, 1.981e-5
-1.338, 1.929e-5
-1.337, 1.878e-5
-1.336, 1.824e-5
-1.335, 1.773e-5
-1.334, 1.727e-5
-1.333, 1.676e-5
-1.332, 1.637e-5
-1.331, 1.584e-5
-1.330, 1.564e-5
-1.329, 1.496e-5
-1.328, 1.455e-5
-1.327, 1.417e-5
-1.326, 1.373e-5
-1.325, 1.341e-5
-1.324, 1.297e-5
-1.323, 1.261e-5
-1.322, 1.224e-5
-1.321, 1.205e-5
-1.320, 1.194e-5
-1.319, 1.174e-5
-1.318, 1.101e-5
-1.317, 1.052e-5
-1.316, 1.017e-5
-1.315, 9.834e-6
-1.314, 9.686e-6
-1.313, 9.351e-6
-1.312, 9.017e-6
-1.311, 8.789e-6
-1.310, 8.443e-6
-1.309, 8.256e-6
-1.308, 7.956e-6
-1.307, 7.688e-6
-1.306, 7.540e-6
-1.305, 7.229e-6
-1.304, 6.829e-6
-1.303, 6.590e-6
-1.302, 6.376e-6
-1.301, 6.275e-6
-1.300, 6.069e-6
-1.299, 6.115e-6
-1.298, 5.995e-6
-1.297, 5.663e-6
-1.296, 5.309e-6
-1.295, 5.042e-6
-1.294, 4.651e-6
-1.293, 4.509e-6
-1.292, 4.248e-6
-1.291, 4.066e-6
-1.290, 3.940e-6
-1.289, 3.758e-6
-1.288, 3.594e-6
-1.287, 3.430e-6
-1.286, 3.304e-6
-1.285, 3.082e-6
-1.284, 2.975e-6
-1.283, 2.781e-6
-1.282, 2.625e-6
-1.281, 2.496e-6
-1.280, 2.314e-6
-1.279, 2.208e-6
-1.278, 2.062e-6
-1.277, 1.919e-6
-1.276, 1.796e-6
-1.275, 1.629e-6
-1.274, 1.603e-6
-1.273, 1.399e-6
-1.272, 1.322e-6
-1.271, 1.188e-6
-1.270, 1.045e-6
-1.269, 9.963e-7
-1.268, 8.354e-7
-1.267, 7.309e-7
-1.266, 6.401e-7
-1.265, 5.336e-7
-1.264, 4.438e-7
-1.263, 2.682e-7
-1.262, 2.001e-7
-1.261, 8.268e-8
-1.260, 4.913e-8
-1.259, -1.087e-7
-1.258, -1.492e-7
-1.257, -2.794e-7
-1.256, -3.692e-7
-1.255, -4.402e-7
-1.254, -5.882e-7
-1.253, -5.852e-7
-1.252, -7.421e-7
-1.251, -7.638e-7
-1.250, -9.089e-7
-1.249, -9.651e-7
-1.248, -1.031e-6
-1.247, -1.092e-6
-1.246, -1.223e-6
-1.245, -1.303e-6
-1.244, -1.363e-6
-1.243, -1.419e-6
-1.242, -1.507e-6
-1.241, -1.636e-6
-1.240, -1.684e-6
-1.239, -1.652e-6
-1.238, -1.828e-6
-1.237, -1.905e-6
-1.236, -1.965e-6
-1.235, -2.045e-6
-1.234, -2.093e-6
-1.233, -2.130e-6
-1.232, -2.238e-6
-1.231, -2.306e-6
-1.230, -2.358e-6
-1.229, -2.496e-6
-1.228, -2.499e-6
-1.227, -2.618e-6
-1.226, -2.667e-6
-1.225, -2.705e-6
-1.224, -2.761e-6
-1.223, -2.816e-6
-1.222, -2.971e-6
-1.221, -3.010e-6
-1.220, -3.043e-6
-1.219, -3.124e-6
-1.218, -3.191e-6
-1.217, -3.280e-6
-1.216, -3.322e-6
-1.215, -3.356e-6
-1.214, -3.464e-6
-1.213, -3.459e-6
-1.212, -3.586e-6
-1.211, -3.615e-6
-1.210, -3.727e-6
-1.209, -3.822e-6
-1.208, -3.785e-6
-1.207, -3.927e-6
-1.206, -3.952e-6
-1.205, -4.034e-6
-1.204, -4.088e-6
-1.203, -4.152e-6
-1.202, -4.243e-6
-1.201, -4.287e-6
-1.200, -4.396e-6
-1.199, -4.359e-6
-1.198, -4.486e-6
-1.197, -4.572e-6
-1.196, -4.577e-6
-1.195, -4.691e-6
-1.194, -4.720e-6
-1.193, -4.839e-6
-1.192, -4.875e-6
-1.191, -4.931e-6
-1.190, -5.028e-6
-1.189, -5.055e-6
-1.188, -5.127e-6
-1.187, -5.231e-6
-1.186, -5.275e-6
-1.185, -5.348e-6
-1.184, -5.393e-6
-1.183, -5.467e-6
-1.182, -5.505e-6
-1.181, -5.648e-6
-1.180, -5.655e-6
-1.179, -5.781e-6
-1.178, -5.856e-6
-1.177, -5.919e-6
-1.176, -6.046e-6
-1.175, -6.035e-6
-1.174, -6.206e-6
-1.173, -6.230e-6
-1.172, -6.274e-6
-1.171, -6.406e-6
-1.170, -6.456e-6
-1.169, -6.558e-6
-1.168, -6.640e-6
-1.167, -6.696e-6
-1.166, -6.814e-6
-1.165, -6.889e-6
-1.164, -6.981e-6
-1.163, -7.055e-6
-1.162, -7.115e-6
-1.161, -7.211e-6
-1.160, -7.310e-6
-1.159, -7.360e-6
-1.158, -7.478e-6
-1.157, -7.542e-6
-1.156, -7.632e-6
-1.155, -7.772e-6
-1.154, -7.839e-6
-1.153, -7.913e-6
-1.152, -8.021e-6
-1.151, -8.161e-6
-1.150, -8.239e-6
-1.149, -8.322e-6
-1.148, -8.435e-6
-1.147, -8.548e-6
-1.146, -8.631e-6
-1.145, -8.773e-6
-1.144, -8.766e-6
-1.143, -8.941e-6
-1.142, -9.057e-6
-1.141, -9.184e-6
-1.140, -9.263e-6
-1.139, -9.376e-6
-1.138, -9.538e-6
-1.137, -9.581e-6
-1.136, -9.741e-6
-1.135, -9.836e-6
-1.134, -1.002e-5
-1.133, -1.006e-5
-1.132, -1.021e-5
-1.131, -1.036e-5
-1.130, -1.047e-5
-1.129, -1.062e-5
-1.128, -1.075e-5
-1.127, -1.086e-5
-1.126, -1.103e-5
-1.125, -1.117e-5
-1.124, -1.128e-5
-1.123, -1.145e-5
-1.122, -1.156e-5
-1.121, -1.171e-5
-1.120, -1.185e-5
-1.119, -1.194e-5
-1.118, -1.221e-5
-1.117, -1.235e-5
-1.116, -1.243e-5
-1.115, -1.261e-5
-1.114, -1.273e-5
-1.113, -1.296e-5
-1.112, -1.309e-5
-1.111, -1.324e-5
-1.110, -1.346e-5
-1.109, -1.364e-5
-1.108, -1.379e-5
-1.107, -1.395e-5
-1.106, -1.414e-5
-1.105, -1.433e-5
-1.104, -1.446e-5
-1.103, -1.458e-5
-1.102, -1.475e-5
-1.101, -1.497e-5
-1.100, -1.510e-5
-1.099, -1.531e-5
-1.098, -1.546e-5
-1.097, -1.565e-5
-1.096, -1.584e-5
-1.095, -1.598e-5
-1.094, -1.621e-5
-1.093, -1.639e-5
-1.092, -1.658e-5
-1.091, -1.684e-5
-1.090, -1.696e-5
-1.089, -1.713e-5
-1.088, -1.729e-5
-1.087, -1.748e-5
-1.086, -1.768e-5
-1.085, -1.790e-5
-1.084, -1.806e-5
-1.083, -1.824e-5
-1.082, -1.840e-5
-1.081, -1.867e-5
-1.080, -1.884e-5
-1.079, -1.896e-5
-1.078, -1.921e-5
-1.077, -1.937e-5
-1.076, -1.955e-5
-1.075, -1.981e-5
-1.074, -1.994e-5
-1.073, -2.019e-5
-1.072, -2.033e-5
-1.071, -2.055e-5
-1.070, -2.070e-5
-1.069, -2.088e-5
-1.068, -2.107e-5
-1.067, -2.129e-5
-1.066, -2.147e-5
-1.065, -2.166e-5
-1.064, -2.181e-5
-1.063, -2.201e-5
-1.062, -2.228e-5
-1.061, -2.242e-5
-1.060, -2.256e-5
-1.059, -2.277e-5
-1.058, -2.292e-5
-1.057, -2.316e-5
-1.056, -2.328e-5
-1.055, -2.343e-5
-1.054, -2.370e-5
-1.053, -2.381e-5
-1.052, -2.403e-5
-1.051, -2.429e-5
-1.050, -2.442e-5
-1.049, -2.466e-5
-1.048, -2.477e-5
-1.047, -2.499e-5
-1.046, -2.521e-5
-1.045, -2.537e-5
-1.044, -2.554e-5
-1.043, -2.568e-5
-1.042, -2.587e-5
-1.041, -2.606e-5
-1.040, -2.624e-5
-1.039, -2.645e-5
-1.038, -2.662e-5
-1.037, -2.681e-5
-1.036, -2.700e-5
-1.035, -2.714e-5
-1.034, -2.729e-5
-1.033, -2.744e-5
-1.032, -2.763e-5
-1.031, -2.783e-5
-1.030, -2.807e-5
-1.029, -2.819e-5
-1.028, -2.843e-5
-1.027, -2.856e-5
-1.026, -2.876e-5
-1.025, -2.897e-5
-1.024, -2.918e-5
-1.023, -2.937e-5
-1.022, -2.953e-5
-1.021, -2.966e-5
-1.020, -2.991e-5
-1.019, -3.008e-5
-1.018, -3.021e-5
-1.017, -3.045e-5
-1.016, -3.066e-5
-1.015, -3.082e-5
-1.014, -3.104e-5
-1.013, -3.118e-5
-1.012, -3.142e-5
-1.011, -3.166e-5
-1.010, -3.181e-5
-1.009, -3.203e-5
-1.008, -3.218e-5
-1.007, -3.249e-5
-1.006, -3.278e-5
-1.005, -3.280e-5
-1.004, -3.303e-5
-1.003, -3.326e-5
-1.002, -3.350e-5
-1.001, -3.372e-5
-1.000, -2.870e-5
-1.001, -2.473e-5
-1.002, -2.215e-5
-1.003, -2.014e-5
-1.004, -1.826e-5
-1.005, -1.668e-5
-1.006, -1.518e-5
-1.007, -1.389e-5
-1.008, -1.269e-5
-1.009, -1.159e-5
-1.010, -1.059e-5
-1.011, -9.640e-6
-1.012, -8.707e-6
-1.013, -7.912e-6
-1.014, -7.221e-6
-1.015, -6.471e-6
-1.016, -5.794e-6
-1.017, -5.223e-6
-1.018, -4.553e-6
-1.019, -4.071e-6
-1.020, -3.570e-6
-1.021, -3.060e-6
-1.022, -2.658e-6
-1.023, -2.170e-6
-1.024, -1.780e-6
-1.025, -1.424e-6
-1.026, -1.051e-6
-1.027, -6.938e-7
-1.028, -3.721e-7
-1.029, -7.518e-8
-1.030, 2.257e-7
-1.031, 5.306e-7
-1.032, 7.545e-7
-1.033, 1.033e-6
-1.034, 1.242e-6
-1.035, 1.470e-6
-1.036, 1.688e-6
-1.037, 1.922e-6
-1.038, 2.072e-6
-1.039, 2.263e-6
-1.040, 2.463e-6
-1.041, 2.628e-6
-1.042, 2.865e-6
-1.043, 2.920e-6
-1.044, 3.091e-6
-1.045, 3.250e-6
-1.046, 3.356e-6
-1.047, 3.555e-6
-1.048, 3.625e-6
-1.049, 3.758e-6
-1.050, 3.850e-6
-1.051, 3.994e-6
-1.052, 4.086e-6
-1.053, 4.218e-6
-1.054, 4.309e-6
-1.055, 4.422e-6
-1.056, 4.512e-6
-1.057, 4.621e-6
-1.058, 4.715e-6
-1.059, 4.811e-6
-1.060, 4.854e-6
-1.061, 4.944e-6
-1.062, 4.996e-6
-1.063, 5.172e-6
-1.064, 5.122e-6
-1.065, 5.183e-6
-1.066, 5.325e-6
-1.067, 5.385e-6
-1.068, 5.445e-6
-1.069, 5.483e-6
-1.070, 5.567e-6
-1.071, 5.697e-6
-1.072, 5.687e-6
-1.073, 5.749e-6
-1.074, 5.836e-6
-1.075, 5.873e-6
-1.076, 5.948e-6
-1.077, 6.000e-6
-1.078, 6.005e-6
-1.079, 6.150e-6
-1.080, 6.098e-6
-1.081, 6.191e-6
-1.082, 6.264e-6
-1.083, 6.293e-6
-1.084, 6.356e-6
-1.085, 6.388e-6
-1.086, 6.464e-6
-1.087, 6.515e-6
-1.088, 6.554e-6
-1.089, 6.592e-6
-1.090, 6.670e-6
-1.091, 6.721e-6
-1.092, 6.707e-6
-1.093, 6.823e-6
-1.094, 6.833e-6
-1.095, 6.900e-6
-1.096, 6.918e-6
-1.097, 6.972e-6
-1.098, 7.067e-6
-1.099, 7.037e-6
-1.100, 7.068e-6
-1.101, 7.189e-6
-1.102, 7.212e-6
-1.103, 7.264e-6
-1.104, 7.278e-6
-1.105, 7.370e-6
-1.106, 7.367e-6
-1.107, 7.481e-6
-1.108, 7.494e-6
-1.109, 7.491e-6
-1.110, 7.553e-6
-1.111, 7.615e-6
-1.112, 7.675e-6
-1.113, 7.700e-6
-1.114, 7.812e-6
-1.115, 7.761e-6
-1.116, 7.879e-6
-1.117, 7.895e-6
-1.118, 7.925e-6
-1.119, 7.994e-6
-1.120, 7.958e-6
-1.121, 8.119e-6
-1.122, 8.133e-6
-1.123, 8.180e-6
-1.124, 8.222e-6
-1.125, 8.261e-6
-1.126, 8.261e-6
-1.127, 8.397e-6
-1.128, 8.392e-6
-1.129, 8.413e-6
-1.130, 8.511e-6
-1.131, 8.531e-6
-1.132, 8.633e-6
-1.133, 8.636e-6
-1.134, 8.682e-6
-1.135, 8.716e-6
-1.136, 8.758e-6
-1.137, 8.849e-6
-1.138, 8.881e-6
-1.139, 8.921e-6
-1.140, 8.930e-6
-1.141, 9.009e-6
-1.142, 9.062e-6
-1.143, 9.166e-6
-1.144, 9.149e-6
-1.145, 9.162e-6
-1.146, 9.273e-6
-1.147, 9.295e-6
-1.148, 9.390e-6
-1.149, 9.369e-6
-1.150, 9.451e-6
-1.151, 9.493e-6
-1.152, 9.529e-6
-1.153, 9.599e-6
-1.154, 9.661e-6
-1.155, 9.755e-6
-1.156, 9.707e-6
-1.157, 9.851e-6
-1.158, 9.845e-6
-1.159, 9.881e-6
-1.160, 9.923e-6
-1.161, 9.991e-6
-1.162, 1.008e-5
-1.163, 1.001e-5
-1.164, 1.009e-5
-1.165, 1.015e-5
-1.166, 1.023e-5
-1.167, 1.028e-5
-1.168, 1.031e-5
-1.169, 1.037e-5
-1.170, 1.040e-5
-1.171, 1.050e-5
-1.172, 1.050e-5
-1.173, 1.059e-5
-1.174, 1.057e-5
-1.175, 1.067e-5
-1.176, 1.072e-5
-1.177, 1.077e-5
-1.178, 1.084e-5
-1.179, 1.080e-5
-1.180, 1.090e-5
-1.181, 1.092e-5
-1.182, 1.102e-5
-1.183, 1.110e-5
-1.184, 1.103e-5
-1.185, 1.112e-5
-1.186, 1.120e-5
-1.187, 1.131e-5
-1.188, 1.133e-5
-1.189, 1.133e-5
-1.190, 1.133e-5
-1.191, 1.142e-5
-1.192, 1.145e-5
-1.193, 1.152e-5
-1.194, 1.174e-5
-1.195, 1.169e-5
-1.196, 1.172e-5
-1.197, 1.175e-5
-1.198, 1.184e-5
-1.199, 1.177e-5
-1.200, 1.186e-5
-1.201, 1.197e-5
-1.202, 1.198e-5
-1.203, 1.206e-5
-1.204, 1.206e-5
-1.205, 1.214e-5
-1.206, 1.215e-5
-1.207, 1.225e-5
-1.208, 1.228e-5
-1.209, 1.233e-5
-1.210, 1.241e-5
-1.211, 1.246e-5
-1.212, 1.257e-5
-1.213, 1.256e-5
-1.214, 1.266e-5
-1.215, 1.266e-5
-1.216, 1.274e-5
-1.217, 1.287e-5
-1.218, 1.287e-5
-1.219, 1.290e-5
-1.220, 1.299e-5
-1.221, 1.307e-5
-1.222, 1.315e-5
-1.223, 1.320e-5
-1.224, 1.331e-5
-1.225, 1.331e-5
-1.226, 1.345e-5
-1.227, 1.341e-5
-1.228, 1.360e-5
-1.229, 1.362e-5
-1.230, 1.371e-5
-1.231, 1.377e-5
-1.232, 1.381e-5
-1.233, 1.392e-5
-1.234, 1.393e-5
-1.235, 1.402e-5
-1.236, 1.408e-5
-1.237, 1.420e-5
-1.238, 1.426e-5
-1.239, 1.433e-5
-1.240, 1.439e-5
-1.241, 1.444e-5
-1.242, 1.463e-5
-1.243, 1.466e-5
-1.244, 1.475e-5
-1.245, 1.478e-5
-1.246, 1.488e-5
-1.247, 1.503e-5
-1.248, 1.506e-5
-1.249, 1.517e-5
-1.250, 1.523e-5
-1.251, 1.532e-5
-1.252, 1.541e-5
-1.253, 1.550e-5
-1.254, 1.557e-5
-1.255, 1.563e-5
-1.256, 1.577e-5
-1.257, 1.582e-5
-1.258, 1.599e-5
-1.259, 1.600e-5
-1.260, 1.609e-5
-1.261, 1.622e-5
-1.262, 1.626e-5
-1.263, 1.641e-5
-1.264, 1.645e-5
-1.265, 1.657e-5
-1.266, 1.666e-5
-1.267, 1.678e-5
-1.268, 1.690e-5
-1.269, 1.698e-5
-1.270, 1.707e-5
-1.271, 1.719e-5
-1.272, 1.729e-5
-1.273, 1.737e-5
-1.274, 1.752e-5
-1.275, 1.762e-5
-1.276, 1.776e-5
-1.277, 1.784e-5
-1.278, 1.792e-5
-1.279, 1.808e-5
-1.280, 1.818e-5
-1.281, 1.834e-5
-1.282, 1.844e-5
-1.283, 1.856e-5
-1.284, 1.865e-5
-1.285, 1.878e-5
-1.286, 1.890e-5
-1.287, 1.906e-5
-1.288, 1.922e-5
-1.289, 1.934e-5
-1.290, 1.948e-5
-1.291, 1.964e-5
-1.292, 1.979e-5
-1.293, 2.003e-5
-1.294, 2.008e-5
-1.295, 2.020e-5
-1.296, 2.030e-5
-1.297, 2.050e-5
-1.298, 2.065e-5
-1.299, 2.079e-5
-1.300, 2.110e-5
-1.301, 2.126e-5
-1.302, 2.137e-5
-1.303, 2.146e-5
-1.304, 2.164e-5
-1.305, 2.182e-5
-1.306, 2.205e-5
-1.307, 2.224e-5
-1.308, 2.245e-5
-1.309, 2.260e-5
-1.310, 2.282e-5
-1.311, 2.306e-5
-1.312, 2.352e-5
-1.313, 2.374e-5
-1.314, 2.372e-5
-1.315, 2.398e-5
-1.316, 2.419e-5
-1.317, 2.444e-5
-1.318, 2.469e-5
-1.319, 2.494e-5
-1.320, 2.523e-5
-1.321, 2.553e-5
-1.322, 2.582e-5
-1.323, 2.604e-5
-1.324, 2.640e-5
-1.325, 2.683e-5
-1.326, 2.698e-5
-1.327, 2.734e-5
-1.328, 2.759e-5
-1.329, 2.799e-5
-1.330, 2.831e-5
-1.331, 2.874e-5
-1.332, 2.911e-5
-1.333, 2.942e-5
-1.334, 2.978e-5
-1.335, 3.020e-5
-1.336, 3.059e-5
-1.337, 3.098e-5
-1.338, 3.149e-5
-1.339, 3.185e-5
-1.340, 3.226e-5
-1.341, 3.272e-5
-1.342, 3.316e-5
-1.343, 3.369e-5
-1.344, 3.414e-5
-1.345, 3.465e-5
-1.346, 3.515e-5
-1.347, 3.568e-5
-1.348, 3.623e-5
-1.349, 3.675e-5
-1.350, 3.731e-5
-1.351, 3.790e-5
-1.352, 3.862e-5
-1.353, 3.927e-5
-1.354, 3.976e-5
-1.355, 4.035e-5
-1.356, 4.104e-5
-1.357, 4.174e-5
-1.358, 4.243e-5
-1.359, 4.314e-5
-1.360, 4.384e-5
-1.361, 4.455e-5
-1.362, 4.528e-5
-1.363, 4.598e-5
-1.364, 4.683e-5
-1.365, 4.759e-5
-1.366, 4.843e-5
-1.367, 4.922e-5
-1.368, 5.007e-5
-1.369, 5.096e-5
-1.370, 5.189e-5
-1.371, 5.278e-5
-1.372, 5.361e-5
-1.373, 5.464e-5
-1.374, 5.546e-5
-1.375, 5.651e-5
-1.376, 5.749e-5
-1.377, 5.847e-5
-1.378, 5.961e-5
-1.379, 6.063e-5
-1.380, 6.172e-5
-1.381, 6.279e-5
-1.382, 6.401e-5
-1.383, 6.515e-5
-1.384, 6.628e-5
-1.385, 6.748e-5
-1.386, 6.871e-5
-1.387, 6.988e-5
-1.388, 7.116e-5
-1.389, 7.249e-5
-1.390, 7.376e-5
-1.391, 7.507e-5
-1.392, 7.640e-5
-1.393, 7.779e-5
-1.394, 7.921e-5
-1.395, 8.057e-5
-1.396, 8.210e-5
-1.397, 8.359e-5
-1.398, 8.520e-5
-1.399, 8.672e-5
-1.400, 8.425e-5
-1.399, 8.147e-5
-1.398, 7.920e-5
-1.397, 7.722e-5
-1.396, 7.525e-5
-1.395, 7.337e-5
-1.394, 7.156e-5
-1.393, 6.982e-5
-1.392, 6.814e-5
-1.391, 6.643e-5
-1.390, 6.477e-5
-1.389, 6.320e-5
-1.388, 6.167e-5
-1.387, 6.013e-5
-1.386, 5.870e-5
-1.385, 5.722e-5
-1.384, 5.579e-5
-1.383, 5.443e-5
-1.382, 5.306e-5
-1.381, 5.179e-5
-1.380, 5.048e-5
-1.379, 4.927e-5
-1.378, 4.804e-5
-1.377, 4.680e-5
-1.376, 4.571e-5
-1.375, 4.448e-5
-1.374, 4.348e-5
-1.373, 4.236e-5
-1.372, 4.130e-5
-1.371, 4.031e-5
-1.370, 3.924e-5
-1.369, 3.821e-5
-1.368, 3.731e-5
-1.367, 3.639e-5
-1.366, 3.547e-5
-1.365, 3.462e-5
-1.364, 3.367e-5
-1.363, 3.284e-5
-1.362, 3.200e-5
-1.361, 3.113e-5
-1.360, 3.039e-5
-1.359, 2.957e-5
-1.358, 2.883e-5
-1.357, 2.812e-5
-1.356, 2.731e-5
-1.355, 2.664e-5
-1.354, 2.592e-5
-1.353, 2.531e-5
-1.352, 2.463e-5
-1.351, 2.400e-5
-1.350, 2.331e-5
-1.349, 2.271e-5
-1.348, 2.211e-5
-1.347, 2.152e-5
-1.346, 2.095e-5
-1.345, 2.034e-5
-1.344, 1.984e-5
-1.343, 1.931e-5
-1.342, 1.872e-5
-1.341, 1.822e-5
-1.340, 1.773e-5
-1.339, 1.721e-5
-1.338, 1.676e-5
-1.337, 1.628e-5
-1.336, 1.583e-5
-1.335, 1.535e-5
-1.334, 1.493e-5
-1.333, 1.449e-5
-1.332, 1.411e-5
-1.331, 1.362e-5
-1.330, 1.328e-5
-1.329, 1.290e-5
-1.328, 1.254e-5
-1.327, 1.213e-5
-1.326, 1.174e-5
-1.325, 1.145e-5
-1.324, 1.108e-5
-1.323, 1.075e-5
-1.322, 1.039e-5
-1.321, 1.007e-5
-1.320, 9.782e-6
-1.319, 9.445e-6
-1.318, 9.144e-6
-1.317, 8.880e-6
-1.316, 8.583e-6
-1.315, 8.249e-6
-1.314, 8.042e-6
-1.313, 7.705e-6
-1.312, 7.497e-6
-1.311, 7.267e-6
-1.310, 6.941e-6
-1.309, 6.753e-6
-1.308, 6.526e-6
-1.307, 6.246e-6
-1.306, 6.040e-6
-1.305, 5.733e-6
-1.304, 5.604e-6
-1.303, 5.345e-6
-1.302, 5.198e-6
-1.301, 4.964e-6
-1.300, 4.774e-6
-1.299, 4.534e-6
-1.298, 4.391e-6
-1.297, 4.250e-6
-1.296, 4.037e-6
-1.295, 3.802e-6
-1.294, 3.716e-6
-1.293, 3.480e-6
-1.292, 3.408e-6
-1.291, 3.170e-6
-1.290, 3.045e-6
-1.289, 2.884e-6
-1.288, 2.734e-6
-1.287, 2.637e-6
-1.286, 2.443e-6
-1.285, 2.318e-6
-1.284, 2.144e-6
-1.283, 2.019e-6
-1.282, 1.940e-6
-1.281, 1.782e-6
-1.280, 1.643e-6
-1.279, 1.502e-6
-1.278, 1.420e-6
-1.277, 1.262e-6
-1.276, 1.149e-6
-1.275, 1.046e-6
-1.274, 9.459e-7
-1.273, 8.335e-7
-1.272, 7.151e-7
-1.271, 6.598e-7
-1.270, 4.961e-7
-1.269, 4.349e-7
-1.268, 3.234e-7
-1.267, 1.902e-7
-1.266, 1.547e-7
-1.265, 2.348e-8
-1.264, -7.321e-8
-1.263, -1.452e-7
-1.262, -2.449e-7
-1.261, -3.090e-7
-1.260, -4.195e-7
-1.259, -5.043e-7
-1.258, -5.833e-7
-1.257, -6.208e-7
-1.256, -7.007e-7
-1.255, -8.378e-7
-1.254, -9.029e-7
-1.253, -9.631e-7
-1.252, -1.055e-6
-1.251, -1.131e-6
-1.250, -1.190e-6
-1.249, -1.233e-6
-1.248, -1.338e-6
-1.247, -1.418e-6
-1.246, -1.496e-6
-1.245, -1.554e-6
-1.244, -1.638e-6
-1.243, -1.709e-6
-1.242, -1.747e-6
-1.241, -1.846e-6
-1.240, -1.892e-6
-1.239, -1.966e-6
-1.238, -2.036e-6
-1.237, -2.071e-6
-1.236, -2.134e-6
-1.235, -2.230e-6
-1.234, -2.356e-6
-1.233, -2.408e-6
-1.232, -2.433e-6
-1.231, -2.512e-6
-1.230, -2.582e-6
-1.229, -2.687e-6
-1.228, -2.672e-6
-1.227, -2.769e-6
-1.226, -2.744e-6
-1.225, -2.853e-6
-1.224, -2.929e-6
-1.223, -2.913e-6
-1.222, -3.036e-6
-1.221, -3.057e-6
-1.220, -3.156e-6
-1.219, -3.237e-6
-1.218, -3.274e-6
-1.217, -3.340e-6
-1.216, -3.375e-6
-1.215, -3.454e-6
-1.214, -3.555e-6
-1.213, -3.538e-6
-1.212, -3.618e-6
-1.211, -3.651e-6
-1.210, -3.753e-6
-1.209, -3.829e-6
-1.208, -3.854e-6
-1.207, -3.897e-6
-1.206, -4.010e-6
-1.205, -4.039e-6
-1.204, -4.113e-6
-1.203, -4.173e-6
-1.202, -4.203e-6
-1.201, -4.320e-6
-1.200, -4.345e-6
-1.199, -4.438e-6
-1.198, -4.452e-6
-1.197, -4.478e-6
-1.196, -4.595e-6
-1.195, -4.617e-6
-1.194, -4.757e-6
-1.193, -4.758e-6
-1.192, -4.777e-6
-1.191, -4.879e-6
-1.190, -4.978e-6
-1.189, -5.039e-6
-1.188, -5.071e-6
-1.187, -5.125e-6
-1.186, -5.180e-6
-1.185, -5.277e-6
-1.184, -5.333e-6
-1.183, -5.331e-6
-1.182, -5.494e-6
-1.181, -5.507e-6
-1.180, -5.603e-6
-1.179, -5.721e-6
-1.178, -5.735e-6
-1.177, -5.830e-6
-1.176, -5.870e-6
-1.175, -5.979e-6
-1.174, -6.046e-6
-1.173, -6.090e-6
-1.172, -6.164e-6
-1.171, -6.251e-6
-1.170, -6.320e-6
-1.169, -6.377e-6
-1.168, -6.487e-6
-1.167, -6.482e-6
-1.166, -6.607e-6
-1.165, -6.690e-6
-1.164, -6.744e-6
-1.163, -6.874e-6
-1.162, -6.872e-6
-1.161, -7.025e-6
-1.160, -7.090e-6
-1.159, -7.159e-6
-1.158, -7.272e-6
-1.157, -7.310e-6
-1.156, -7.448e-6
-1.155, -7.490e-6
-1.154, -7.584e-6
-1.153, -7.657e-6
-1.152, -7.800e-6
-1.151, -7.853e-6
-1.150, -7.998e-6
-1.149, -8.104e-6
-1.148, -8.129e-6
-1.147, -8.263e-6
-1.146, -8.314e-6
-1.145, -8.464e-6
-1.144, -8.519e-6
-1.143, -8.656e-6
-1.142, -8.765e-6
-1.141, -8.844e-6
-1.140, -8.980e-6
-1.139, -9.063e-6
-1.138, -9.176e-6
-1.137, -9.300e-6
-1.136, -9.351e-6
-1.135, -9.489e-6
-1.134, -9.600e-6
-1.133, -9.750e-6
-1.132, -9.805e-6
-1.131, -9.957e-6
-1.130, -1.004e-5
-1.129, -1.020e-5
-1.128, -1.027e-5
-1.127, -1.042e-5
-1.126, -1.061e-5
-1.125, -1.067e-5
-1.124, -1.085e-5
-1.123, -1.100e-5
-1.122, -1.110e-5
-1.121, -1.124e-5
-1.120, -1.135e-5
-1.119, -1.148e-5
-1.118, -1.162e-5
-1.117, -1.177e-5
-1.116, -1.190e-5
-1.115, -1.207e-5
-1.114, -1.220e-5
-1.113, -1.236e-5
-1.112, -1.251e-5
-1.111, -1.261e-5
-1.110, -1.281e-5
-1.109, -1.291e-5
-1.108, -1.306e-5
-1.107, -1.322e-5
-1.106, -1.334e-5
-1.105, -1.357e-5
-1.104, -1.366e-5
-1.103, -1.382e-5
-1.102, -1.396e-5
-1.101, -1.415e-5
-1.100, -1.435e-5
-1.099, -1.446e-5
-1.098, -1.464e-5
-1.097, -1.476e-5
-1.096, -1.496e-5
-1.095, -1.515e-5
-1.094, -1.525e-5
-1.093, -1.544e-5
-1.092, -1.559e-5
-1.091, -1.578e-5
-1.090, -1.591e-5
-1.089, -1.610e-5
-1.088, -1.622e-5
-1.087, -1.644e-5
-1.086, -1.660e-5
-1.085, -1.677e-5
-1.084, -1.695e-5
-1.083, -1.710e-5
-1.082, -1.729e-5
-1.081, -1.750e-5
-1.080, -1.764e-5
-1.079, -1.782e-5
-1.078, -1.800e-5
-1.077, -1.815e-5
-1.076, -1.827e-5
-1.075, -1.850e-5
-1.074, -1.863e-5
-1.073, -1.880e-5
-1.072, -1.891e-5
-1.071, -1.911e-5
-1.070, -1.931e-5
-1.069, -1.942e-5
-1.068, -1.965e-5
-1.067, -1.974e-5
-1.066, -1.995e-5
-1.065, -2.011e-5
-1.064, -2.031e-5
-1.063, -2.044e-5
-1.062, -2.057e-5
-1.061, -2.079e-5
-1.060, -2.092e-5
-1.059, -2.111e-5
-1.058, -2.125e-5
-1.057, -2.140e-5
-1.056, -2.157e-5
-1.055, -2.172e-5
-1.054, -2.193e-5
-1.053, -2.204e-5
-1.052, -2.217e-5
-1.051, -2.238e-5
-1.050, -2.253e-5
-1.049, -2.278e-5
-1.048, -2.283e-5
-1.047, -2.303e-5
-1.046, -2.313e-5
-1.045, -2.331e-5
-1.044, -2.349e-5
-1.043, -2.365e-5
-1.042, -2.381e-5
-1.041, -2.393e-5
-1.040, -2.411e-5
-1.039, -2.428e-5
-1.038, -2.444e-5
-1.037, -2.460e-5
-1.036, -2.477e-5
-1.035, -2.496e-5
-1.034, -2.508e-5
-1.033, -2.529e-5
-1.032, -2.540e-5
-1.031, -2.556e-5
-1.030, -2.576e-5
-1.029, -2.588e-5
-1.028, -2.609e-5
-1.027, -2.622e-5
-1.026, -2.638e-5
-1.025, -2.658e-5
-1.024, -2.675e-5
-1.023, -2.693e-5
-1.022, -2.714e-5
-1.021, -2.726e-5
-1.020, -2.743e-5
-1.019, -2.760e-5
-1.018, -2.773e-5
-1.017, -2.801e-5
-1.016, -2.810e-5
-1.015, -2.832e-5
-1.014, -2.861e-5
-1.013, -2.867e-5
-1.012, -2.894e-5
-1.011, -2.908e-5
-1.010, -2.923e-5
-1.009, -2.953e-5
-1.008, -2.966e-5
-1.007, -2.984e-5
-1.006, -3.011e-5
-1.005, -3.034e-5
-1.004, -3.055e-5
-1.003, -3.080e-5
-1.002, -3.097e-5
-1.001, -3.125e-5
