Potential V vs RHE, Current mA cm-2
0.4132999999999999,-0.0014939351326574788
0.4122999999999999,-0.007164098022516547
0.4112999999999999,-0.009194208737822873
0.4102999999999999,-0.010290609995218277
0.4092999999999999,-0.011068701210144046
0.4082999999999999,-0.011730786098480885
0.4072999999999999,-0.012476338953509757
0.4062999999999999,-0.013101641348050105
0.4052999999999999,-0.013629328662899764
0.4042999999999999,-0.014056571475459002
0.4032999999999999,-0.014430055258623373
0.4022999999999999,-0.014911057100577486
0.4012999999999999,-0.015392058942531598
0.4002999999999999,-0.01573158965449921
0.3992999999999999,-0.016028679027470863
0.3982999999999999,-0.016325768400442524
0.3972999999999999,-0.01670774045140608
0.3962999999999999,-0.017132153841365592
0.3952999999999999,-0.017429243214337253
0.3942999999999999,-0.01772633258730891
0.39329999999999987,-0.017966833508285963
0.39229999999999987,-0.018263922881257624
0.39129999999999987,-0.018617600706223883
0.39029999999999987,-0.018815660288204986
0.38929999999999987,-0.018942984305192843
0.38829999999999987,-0.019126896774175294
0.38729999999999987,-0.019353250582153703
0.38629999999999987,-0.01969278129412131
0.38529999999999986,-0.019904987989101064
0.38429999999999986,-0.020018164893090266
0.38329999999999986,-0.020230371588070024
0.38229999999999986,-0.020442578283049778
0.38129999999999986,-0.020725520543022787
0.38029999999999986,-0.020951874351001196
0.37929999999999986,-0.021050904141991744
0.37829999999999986,-0.02124896372397285
0.37729999999999986,-0.021517758870947205
0.37629999999999986,-0.021772406904922915
0.37529999999999986,-0.02199876071290132
0.37429999999999986,-0.022097790503891875
0.37329999999999985,-0.022281702972874327
0.37229999999999985,-0.022550498119848682
0.37129999999999985,-0.02280514615382439
0.37029999999999985,-0.022989058622806844
0.36929999999999985,-0.023116382639794698
0.36829999999999985,-0.02327200088277985
0.36729999999999985,-0.02352664891675556
0.36629999999999985,-0.023795444063729916
0.36529999999999985,-0.023965209419713723
0.36429999999999985,-0.024149121888696175
0.36329999999999985,-0.02436132858367593
0.36229999999999984,-0.02457353527865569
0.36129999999999984,-0.024814036199632745
0.36029999999999984,-0.024983801555616546
0.35929999999999984,-0.02515356691160035
0.35829999999999984,-0.025252596702590904
0.35729999999999984,-0.025493097623567964
0.35629999999999984,-0.025832628335535568
0.35529999999999984,-0.026044835030515325
0.35429999999999984,-0.02627118883849373
0.35329999999999984,-0.026412659968480235
0.35229999999999984,-0.02656827821146539
0.35129999999999983,-0.026766337793446494
0.35029999999999983,-0.026893661810434347
0.34929999999999983,-0.0269643973754276
0.34829999999999983,-0.027120015618412752
0.34729999999999983,-0.027473693443379014
0.34629999999999983,-0.02770004725135742
0.34529999999999983,-0.027813224155346622
0.34429999999999983,-0.027813224155346622
0.3432999999999998,-0.027926401059335824
0.3422999999999998,-0.028082019302320977
0.3412999999999998,-0.028308373110299385
0.3402999999999998,-0.028435697127287232
0.3392999999999998,-0.02847813846628319
0.3382999999999998,-0.028591315370272388
0.3372999999999998,-0.028817669178250797
0.3362999999999998,-0.02902987587323055
0.3352999999999998,-0.029157199890218404
0.3342999999999998,-0.02921378834221301
0.3332999999999998,-0.029284523907206258
0.3322999999999998,-0.02959576039317657
0.3312999999999998,-0.029921143992145526
0.3302999999999998,-0.030090909348129333
0.3292999999999998,-0.03011920357412663
0.3282999999999998,-0.03011920357412663
0.3272999999999998,-0.030288968930110433
0.3262999999999998,-0.03058605830308209
0.3252999999999999,-0.030784117885063196
0.3242999999999999,-0.030812412111060502
0.3232999999999999,-0.03082655922405915
0.3222999999999999,-0.030953883241047007
0.3212999999999999,-0.031123648597030807
0.3202999999999999,-0.03120853127502271
0.3192999999999999,-0.03132170817901191
0.3182999999999999,-0.03137829663100652
0.3172999999999999,-0.031533914873991674
0.3162999999999999,-0.031788562907967374
0.3152999999999999,-0.032071505167940384
0.3142999999999999,-0.032255417636922835
0.3132999999999999,-0.03238274165391069
0.3122999999999999,-0.03243933010590529
0.3112999999999999,-0.032637389687886396
0.3102999999999999,-0.0326656839138837
0.3092999999999999,-0.032736419478876955
0.3082999999999999,-0.032807155043870204
0.3072999999999999,-0.03294862617385671
0.3062999999999999,-0.03318912709483376
0.3052999999999999,-0.033288156885824316
0.3042999999999999,-0.03331645111182161
0.3032999999999999,-0.033457922241808116
0.3022999999999999,-0.03357109914579732
0.3012999999999999,-0.03376915872777843
0.3002999999999999,-0.033967218309759524
0.2992999999999999,-0.03420771923073659
0.2982999999999999,-0.03441992592571634
0.2972999999999999,-0.03451895571670689
0.2962999999999999,-0.0345755441687015
0.2952999999999999,-0.03458969128170015
0.2942999999999999,-0.03450480860370824
0.2932999999999999,-0.03451895571670689
0.2922999999999999,-0.0346321326206961
0.2912999999999999,-0.034717015298688
0.2902999999999999,-0.03478775086368125
0.2892999999999999,-0.034745309524685304
0.2882999999999999,-0.0346887210726907
0.2872999999999999,-0.03480189797667991
0.2862999999999999,-0.03488678065467181
0.2852999999999999,-0.034915074880669104
0.2842999999999999,-0.03488678065467181
0.2832999999999999,-0.03484433931567585
0.2822999999999999,-0.03490092776767045
0.2812999999999999,-0.0349716633326637
0.2802999999999999,-0.03495751621966506
0.2792999999999999,-0.03495751621966506
0.2782999999999999,-0.03498581044566235
0.2772999999999999,-0.03511313446265021
0.2762999999999999,-0.03521216425364076
0.2752999999999999,-0.03508484023665291
0.2742999999999999,-0.0349716633326637
0.2732999999999999,-0.03490092776767045
0.2722999999999999,-0.03488678065467181
0.2712999999999999,-0.03494336910666641
0.2702999999999999,-0.03488678065467181
0.2692999999999999,-0.03475945663768395
0.26829999999999987,-0.034745309524685304
0.26729999999999987,-0.0348301922026772
0.26629999999999987,-0.03501410467165966
0.26529999999999987,-0.0349716633326637
0.26429999999999987,-0.03480189797667991
0.26329999999999987,-0.03470286818568935
0.26229999999999987,-0.0346604268466934
0.26129999999999987,-0.03467457395969205
0.26029999999999986,-0.034617985507697444
0.25929999999999986,-0.034476514377710946
0.25829999999999986,-0.03441992592571634
0.25729999999999986,-0.034391631699719045
0.25629999999999986,-0.03443407303871499
0.25529999999999986,-0.034476514377710946
0.25429999999999986,-0.034391631699719045
0.25329999999999986,-0.03432089613472579
0.25229999999999986,-0.03432089613472579
0.25129999999999986,-0.034335043247724434
0.25029999999999986,-0.034377484586720394
0.24929999999999986,-0.03432089613472579
0.24829999999999985,-0.034264307682731185
0.24729999999999985,-0.034264307682731185
0.24629999999999985,-0.034264307682731185
0.24529999999999985,-0.034264307682731185
0.24429999999999985,-0.034193572117737936
0.24329999999999985,-0.03416527789174064
0.24229999999999985,-0.03425016056973254
0.24129999999999985,-0.03436333747372174
0.24029999999999985,-0.034349190360723085
0.23929999999999985,-0.03432089613472579
0.23829999999999985,-0.03432089613472579
0.23729999999999984,-0.034377484586720394
0.23629999999999984,-0.03441992592571634
0.23529999999999984,-0.03432089613472579
0.23429999999999984,-0.03420771923073659
0.23329999999999984,-0.03416527789174064
0.23229999999999984,-0.03425016056973254
0.23129999999999984,-0.034377484586720394
0.23029999999999984,-0.03432089613472579
0.22929999999999984,-0.034179425004739285
0.22829999999999984,-0.034108689439746036
0.22729999999999984,-0.034094542326747385
0.22629999999999983,-0.03422186634373524
0.22529999999999983,-0.03422186634373524
0.22429999999999983,-0.03412283655274468
0.22329999999999983,-0.03406624810075008
0.22229999999999983,-0.03406624810075008
0.22129999999999983,-0.03415113077874199
0.22029999999999983,-0.03423601345673389
0.21929999999999983,-0.03416527789174064
0.21829999999999983,-0.03413698366574334
0.21729999999999983,-0.03416527789174064
0.21629999999999983,-0.034264307682731185
0.21529999999999982,-0.03429260190872849
0.21429999999999982,-0.03425016056973254
0.21329999999999982,-0.034264307682731185
0.21229999999999982,-0.03440577881271769
0.21129999999999982,-0.03451895571670689
0.21029999999999982,-0.034547249942704195
0.20929999999999982,-0.034547249942704195
0.20829999999999982,-0.034617985507697444
0.20729999999999982,-0.0347736037506826
0.20629999999999982,-0.03487263354167316
0.20529999999999982,-0.03481604508967855
0.20429999999999982,-0.03470286818568935
0.20329999999999981,-0.0346321326206961
0.2022999999999998,-0.034731162411686646
0.2012999999999998,-0.03485848642867451
0.20029999999999992,-0.03490092776767045
0.19929999999999992,-0.03487263354167316
0.19829999999999992,-0.03487263354167316
0.19729999999999992,-0.034915074880669104
0.19629999999999992,-0.03507069312365426
0.19529999999999992,-0.03511313446265021
0.19429999999999992,-0.03521216425364076
0.19329999999999992,-0.03525460559263671
0.19229999999999992,-0.03524045847963807
0.19129999999999991,-0.03536778249662592
0.1902999999999999,-0.035381929609624566
0.1892999999999999,-0.03541022383562187
0.1882999999999999,-0.03548095940061512
0.1872999999999999,-0.03549510651361377
0.1862999999999999,-0.035579989191605675
0.1852999999999999,-0.03560828341760297
0.1842999999999999,-0.035594136304604326
0.1832999999999999,-0.035650724756598924
0.1822999999999999,-0.03576390166058813
0.1812999999999999,-0.035961961242569236
0.1802999999999999,-0.03606099103355979
0.1792999999999999,-0.036018549694563834
0.1782999999999999,-0.03607513814655844
0.1772999999999999,-0.03617416793754899
0.1762999999999999,-0.03628734484153819
0.1752999999999999,-0.03634393329353279
0.1742999999999999,-0.03628734484153819
0.1732999999999999,-0.036301491954536844
0.1722999999999999,-0.03638637463252875
0.1712999999999999,-0.036471257310520644
0.1702999999999999,-0.03655613998851255
0.1692999999999999,-0.036570287101511195
0.1682999999999999,-0.036584434214509846
0.1672999999999999,-0.03671175823149771
0.1662999999999999,-0.036853229361484205
0.1652999999999999,-0.0369098178134788
0.1642999999999999,-0.03693811203947611
0.1632999999999999,-0.0369664062654734
0.1622999999999999,-0.03717861296045316
0.1612999999999999,-0.03747570233342482
0.1602999999999999,-0.03765961480240728
0.1592999999999999,-0.03781523304539243
0.15829999999999989,-0.037871821497387034
0.15729999999999988,-0.037871821497387034
0.15629999999999988,-0.03792840994938163
0.15529999999999988,-0.03790011572338433
0.15429999999999988,-0.03782938015839108
0.15329999999999988,-0.037801085932393785
0.15229999999999988,-0.03790011572338433
0.15129999999999988,-0.03808402819236679
0.15029999999999988,-0.038126469531362735
0.14929999999999988,-0.038112322418364084
0.14829999999999988,-0.038126469531362735
0.14729999999999988,-0.03814061664436139
0.14629999999999987,-0.03832452911334384
0.14529999999999987,-0.038423558904334396
0.14429999999999987,-0.03843770601733305
0.14329999999999987,-0.03857917714731955
0.14229999999999987,-0.03873479539030471
0.14129999999999987,-0.039003590537279066
0.14029999999999987,-0.039314827023249364
0.13929999999999987,-0.03939970970124127
0.13829999999999987,-0.03938556258824262
0.13729999999999987,-0.03935726836224532
0.13629999999999987,-0.03937141547524397
0.13529999999999986,-0.03935726836224532
0.13429999999999986,-0.03927238568425342
0.13329999999999986,-0.03925823857125477
0.13229999999999986,-0.03941385681423992
0.13129999999999986,-0.039527033718229125
0.13029999999999986,-0.03958362217022373
0.12929999999999986,-0.03954118083122777
0.12829999999999986,-0.03951288660523048
0.12729999999999986,-0.039611916396221025
0.12629999999999986,-0.039696799074212925
0.12529999999999986,-0.03975338752620753
0.12429999999999986,-0.03976753463920618
0.12329999999999985,-0.039824123091200786
0.12229999999999985,-0.039909005769192686
0.12129999999999985,-0.039965594221187284
0.12029999999999985,-0.039965594221187284
0.11929999999999985,-0.039894858656194035
0.11829999999999985,-0.03978168175220483
0.11729999999999985,-0.039795828865203484
0.11629999999999985,-0.03983827020419943
0.11529999999999985,-0.03978168175220483
0.11429999999999985,-0.03971094618721158
0.11329999999999985,-0.039682651961214274
0.11229999999999984,-0.03971094618721158
0.11129999999999984,-0.03978168175220483
0.11029999999999984,-0.03973924041320888
0.10929999999999984,-0.039626063509219676
0.10829999999999984,-0.039597769283222374
0.10729999999999984,-0.03956947505722508
0.10629999999999984,-0.039626063509219676
0.10529999999999984,-0.03958362217022373
0.10429999999999984,-0.039456298153235876
0.10329999999999984,-0.03939970970124127
0.10229999999999984,-0.039343121249246674
0.10129999999999983,-0.039328974136248016
0.10029999999999983,-0.03927238568425342
0.09929999999999983,-0.039088473215270966
0.09829999999999983,-0.039003590537279066
0.09729999999999983,-0.038961149198283106
0.09629999999999983,-0.03891870785928716
0.09529999999999983,-0.0388196780682966
0.09429999999999983,-0.038692354051308754
0.09329999999999983,-0.0386499127123128
0.09229999999999983,-0.038635765599314156
0.09129999999999983,-0.03857917714731955
0.09029999999999982,-0.03846600024333035
0.08929999999999982,-0.03835282333934115
0.08829999999999982,-0.03826794066134924
0.08729999999999982,-0.03838111756533845
0.08629999999999982,-0.038494294469327645
0.08529999999999982,-0.038508441582326296
0.08429999999999982,-0.03832452911334384
0.08329999999999982,-0.03814061664436139
0.08229999999999982,-0.03806988107936814
0.08129999999999982,-0.03806988107936814
0.08029999999999982,-0.038055733966369486
0.07929999999999982,-0.03802743974037219
0.07829999999999981,-0.03794255706238028
0.07729999999999981,-0.037956704175378934
0.07629999999999981,-0.03802743974037219
0.07529999999999992,-0.03790011572338433
0.07429999999999992,-0.03775864459339783
0.07329999999999992,-0.03761717346341132
0.07229999999999992,-0.03756058501141672
0.07129999999999992,-0.037603026350412676
0.07029999999999992,-0.037603026350412676
0.06929999999999992,-0.03754643789841807
0.06829999999999992,-0.03747570233342482
0.06729999999999992,-0.03744740810742752
0.06629999999999991,-0.037503996559422124
0.06529999999999991,-0.037503996559422124
0.06429999999999991,-0.037390819655432915
0.06329999999999991,-0.03737667254243427
0.06229999999999991,-0.037419113881430224
0.06129999999999991,-0.03747570233342482
0.06029999999999991,-0.037461555220426164
0.05929999999999991,-0.037390819655432915
0.05829999999999991,-0.037390819655432915
0.05729999999999991,-0.03744740810742752
0.056299999999999906,-0.03756058501141672
0.055299999999999905,-0.03756058501141672
0.054299999999999904,-0.037461555220426164
0.0532999999999999,-0.037390819655432915
0.0522999999999999,-0.037433260994428876
0.0512999999999999,-0.037461555220426164
0.0502999999999999,-0.037518143672420776
0.0492999999999999,-0.037503996559422124
0.0482999999999999,-0.037461555220426164
0.0472999999999999,-0.037461555220426164
0.0462999999999999,-0.03748984944642347
0.045299999999999896,-0.037461555220426164
0.044299999999999895,-0.03753229078541943
0.043299999999999894,-0.03771620325440188
0.04229999999999989,-0.03801329262737353
0.04129999999999989,-0.038126469531362735
0.04029999999999989,-0.03809817530536544
0.03929999999999989,-0.03794255706238028
0.03829999999999989,-0.037801085932393785
0.03729999999999989,-0.03774449748039918
0.03629999999999989,-0.03782938015839108
0.03529999999999989,-0.03785767438438838
0.034299999999999886,-0.037843527271389725
0.033299999999999885,-0.03785767438438838
0.032299999999999884,-0.03785767438438838
0.031299999999999883,-0.03799914551437489
0.030299999999999883,-0.03814061664436139
0.02929999999999988,-0.038239646435351944
0.02829999999999988,-0.03829623488734655
0.02729999999999988,-0.03826794066134924
0.02629999999999988,-0.03838111756533845
0.025299999999999878,-0.038409411791335744
0.024299999999999877,-0.0383669704523398
0.023299999999999876,-0.038409411791335744
0.022299999999999875,-0.03846600024333035
0.021299999999999875,-0.03855088292132225
0.020299999999999874,-0.0386499127123128
0.019299999999999873,-0.038621618486315505
0.018299999999999872,-0.0386782069383101
0.01729999999999987,-0.03883382518129525
0.01629999999999987,-0.03898944342428041
0.01529999999999987,-0.039088473215270966
0.014299999999999868,-0.03913091455426691
0.013299999999999867,-0.039244091458256115
0.012299999999999978,-0.03938556258824262
0.011299999999999866,-0.03948459237923317
0.010299999999999976,-0.039626063509219676
0.009299999999999864,-0.039725093300210235
0.008299999999999974,-0.039725093300210235
0.007299999999999862,-0.03973924041320888
0.006299999999999972,-0.03978168175220483
0.00529999999999986,-0.03980997597820213
0.0042999999999999705,-0.03983827020419943
0.0032999999999998586,-0.03983827020419943
0.0022999999999999687,-0.039909005769192686
0.0012999999999998568,-0.039979741334185935
0.00029999999999996696,-0.04002218267318189
-0.000700000000000145,-0.04003632978618053
-0.0017000000000000348,-0.03999388844718459
-0.0027000000000001467,-0.04006462401217784
-0.0037000000000000366,-0.04017780091616704
-0.0047000000000001485,-0.04016365380316839
-0.005700000000000038,-0.040078771125176486
-0.00670000000000015,-0.039979741334185935
-0.00770000000000004,-0.039909005769192686
-0.008700000000000152,-0.03995144710818864
-0.009700000000000042,-0.03988071154319539
-0.010700000000000154,-0.03985241731719808
-0.011700000000000044,-0.03980997597820213
-0.012700000000000156,-0.039725093300210235
-0.013700000000000045,-0.039725093300210235
-0.014700000000000157,-0.039597769283222374
-0.015700000000000047,-0.039442151040237225
-0.01670000000000016,-0.039456298153235876
-0.01770000000000005,-0.039597769283222374
-0.01870000000000016,-0.03965435773521698
-0.01970000000000005,-0.03956947505722508
-0.020700000000000163,-0.03935726836224532
-0.021700000000000053,-0.039173355893262866
-0.022700000000000164,-0.039074326102272315
-0.023700000000000054,-0.03903188476327636
-0.024700000000000166,-0.03901773765027772
-0.025700000000000056,-0.03893285497228581
-0.026700000000000168,-0.03901773765027772
-0.027700000000000058,-0.039159208780264215
-0.02870000000000017,-0.03921579723225881
-0.02970000000000006,-0.039145061667265564
-0.03070000000000017,-0.03898944342428041
-0.03170000000000006,-0.0388196780682966
-0.03270000000000017,-0.03872064827730605
-0.03370000000000006,-0.0386782069383101
-0.034700000000000175,-0.038621618486315505
-0.035700000000000065,-0.0385367358083236
-0.03670000000000018,-0.03843770601733305
-0.03770000000000007,-0.03843770601733305
-0.03870000000000018,-0.03848014735632899
-0.03970000000000007,-0.03843770601733305
-0.04070000000000018,-0.0383669704523398
-0.04170000000000007,-0.03826794066134924
-0.04270000000000018,-0.038239646435351944
-0.04370000000000007,-0.03826794066134924
-0.044700000000000184,-0.03822549932235329
-0.045700000000000074,-0.03818305798335734
-0.046700000000000186,-0.03814061664436139
-0.047700000000000076,-0.038126469531362735
-0.04870000000000019,-0.03821135220935464
-0.04970000000000008,-0.03818305798335734
-0.05070000000000019,-0.038126469531362735
-0.05170000000000008,-0.038126469531362735
-0.05270000000000019,-0.03814061664436139
-0.05370000000000008,-0.03828208777434789
-0.05470000000000019,-0.03838111756533845
-0.05570000000000008,-0.0383669704523398
-0.056700000000000195,-0.03838111756533845
-0.057700000000000085,-0.03839526467833709
-0.058700000000000196,-0.038494294469327645
-0.059700000000000086,-0.03855088292132225
-0.0607000000000002,-0.038494294469327645
-0.06170000000000009,-0.038494294469327645
-0.0627000000000002,-0.038522588695324954
-0.06370000000000009,-0.038522588695324954
-0.0647000000000002,-0.038494294469327645
-0.06570000000000009,-0.038423558904334396
-0.0667000000000002,-0.0384518531303317
-0.0677000000000001,-0.038635765599314156
