Apr. 10, 2025   00:14:07
Cyclic Voltammetry
File: c:/users/guazh/data/banditlqround7_x0exp994_r5/2025-03-28-exp1033\exp1033-2025-04-10t00_05_38-arkoh\exp1033_cv_sr_800mvs_efin_-1400mv.bin
Data Source:  Experiment
Instrument Model:  CHI760E
Header: CV ran at 800 mVs
Note: 

Init E (V) = -1
High E (V) = -1
Low E (V) = -1.4
Final E (V) = -1
Init P/N = N
Scan Rate (V/s) = 0.8
Segment = 3
Sample Interval (V) = 0.001
Quiet Time (sec) = 2
Sensitivity (A/V) = 0.01
Comp R (ohm) = 1.6

Results:

Channel 1:
Segment 1:

Segment 2:

Segment 3:

Potential/V, Current/A

-1.000, 1.557e-5
-1.001, 1.019e-4
-1.002, 1.451e-4
-1.003, 1.759e-4
-1.004, 1.944e-4
-1.005, 2.098e-4
-1.006, 2.252e-4
-1.007, 2.314e-4
-1.008, 2.406e-4
-1.009, 2.499e-4
-1.010, 2.561e-4
-1.011, 2.622e-4
-1.012, 2.684e-4
-1.013, 2.746e-4
-1.014, 2.838e-4
-1.015, 2.900e-4
-1.016, 2.992e-4
-1.017, 3.054e-4
-1.018, 3.146e-4
-1.019, 3.239e-4
-1.020, 3.300e-4
-1.021, 3.362e-4
-1.022, 3.455e-4
-1.023, 3.516e-4
-1.024, 3.578e-4
-1.025, 3.670e-4
-1.026, 3.701e-4
-1.027, 3.794e-4
-1.028, 3.886e-4
-1.029, 3.979e-4
-1.030, 4.071e-4
-1.031, 4.164e-4
-1.032, 4.256e-4
-1.033, 4.349e-4
-1.034, 4.441e-4
-1.035, 4.534e-4
-1.036, 4.626e-4
-1.037, 4.688e-4
-1.038, 4.811e-4
-1.039, 4.873e-4
-1.040, 4.965e-4
-1.041, 5.089e-4
-1.042, 5.181e-4
-1.043, 5.305e-4
-1.044, 5.428e-4
-1.045, 5.551e-4
-1.046, 5.674e-4
-1.047, 5.798e-4
-1.048, 5.921e-4
-1.049, 6.014e-4
-1.050, 6.137e-4
-1.051, 6.229e-4
-1.052, 6.322e-4
-1.053, 6.414e-4
-1.054, 6.538e-4
-1.055, 6.692e-4
-1.056, 6.784e-4
-1.057, 6.939e-4
-1.058, 7.062e-4
-1.059, 7.216e-4
-1.060, 7.339e-4
-1.061, 7.463e-4
-1.062, 7.586e-4
-1.063, 7.709e-4
-1.064, 7.771e-4
-1.065, 7.925e-4
-1.066, 8.018e-4
-1.067, 8.141e-4
-1.068, 8.264e-4
-1.069, 8.418e-4
-1.070, 8.542e-4
-1.071, 8.665e-4
-1.072, 8.788e-4
-1.073, 8.943e-4
-1.074, 9.066e-4
-1.075, 9.158e-4
-1.076, 9.313e-4
-1.077, 9.374e-4
-1.078, 9.498e-4
-1.079, 9.559e-4
-1.080, 9.652e-4
-1.081, 9.775e-4
-1.082, 9.868e-4
-1.083, 9.991e-4
-1.084, 1.011e-3
-1.085, 1.024e-3
-1.086, 1.033e-3
-1.087, 1.045e-3
-1.088, 1.055e-3
-1.089, 1.064e-3
-1.090, 1.070e-3
-1.091, 1.079e-3
-1.092, 1.085e-3
-1.093, 1.092e-3
-1.094, 1.101e-3
-1.095, 1.110e-3
-1.096, 1.116e-3
-1.097, 1.129e-3
-1.098, 1.138e-3
-1.099, 1.147e-3
-1.100, 1.153e-3
-1.101, 1.162e-3
-1.102, 1.169e-3
-1.103, 1.175e-3
-1.104, 1.178e-3
-1.105, 1.184e-3
-1.106, 1.187e-3
-1.107, 1.193e-3
-1.108, 1.196e-3
-1.109, 1.203e-3
-1.110, 1.209e-3
-1.111, 1.215e-3
-1.112, 1.224e-3
-1.113, 1.230e-3
-1.114, 1.233e-3
-1.115, 1.240e-3
-1.116, 1.243e-3
-1.117, 1.246e-3
-1.118, 1.252e-3
-1.119, 1.252e-3
-1.120, 1.255e-3
-1.121, 1.258e-3
-1.122, 1.264e-3
-1.123, 1.267e-3
-1.124, 1.273e-3
-1.125, 1.277e-3
-1.126, 1.283e-3
-1.127, 1.286e-3
-1.128, 1.289e-3
-1.129, 1.292e-3
-1.130, 1.292e-3
-1.131, 1.292e-3
-1.132, 1.295e-3
-1.133, 1.295e-3
-1.134, 1.295e-3
-1.135, 1.298e-3
-1.136, 1.298e-3
-1.137, 1.304e-3
-1.138, 1.307e-3
-1.139, 1.310e-3
-1.140, 1.310e-3
-1.141, 1.314e-3
-1.142, 1.314e-3
-1.143, 1.314e-3
-1.144, 1.310e-3
-1.145, 1.310e-3
-1.146, 1.307e-3
-1.147, 1.307e-3
-1.148, 1.307e-3
-1.149, 1.307e-3
-1.150, 1.307e-3
-1.151, 1.307e-3
-1.152, 1.307e-3
-1.153, 1.307e-3
-1.154, 1.307e-3
-1.155, 1.307e-3
-1.156, 1.304e-3
-1.157, 1.298e-3
-1.158, 1.295e-3
-1.159, 1.292e-3
-1.160, 1.286e-3
-1.161, 1.283e-3
-1.162, 1.280e-3
-1.163, 1.280e-3
-1.164, 1.277e-3
-1.165, 1.273e-3
-1.166, 1.273e-3
-1.167, 1.267e-3
-1.168, 1.264e-3
-1.169, 1.261e-3
-1.170, 1.252e-3
-1.171, 1.249e-3
-1.172, 1.240e-3
-1.173, 1.233e-3
-1.174, 1.227e-3
-1.175, 1.224e-3
-1.176, 1.218e-3
-1.177, 1.215e-3
-1.178, 1.212e-3
-1.179, 1.209e-3
-1.180, 1.206e-3
-1.181, 1.199e-3
-1.182, 1.193e-3
-1.183, 1.181e-3
-1.184, 1.175e-3
-1.185, 1.169e-3
-1.186, 1.159e-3
-1.187, 1.150e-3
-1.188, 1.144e-3
-1.189, 1.138e-3
-1.190, 1.132e-3
-1.191, 1.129e-3
-1.192, 1.122e-3
-1.193, 1.119e-3
-1.194, 1.113e-3
-1.195, 1.104e-3
-1.196, 1.098e-3
-1.197, 1.088e-3
-1.198, 1.082e-3
-1.199, 1.073e-3
-1.200, 1.067e-3
-1.201, 1.058e-3
-1.202, 1.055e-3
-1.203, 1.048e-3
-1.204, 1.042e-3
-1.205, 1.036e-3
-1.206, 1.033e-3
-1.207, 1.027e-3
-1.208, 1.021e-3
-1.209, 1.011e-3
-1.210, 1.005e-3
-1.211, 9.960e-4
-1.212, 9.898e-4
-1.213, 9.806e-4
-1.214, 9.744e-4
-1.215, 9.683e-4
-1.216, 9.621e-4
-1.217, 9.590e-4
-1.218, 9.528e-4
-1.219, 9.498e-4
-1.220, 9.436e-4
-1.221, 9.405e-4
-1.222, 9.343e-4
-1.223, 9.251e-4
-1.224, 9.189e-4
-1.225, 9.097e-4
-1.226, 9.035e-4
-1.227, 8.943e-4
-1.228, 8.912e-4
-1.229, 8.881e-4
-1.230, 8.850e-4
-1.231, 8.819e-4
-1.232, 8.758e-4
-1.233, 8.727e-4
-1.234, 8.665e-4
-1.235, 8.603e-4
-1.236, 8.542e-4
-1.237, 8.480e-4
-1.238, 8.418e-4
-1.239, 8.357e-4
-1.240, 8.295e-4
-1.241, 8.264e-4
-1.242, 8.203e-4
-1.243, 8.172e-4
-1.244, 8.141e-4
-1.245, 8.110e-4
-1.246, 8.079e-4
-1.247, 8.048e-4
-1.248, 7.987e-4
-1.249, 7.956e-4
-1.250, 7.863e-4
-1.251, 7.833e-4
-1.252, 7.771e-4
-1.253, 7.709e-4
-1.254, 7.679e-4
-1.255, 7.648e-4
-1.256, 7.617e-4
-1.257, 7.586e-4
-1.258, 7.555e-4
-1.259, 7.555e-4
-1.260, 7.524e-4
-1.261, 7.494e-4
-1.262, 7.463e-4
-1.263, 7.401e-4
-1.264, 7.339e-4
-1.265, 7.309e-4
-1.266, 7.247e-4
-1.267, 7.216e-4
-1.268, 7.185e-4
-1.269, 7.154e-4
-1.270, 7.154e-4
-1.271, 7.124e-4
-1.272, 7.124e-4
-1.273, 7.124e-4
-1.274, 7.062e-4
-1.275, 7.031e-4
-1.276, 7.000e-4
-1.277, 6.939e-4
-1.278, 6.908e-4
-1.279, 6.877e-4
-1.280, 6.877e-4
-1.281, 6.815e-4
-1.282, 6.815e-4
-1.283, 6.784e-4
-1.284, 6.784e-4
-1.285, 6.784e-4
-1.286, 6.784e-4
-1.287, 6.754e-4
-1.288, 6.723e-4
-1.289, 6.692e-4
-1.290, 6.661e-4
-1.291, 6.630e-4
-1.292, 6.599e-4
-1.293, 6.569e-4
-1.294, 6.569e-4
-1.295, 6.538e-4
-1.296, 6.538e-4
-1.297, 6.538e-4
-1.298, 6.538e-4
-1.299, 6.538e-4
-1.300, 6.538e-4
-1.301, 6.507e-4
-1.302, 6.507e-4
-1.303, 6.476e-4
-1.304, 6.445e-4
-1.305, 6.414e-4
-1.306, 6.384e-4
-1.307, 6.384e-4
-1.308, 6.384e-4
-1.309, 6.353e-4
-1.310, 6.353e-4
-1.311, 6.384e-4
-1.312, 6.384e-4
-1.313, 6.384e-4
-1.314, 6.353e-4
-1.315, 6.353e-4
-1.316, 6.353e-4
-1.317, 6.322e-4
-1.318, 6.322e-4
-1.319, 6.291e-4
-1.320, 6.291e-4
-1.321, 6.291e-4
-1.322, 6.291e-4
-1.323, 6.322e-4
-1.324, 6.322e-4
-1.325, 6.322e-4
-1.326, 6.353e-4
-1.327, 6.353e-4
-1.328, 6.353e-4
-1.329, 6.353e-4
-1.330, 6.322e-4
-1.331, 6.322e-4
-1.332, 6.322e-4
-1.333, 6.322e-4
-1.334, 6.322e-4
-1.335, 6.322e-4
-1.336, 6.353e-4
-1.337, 6.384e-4
-1.338, 6.414e-4
-1.339, 6.445e-4
-1.340, 6.445e-4
-1.341, 6.476e-4
-1.342, 6.476e-4
-1.343, 6.507e-4
-1.344, 6.507e-4
-1.345, 6.507e-4
-1.346, 6.507e-4
-1.347, 6.538e-4
-1.348, 6.599e-4
-1.349, 6.630e-4
-1.350, 6.661e-4
-1.351, 6.723e-4
-1.352, 6.754e-4
-1.353, 6.815e-4
-1.354, 6.846e-4
-1.355, 6.846e-4
-1.356, 6.908e-4
-1.357, 6.939e-4
-1.358, 6.969e-4
-1.359, 7.000e-4
-1.360, 7.062e-4
-1.361, 7.124e-4
-1.362, 7.185e-4
-1.363, 7.278e-4
-1.364, 7.339e-4
-1.365, 7.432e-4
-1.366, 7.524e-4
-1.367, 7.617e-4
-1.368, 7.679e-4
-1.369, 7.771e-4
-1.370, 7.863e-4
-1.371, 7.956e-4
-1.372, 8.048e-4
-1.373, 8.172e-4
-1.374, 8.295e-4
-1.375, 8.449e-4
-1.376, 8.603e-4
-1.377, 8.758e-4
-1.378, 8.943e-4
-1.379, 9.128e-4
-1.380, 9.313e-4
-1.381, 9.498e-4
-1.382, 9.744e-4
-1.383, 9.960e-4
-1.384, 1.021e-3
-1.385, 1.048e-3
-1.386, 1.076e-3
-1.387, 1.110e-3
-1.388, 1.147e-3
-1.389, 1.184e-3
-1.390, 1.227e-3
-1.391, 1.277e-3
-1.392, 1.326e-3
-1.393, 1.384e-3
-1.394, 1.443e-3
-1.395, 1.508e-3
-1.396, 1.579e-3
-1.397, 1.656e-3
-1.398, 1.733e-3
-1.399, 1.816e-3
-1.400, 1.810e-3
-1.399, 1.711e-3
-1.398, 1.680e-3
-1.397, 1.671e-3
-1.396, 1.668e-3
-1.395, 1.671e-3
-1.394, 1.671e-3
-1.393, 1.668e-3
-1.392, 1.668e-3
-1.391, 1.662e-3
-1.390, 1.656e-3
-1.389, 1.650e-3
-1.388, 1.637e-3
-1.387, 1.631e-3
-1.386, 1.619e-3
-1.385, 1.606e-3
-1.384, 1.597e-3
-1.383, 1.582e-3
-1.382, 1.566e-3
-1.381, 1.554e-3
-1.380, 1.539e-3
-1.379, 1.520e-3
-1.378, 1.502e-3
-1.377, 1.480e-3
-1.376, 1.458e-3
-1.375, 1.440e-3
-1.374, 1.418e-3
-1.373, 1.397e-3
-1.372, 1.372e-3
-1.371, 1.351e-3
-1.370, 1.329e-3
-1.369, 1.307e-3
-1.368, 1.286e-3
-1.367, 1.261e-3
-1.366, 1.236e-3
-1.365, 1.212e-3
-1.364, 1.187e-3
-1.363, 1.162e-3
-1.362, 1.138e-3
-1.361, 1.110e-3
-1.360, 1.085e-3
-1.359, 1.058e-3
-1.358, 1.033e-3
-1.357, 1.008e-3
-1.356, 9.868e-4
-1.355, 9.621e-4
-1.354, 9.374e-4
-1.353, 9.097e-4
-1.352, 8.881e-4
-1.351, 8.603e-4
-1.350, 8.357e-4
-1.349, 8.110e-4
-1.348, 7.833e-4
-1.347, 7.586e-4
-1.346, 7.339e-4
-1.345, 7.093e-4
-1.344, 6.877e-4
-1.343, 6.661e-4
-1.342, 6.445e-4
-1.341, 6.229e-4
-1.340, 6.014e-4
-1.339, 5.798e-4
-1.338, 5.582e-4
-1.337, 5.335e-4
-1.336, 5.120e-4
-1.335, 4.904e-4
-1.334, 4.688e-4
-1.333, 4.503e-4
-1.332, 4.287e-4
-1.331, 4.102e-4
-1.330, 3.886e-4
-1.329, 3.732e-4
-1.328, 3.578e-4
-1.327, 3.393e-4
-1.326, 3.208e-4
-1.325, 3.023e-4
-1.324, 2.838e-4
-1.323, 2.684e-4
-1.322, 2.499e-4
-1.321, 2.314e-4
-1.320, 2.160e-4
-1.319, 2.006e-4
-1.318, 1.882e-4
-1.317, 1.728e-4
-1.316, 1.605e-4
-1.315, 1.481e-4
-1.314, 1.358e-4
-1.313, 1.235e-4
-1.312, 1.081e-4
-1.311, 9.265e-5
-1.310, 8.032e-5
-1.309, 6.798e-5
-1.308, 5.565e-5
-1.307, 4.332e-5
-1.306, 3.407e-5
-1.305, 1.865e-5
-1.304, 1.249e-5
-1.303, 3.239e-6
-1.302, -9.093e-6
-1.301, -1.526e-5
-1.300, -2.451e-5
-1.299, -3.376e-5
-1.298, -4.609e-5
-1.297, -5.842e-5
-1.296, -6.459e-5
-1.295, -7.692e-5
-1.294, -8.309e-5
-1.293, -9.234e-5
-1.292, -1.016e-4
-1.291, -1.078e-4
-1.290, -1.139e-4
-1.289, -1.232e-4
-1.288, -1.263e-4
-1.287, -1.324e-4
-1.286, -1.417e-4
-1.285, -1.478e-4
-1.284, -1.571e-4
-1.283, -1.632e-4
-1.282, -1.725e-4
-1.281, -1.787e-4
-1.280, -1.848e-4
-1.279, -1.910e-4
-1.278, -1.972e-4
-1.277, -2.002e-4
-1.276, -2.064e-4
-1.275, -2.095e-4
-1.274, -2.126e-4
-1.273, -2.218e-4
-1.272, -2.249e-4
-1.271, -2.311e-4
-1.270, -2.403e-4
-1.269, -2.434e-4
-1.268, -2.527e-4
-1.267, -2.588e-4
-1.266, -2.619e-4
-1.265, -2.650e-4
-1.264, -2.681e-4
-1.263, -2.742e-4
-1.262, -2.773e-4
-1.261, -2.804e-4
-1.260, -2.866e-4
-1.259, -2.897e-4
-1.258, -2.958e-4
-1.257, -3.020e-4
-1.256, -3.051e-4
-1.255, -3.112e-4
-1.254, -3.174e-4
-1.253, -3.205e-4
-1.252, -3.267e-4
-1.251, -3.297e-4
-1.250, -3.328e-4
-1.249, -3.359e-4
-1.248, -3.359e-4
-1.247, -3.390e-4
-1.246, -3.452e-4
-1.245, -3.513e-4
-1.244, -3.575e-4
-1.243, -3.606e-4
-1.242, -3.667e-4
-1.241, -3.729e-4
-1.240, -3.760e-4
-1.239, -3.791e-4
-1.238, -3.821e-4
-1.237, -3.852e-4
-1.236, -3.883e-4
-1.235, -3.914e-4
-1.234, -3.914e-4
-1.233, -3.976e-4
-1.232, -4.006e-4
-1.231, -4.068e-4
-1.230, -4.130e-4
-1.229, -4.191e-4
-1.228, -4.253e-4
-1.227, -4.284e-4
-1.226, -4.315e-4
-1.225, -4.376e-4
-1.224, -4.376e-4
-1.223, -4.407e-4
-1.222, -4.438e-4
-1.221, -4.469e-4
-1.220, -4.500e-4
-1.219, -4.531e-4
-1.218, -4.592e-4
-1.217, -4.654e-4
-1.216, -4.685e-4
-1.215, -4.746e-4
-1.214, -4.808e-4
-1.213, -4.839e-4
-1.212, -4.901e-4
-1.211, -4.931e-4
-1.210, -4.962e-4
-1.209, -4.993e-4
-1.208, -5.024e-4
-1.207, -5.055e-4
-1.206, -5.086e-4
-1.205, -5.147e-4
-1.204, -5.209e-4
-1.203, -5.240e-4
-1.202, -5.301e-4
-1.201, -5.394e-4
-1.200, -5.425e-4
-1.199, -5.486e-4
-1.198, -5.486e-4
-1.197, -5.517e-4
-1.196, -5.548e-4
-1.195, -5.579e-4
-1.194, -5.579e-4
-1.193, -5.641e-4
-1.192, -5.671e-4
-1.191, -5.733e-4
-1.190, -5.795e-4
-1.189, -5.856e-4
-1.188, -5.918e-4
-1.187, -5.980e-4
-1.186, -6.041e-4
-1.185, -6.072e-4
-1.184, -6.103e-4
-1.183, -6.134e-4
-1.182, -6.165e-4
-1.181, -6.195e-4
-1.180, -6.226e-4
-1.179, -6.288e-4
-1.178, -6.350e-4
-1.177, -6.411e-4
-1.176, -6.473e-4
-1.175, -6.535e-4
-1.174, -6.596e-4
-1.173, -6.627e-4
-1.172, -6.689e-4
-1.171, -6.720e-4
-1.170, -6.750e-4
-1.169, -6.781e-4
-1.168, -6.812e-4
-1.167, -6.874e-4
-1.166, -6.905e-4
-1.165, -6.966e-4
-1.164, -7.028e-4
-1.163, -7.090e-4
-1.162, -7.151e-4
-1.161, -7.213e-4
-1.160, -7.244e-4
-1.159, -7.305e-4
-1.158, -7.336e-4
-1.157, -7.367e-4
-1.156, -7.429e-4
-1.155, -7.460e-4
-1.154, -7.490e-4
-1.153, -7.552e-4
-1.152, -7.583e-4
-1.151, -7.645e-4
-1.150, -7.706e-4
-1.149, -7.768e-4
-1.148, -7.860e-4
-1.147, -7.891e-4
-1.146, -7.953e-4
-1.145, -8.015e-4
-1.144, -8.045e-4
-1.143, -8.107e-4
-1.142, -8.138e-4
-1.141, -8.169e-4
-1.140, -8.230e-4
-1.139, -8.230e-4
-1.138, -8.292e-4
-1.137, -8.385e-4
-1.136, -8.415e-4
-1.135, -8.508e-4
-1.134, -8.569e-4
-1.133, -8.600e-4
-1.132, -8.662e-4
-1.131, -8.693e-4
-1.130, -8.724e-4
-1.129, -8.754e-4
-1.128, -8.785e-4
-1.127, -8.847e-4
-1.126, -8.878e-4
-1.125, -8.939e-4
-1.124, -9.001e-4
-1.123, -9.094e-4
-1.122, -9.155e-4
-1.121, -9.217e-4
-1.120, -9.279e-4
-1.119, -9.340e-4
-1.118, -9.371e-4
-1.117, -9.402e-4
-1.116, -9.433e-4
-1.115, -9.464e-4
-1.114, -9.494e-4
-1.113, -9.556e-4
-1.112, -9.618e-4
-1.111, -9.679e-4
-1.110, -9.741e-4
-1.109, -9.803e-4
-1.108, -9.864e-4
-1.107, -9.926e-4
-1.106, -9.988e-4
-1.105, -1.002e-3
-1.104, -1.005e-3
-1.103, -1.011e-3
-1.102, -1.014e-3
-1.101, -1.017e-3
-1.100, -1.020e-3
-1.099, -1.023e-3
-1.098, -1.033e-3
-1.097, -1.039e-3
-1.096, -1.045e-3
-1.095, -1.051e-3
-1.094, -1.060e-3
-1.093, -1.064e-3
-1.092, -1.070e-3
-1.091, -1.073e-3
-1.090, -1.079e-3
-1.089, -1.082e-3
-1.088, -1.082e-3
-1.087, -1.088e-3
-1.086, -1.094e-3
-1.085, -1.097e-3
-1.084, -1.107e-3
-1.083, -1.113e-3
-1.082, -1.119e-3
-1.081, -1.125e-3
-1.080, -1.131e-3
-1.079, -1.138e-3
-1.078, -1.141e-3
-1.077, -1.144e-3
-1.076, -1.150e-3
-1.075, -1.153e-3
-1.074, -1.159e-3
-1.073, -1.162e-3
-1.072, -1.165e-3
-1.071, -1.171e-3
-1.070, -1.181e-3
-1.069, -1.187e-3
-1.068, -1.193e-3
-1.067, -1.199e-3
-1.066, -1.205e-3
-1.065, -1.212e-3
-1.064, -1.215e-3
-1.063, -1.218e-3
-1.062, -1.224e-3
-1.061, -1.227e-3
-1.060, -1.233e-3
-1.059, -1.236e-3
-1.058, -1.242e-3
-1.057, -1.249e-3
-1.056, -1.258e-3
-1.055, -1.264e-3
-1.054, -1.270e-3
-1.053, -1.276e-3
-1.052, -1.282e-3
-1.051, -1.286e-3
-1.050, -1.292e-3
-1.049, -1.295e-3
-1.048, -1.298e-3
-1.047, -1.304e-3
-1.046, -1.310e-3
-1.045, -1.313e-3
-1.044, -1.322e-3
-1.043, -1.329e-3
-1.042, -1.335e-3
-1.041, -1.344e-3
-1.040, -1.347e-3
-1.039, -1.356e-3
-1.038, -1.359e-3
-1.037, -1.363e-3
-1.036, -1.369e-3
-1.035, -1.372e-3
-1.034, -1.378e-3
-1.033, -1.384e-3
-1.032, -1.387e-3
-1.031, -1.396e-3
-1.030, -1.403e-3
-1.029, -1.409e-3
-1.028, -1.418e-3
-1.027, -1.424e-3
-1.026, -1.433e-3
-1.025, -1.440e-3
-1.024, -1.446e-3
-1.023, -1.449e-3
-1.022, -1.455e-3
-1.021, -1.458e-3
-1.020, -1.464e-3
-1.019, -1.470e-3
-1.018, -1.477e-3
-1.017, -1.486e-3
-1.016, -1.492e-3
-1.015, -1.501e-3
-1.014, -1.511e-3
-1.013, -1.517e-3
-1.012, -1.523e-3
-1.011, -1.529e-3
-1.010, -1.535e-3
-1.009, -1.541e-3
-1.008, -1.544e-3
-1.007, -1.551e-3
-1.006, -1.557e-3
-1.005, -1.566e-3
-1.004, -1.572e-3
-1.003, -1.581e-3
-1.002, -1.588e-3
-1.001, -1.600e-3
