Apr. 10, 2025   00:13:47
Cyclic Voltammetry
File: c:/users/guazh/data/banditlqround7_x0exp994_r5/2025-03-28-exp1033\exp1033-2025-04-10t00_05_38-arkoh\exp1033_cv_sr_700mvs_efin_-1400mv.bin
Data Source:  Experiment
Instrument Model:  CHI760E
Header: CV ran at 700 mVs
Note: 

Init E (V) = -1
High E (V) = -1
Low E (V) = -1.4
Final E (V) = -1
Init P/N = N
Scan Rate (V/s) = 0.7
Segment = 3
Sample Interval (V) = 0.001
Quiet Time (sec) = 2
Sensitivity (A/V) = 0.01
Comp R (ohm) = 1.6

Results:

Channel 1:
Segment 1:

Segment 2:

Segment 3:

Potential/V, Current/A

-1.000, 1.557e-5
-1.001, 9.882e-5
-1.002, 1.358e-4
-1.003, 1.574e-4
-1.004, 1.759e-4
-1.005, 1.851e-4
-1.006, 1.944e-4
-1.007, 2.036e-4
-1.008, 2.098e-4
-1.009, 2.191e-4
-1.010, 2.252e-4
-1.011, 2.345e-4
-1.012, 2.437e-4
-1.013, 2.499e-4
-1.014, 2.561e-4
-1.015, 2.653e-4
-1.016, 2.684e-4
-1.017, 2.746e-4
-1.018, 2.807e-4
-1.019, 2.838e-4
-1.020, 2.900e-4
-1.021, 2.961e-4
-1.022, 3.054e-4
-1.023, 3.146e-4
-1.024, 3.208e-4
-1.025, 3.300e-4
-1.026, 3.393e-4
-1.027, 3.455e-4
-1.028, 3.516e-4
-1.029, 3.578e-4
-1.030, 3.609e-4
-1.031, 3.701e-4
-1.032, 3.794e-4
-1.033, 3.855e-4
-1.034, 3.948e-4
-1.035, 4.040e-4
-1.036, 4.133e-4
-1.037, 4.256e-4
-1.038, 4.349e-4
-1.039, 4.410e-4
-1.040, 4.503e-4
-1.041, 4.595e-4
-1.042, 4.657e-4
-1.043, 4.750e-4
-1.044, 4.842e-4
-1.045, 4.935e-4
-1.046, 5.058e-4
-1.047, 5.181e-4
-1.048, 5.274e-4
-1.049, 5.397e-4
-1.050, 5.489e-4
-1.051, 5.582e-4
-1.052, 5.674e-4
-1.053, 5.767e-4
-1.054, 5.859e-4
-1.055, 5.983e-4
-1.056, 6.044e-4
-1.057, 6.199e-4
-1.058, 6.291e-4
-1.059, 6.414e-4
-1.060, 6.569e-4
-1.061, 6.661e-4
-1.062, 6.784e-4
-1.063, 6.877e-4
-1.064, 6.969e-4
-1.065, 7.062e-4
-1.066, 7.124e-4
-1.067, 7.247e-4
-1.068, 7.339e-4
-1.069, 7.463e-4
-1.070, 7.586e-4
-1.071, 7.709e-4
-1.072, 7.833e-4
-1.073, 7.956e-4
-1.074, 8.018e-4
-1.075, 8.110e-4
-1.076, 8.203e-4
-1.077, 8.264e-4
-1.078, 8.357e-4
-1.079, 8.449e-4
-1.080, 8.542e-4
-1.081, 8.665e-4
-1.082, 8.758e-4
-1.083, 8.881e-4
-1.084, 8.973e-4
-1.085, 9.035e-4
-1.086, 9.128e-4
-1.087, 9.189e-4
-1.088, 9.251e-4
-1.089, 9.313e-4
-1.090, 9.374e-4
-1.091, 9.436e-4
-1.092, 9.528e-4
-1.093, 9.621e-4
-1.094, 9.713e-4
-1.095, 9.806e-4
-1.096, 9.868e-4
-1.097, 9.929e-4
-1.098, 9.991e-4
-1.099, 1.005e-3
-1.100, 1.008e-3
-1.101, 1.011e-3
-1.102, 1.018e-3
-1.103, 1.021e-3
-1.104, 1.027e-3
-1.105, 1.033e-3
-1.106, 1.042e-3
-1.107, 1.048e-3
-1.108, 1.055e-3
-1.109, 1.058e-3
-1.110, 1.061e-3
-1.111, 1.064e-3
-1.112, 1.064e-3
-1.113, 1.070e-3
-1.114, 1.070e-3
-1.115, 1.073e-3
-1.116, 1.079e-3
-1.117, 1.082e-3
-1.118, 1.092e-3
-1.119, 1.095e-3
-1.120, 1.098e-3
-1.121, 1.098e-3
-1.122, 1.098e-3
-1.123, 1.101e-3
-1.124, 1.101e-3
-1.125, 1.104e-3
-1.126, 1.104e-3
-1.127, 1.107e-3
-1.128, 1.110e-3
-1.129, 1.116e-3
-1.130, 1.119e-3
-1.131, 1.119e-3
-1.132, 1.122e-3
-1.133, 1.122e-3
-1.134, 1.122e-3
-1.135, 1.122e-3
-1.136, 1.119e-3
-1.137, 1.122e-3
-1.138, 1.122e-3
-1.139, 1.125e-3
-1.140, 1.125e-3
-1.141, 1.125e-3
-1.142, 1.129e-3
-1.143, 1.129e-3
-1.144, 1.129e-3
-1.145, 1.129e-3
-1.146, 1.125e-3
-1.147, 1.125e-3
-1.148, 1.122e-3
-1.149, 1.119e-3
-1.150, 1.119e-3
-1.151, 1.119e-3
-1.152, 1.119e-3
-1.153, 1.119e-3
-1.154, 1.119e-3
-1.155, 1.119e-3
-1.156, 1.116e-3
-1.157, 1.110e-3
-1.158, 1.107e-3
-1.159, 1.104e-3
-1.160, 1.098e-3
-1.161, 1.095e-3
-1.162, 1.092e-3
-1.163, 1.092e-3
-1.164, 1.088e-3
-1.165, 1.088e-3
-1.166, 1.085e-3
-1.167, 1.082e-3
-1.168, 1.076e-3
-1.169, 1.070e-3
-1.170, 1.064e-3
-1.171, 1.058e-3
-1.172, 1.051e-3
-1.173, 1.045e-3
-1.174, 1.045e-3
-1.175, 1.042e-3
-1.176, 1.039e-3
-1.177, 1.036e-3
-1.178, 1.030e-3
-1.179, 1.027e-3
-1.180, 1.021e-3
-1.181, 1.011e-3
-1.182, 1.005e-3
-1.183, 9.991e-4
-1.184, 9.929e-4
-1.185, 9.868e-4
-1.186, 9.837e-4
-1.187, 9.806e-4
-1.188, 9.744e-4
-1.189, 9.713e-4
-1.190, 9.652e-4
-1.191, 9.590e-4
-1.192, 9.528e-4
-1.193, 9.436e-4
-1.194, 9.374e-4
-1.195, 9.313e-4
-1.196, 9.251e-4
-1.197, 9.189e-4
-1.198, 9.158e-4
-1.199, 9.128e-4
-1.200, 9.097e-4
-1.201, 9.066e-4
-1.202, 9.004e-4
-1.203, 8.943e-4
-1.204, 8.850e-4
-1.205, 8.788e-4
-1.206, 8.696e-4
-1.207, 8.634e-4
-1.208, 8.603e-4
-1.209, 8.573e-4
-1.210, 8.511e-4
-1.211, 8.480e-4
-1.212, 8.449e-4
-1.213, 8.418e-4
-1.214, 8.357e-4
-1.215, 8.295e-4
-1.216, 8.203e-4
-1.217, 8.141e-4
-1.218, 8.079e-4
-1.219, 8.018e-4
-1.220, 7.987e-4
-1.221, 7.956e-4
-1.222, 7.925e-4
-1.223, 7.894e-4
-1.224, 7.863e-4
-1.225, 7.833e-4
-1.226, 7.771e-4
-1.227, 7.709e-4
-1.228, 7.648e-4
-1.229, 7.617e-4
-1.230, 7.555e-4
-1.231, 7.494e-4
-1.232, 7.463e-4
-1.233, 7.432e-4
-1.234, 7.401e-4
-1.235, 7.401e-4
-1.236, 7.339e-4
-1.237, 7.309e-4
-1.238, 7.247e-4
-1.239, 7.185e-4
-1.240, 7.124e-4
-1.241, 7.093e-4
-1.242, 7.031e-4
-1.243, 7.000e-4
-1.244, 7.000e-4
-1.245, 6.969e-4
-1.246, 6.939e-4
-1.247, 6.908e-4
-1.248, 6.908e-4
-1.249, 6.846e-4
-1.250, 6.815e-4
-1.251, 6.754e-4
-1.252, 6.692e-4
-1.253, 6.661e-4
-1.254, 6.630e-4
-1.255, 6.599e-4
-1.256, 6.569e-4
-1.257, 6.569e-4
-1.258, 6.569e-4
-1.259, 6.538e-4
-1.260, 6.507e-4
-1.261, 6.445e-4
-1.262, 6.414e-4
-1.263, 6.384e-4
-1.264, 6.322e-4
-1.265, 6.322e-4
-1.266, 6.291e-4
-1.267, 6.260e-4
-1.268, 6.260e-4
-1.269, 6.260e-4
-1.270, 6.260e-4
-1.271, 6.229e-4
-1.272, 6.199e-4
-1.273, 6.168e-4
-1.274, 6.137e-4
-1.275, 6.075e-4
-1.276, 6.044e-4
-1.277, 6.014e-4
-1.278, 5.983e-4
-1.279, 5.983e-4
-1.280, 6.014e-4
-1.281, 6.014e-4
-1.282, 6.014e-4
-1.283, 5.983e-4
-1.284, 5.952e-4
-1.285, 5.921e-4
-1.286, 5.890e-4
-1.287, 5.859e-4
-1.288, 5.829e-4
-1.289, 5.829e-4
-1.290, 5.829e-4
-1.291, 5.829e-4
-1.292, 5.829e-4
-1.293, 5.829e-4
-1.294, 5.829e-4
-1.295, 5.829e-4
-1.296, 5.767e-4
-1.297, 5.736e-4
-1.298, 5.736e-4
-1.299, 5.705e-4
-1.300, 5.705e-4
-1.301, 5.674e-4
-1.302, 5.674e-4
-1.303, 5.674e-4
-1.304, 5.705e-4
-1.305, 5.705e-4
-1.306, 5.705e-4
-1.307, 5.705e-4
-1.308, 5.674e-4
-1.309, 5.644e-4
-1.310, 5.644e-4
-1.311, 5.613e-4
-1.312, 5.613e-4
-1.313, 5.613e-4
-1.314, 5.613e-4
-1.315, 5.613e-4
-1.316, 5.674e-4
-1.317, 5.674e-4
-1.318, 5.644e-4
-1.319, 5.644e-4
-1.320, 5.644e-4
-1.321, 5.644e-4
-1.322, 5.613e-4
-1.323, 5.613e-4
-1.324, 5.613e-4
-1.325, 5.644e-4
-1.326, 5.674e-4
-1.327, 5.674e-4
-1.328, 5.705e-4
-1.329, 5.705e-4
-1.330, 5.736e-4
-1.331, 5.736e-4
-1.332, 5.736e-4
-1.333, 5.705e-4
-1.334, 5.705e-4
-1.335, 5.736e-4
-1.336, 5.736e-4
-1.337, 5.767e-4
-1.338, 5.798e-4
-1.339, 5.859e-4
-1.340, 5.890e-4
-1.341, 5.921e-4
-1.342, 5.921e-4
-1.343, 5.952e-4
-1.344, 5.952e-4
-1.345, 5.983e-4
-1.346, 5.983e-4
-1.347, 6.044e-4
-1.348, 6.075e-4
-1.349, 6.106e-4
-1.350, 6.168e-4
-1.351, 6.229e-4
-1.352, 6.291e-4
-1.353, 6.353e-4
-1.354, 6.384e-4
-1.355, 6.414e-4
-1.356, 6.476e-4
-1.357, 6.538e-4
-1.358, 6.599e-4
-1.359, 6.661e-4
-1.360, 6.723e-4
-1.361, 6.846e-4
-1.362, 6.939e-4
-1.363, 7.031e-4
-1.364, 7.154e-4
-1.365, 7.247e-4
-1.366, 7.339e-4
-1.367, 7.432e-4
-1.368, 7.524e-4
-1.369, 7.679e-4
-1.370, 7.802e-4
-1.371, 7.956e-4
-1.372, 8.141e-4
-1.373, 8.326e-4
-1.374, 8.511e-4
-1.375, 8.758e-4
-1.376, 8.943e-4
-1.377, 9.189e-4
-1.378, 9.436e-4
-1.379, 9.713e-4
-1.380, 9.991e-4
-1.381, 1.030e-3
-1.382, 1.067e-3
-1.383, 1.104e-3
-1.384, 1.147e-3
-1.385, 1.193e-3
-1.386, 1.246e-3
-1.387, 1.301e-3
-1.388, 1.363e-3
-1.389, 1.425e-3
-1.390, 1.495e-3
-1.391, 1.566e-3
-1.392, 1.647e-3
-1.393, 1.730e-3
-1.394, 1.816e-3
-1.395, 1.912e-3
-1.396, 2.010e-3
-1.397, 2.112e-3
-1.398, 2.220e-3
-1.399, 2.331e-3
-1.400, 2.353e-3
-1.399, 2.288e-3
-1.398, 2.279e-3
-1.397, 2.282e-3
-1.396, 2.288e-3
-1.395, 2.294e-3
-1.394, 2.300e-3
-1.393, 2.306e-3
-1.392, 2.309e-3
-1.391, 2.309e-3
-1.390, 2.309e-3
-1.389, 2.306e-3
-1.388, 2.300e-3
-1.387, 2.294e-3
-1.386, 2.282e-3
-1.385, 2.272e-3
-1.384, 2.257e-3
-1.383, 2.245e-3
-1.382, 2.226e-3
-1.381, 2.211e-3
-1.380, 2.195e-3
-1.379, 2.180e-3
-1.378, 2.161e-3
-1.377, 2.140e-3
-1.376, 2.115e-3
-1.375, 2.091e-3
-1.374, 2.066e-3
-1.373, 2.038e-3
-1.372, 2.010e-3
-1.371, 1.983e-3
-1.370, 1.955e-3
-1.369, 1.930e-3
-1.368, 1.899e-3
-1.367, 1.872e-3
-1.366, 1.841e-3
-1.365, 1.813e-3
-1.364, 1.779e-3
-1.363, 1.745e-3
-1.362, 1.711e-3
-1.361, 1.677e-3
-1.360, 1.643e-3
-1.359, 1.610e-3
-1.358, 1.579e-3
-1.357, 1.545e-3
-1.356, 1.514e-3
-1.355, 1.480e-3
-1.354, 1.446e-3
-1.353, 1.412e-3
-1.352, 1.378e-3
-1.351, 1.341e-3
-1.350, 1.307e-3
-1.349, 1.273e-3
-1.348, 1.236e-3
-1.347, 1.209e-3
-1.346, 1.175e-3
-1.345, 1.141e-3
-1.344, 1.113e-3
-1.343, 1.079e-3
-1.342, 1.048e-3
-1.341, 1.014e-3
-1.340, 9.837e-4
-1.339, 9.498e-4
-1.338, 9.189e-4
-1.337, 8.881e-4
-1.336, 8.603e-4
-1.335, 8.295e-4
-1.334, 8.018e-4
-1.333, 7.740e-4
-1.332, 7.463e-4
-1.331, 7.216e-4
-1.330, 6.939e-4
-1.329, 6.661e-4
-1.328, 6.384e-4
-1.327, 6.106e-4
-1.326, 5.829e-4
-1.325, 5.613e-4
-1.324, 5.366e-4
-1.323, 5.150e-4
-1.322, 4.935e-4
-1.321, 4.719e-4
-1.320, 4.503e-4
-1.319, 4.287e-4
-1.318, 4.071e-4
-1.317, 3.886e-4
-1.316, 3.640e-4
-1.315, 3.424e-4
-1.314, 3.239e-4
-1.313, 3.023e-4
-1.312, 2.869e-4
-1.311, 2.715e-4
-1.310, 2.561e-4
-1.309, 2.376e-4
-1.308, 2.221e-4
-1.307, 2.067e-4
-1.306, 1.913e-4
-1.305, 1.728e-4
-1.304, 1.574e-4
-1.303, 1.420e-4
-1.302, 1.266e-4
-1.301, 1.142e-4
-1.300, 9.882e-5
-1.299, 8.648e-5
-1.298, 7.723e-5
-1.297, 6.798e-5
-1.296, 5.565e-5
-1.295, 4.332e-5
-1.294, 2.790e-5
-1.293, 1.557e-5
-1.292, 3.239e-6
-1.291, -9.093e-6
-1.290, -1.834e-5
-1.289, -3.068e-5
-1.288, -3.684e-5
-1.287, -4.609e-5
-1.286, -5.534e-5
-1.285, -6.151e-5
-1.284, -7.076e-5
-1.283, -8.000e-5
-1.282, -8.925e-5
-1.281, -9.850e-5
-1.280, -1.078e-4
-1.279, -1.201e-4
-1.278, -1.263e-4
-1.277, -1.324e-4
-1.276, -1.386e-4
-1.275, -1.448e-4
-1.274, -1.509e-4
-1.273, -1.571e-4
-1.272, -1.602e-4
-1.271, -1.694e-4
-1.270, -1.787e-4
-1.269, -1.848e-4
-1.268, -1.941e-4
-1.267, -2.002e-4
-1.266, -2.064e-4
-1.265, -2.126e-4
-1.264, -2.157e-4
-1.263, -2.187e-4
-1.262, -2.218e-4
-1.261, -2.280e-4
-1.260, -2.342e-4
-1.259, -2.403e-4
-1.258, -2.465e-4
-1.257, -2.527e-4
-1.256, -2.588e-4
-1.255, -2.650e-4
-1.254, -2.712e-4
-1.253, -2.742e-4
-1.252, -2.773e-4
-1.251, -2.804e-4
-1.250, -2.835e-4
-1.249, -2.897e-4
-1.248, -2.927e-4
-1.247, -2.989e-4
-1.246, -3.051e-4
-1.245, -3.112e-4
-1.244, -3.174e-4
-1.243, -3.205e-4
-1.242, -3.267e-4
-1.241, -3.297e-4
-1.240, -3.328e-4
-1.239, -3.359e-4
-1.238, -3.390e-4
-1.237, -3.421e-4
-1.236, -3.482e-4
-1.235, -3.513e-4
-1.234, -3.575e-4
-1.233, -3.637e-4
-1.232, -3.667e-4
-1.231, -3.729e-4
-1.230, -3.760e-4
-1.229, -3.821e-4
-1.228, -3.821e-4
-1.227, -3.852e-4
-1.226, -3.883e-4
-1.225, -3.914e-4
-1.224, -3.976e-4
-1.223, -4.006e-4
-1.222, -4.068e-4
-1.221, -4.130e-4
-1.220, -4.161e-4
-1.219, -4.222e-4
-1.218, -4.222e-4
-1.217, -4.253e-4
-1.216, -4.284e-4
-1.215, -4.315e-4
-1.214, -4.346e-4
-1.213, -4.376e-4
-1.212, -4.438e-4
-1.211, -4.500e-4
-1.210, -4.561e-4
-1.209, -4.623e-4
-1.208, -4.654e-4
-1.207, -4.685e-4
-1.206, -4.716e-4
-1.205, -4.746e-4
-1.204, -4.777e-4
-1.203, -4.808e-4
-1.202, -4.839e-4
-1.201, -4.901e-4
-1.200, -4.931e-4
-1.199, -4.993e-4
-1.198, -5.055e-4
-1.197, -5.086e-4
-1.196, -5.147e-4
-1.195, -5.178e-4
-1.194, -5.209e-4
-1.193, -5.240e-4
-1.192, -5.240e-4
-1.191, -5.301e-4
-1.190, -5.332e-4
-1.189, -5.363e-4
-1.188, -5.456e-4
-1.187, -5.486e-4
-1.186, -5.548e-4
-1.185, -5.610e-4
-1.184, -5.641e-4
-1.183, -5.671e-4
-1.182, -5.702e-4
-1.181, -5.733e-4
-1.180, -5.764e-4
-1.179, -5.795e-4
-1.178, -5.826e-4
-1.177, -5.887e-4
-1.176, -5.949e-4
-1.175, -6.011e-4
-1.174, -6.072e-4
-1.173, -6.134e-4
-1.172, -6.165e-4
-1.171, -6.195e-4
-1.170, -6.226e-4
-1.169, -6.226e-4
-1.168, -6.257e-4
-1.167, -6.288e-4
-1.166, -6.350e-4
-1.165, -6.411e-4
-1.164, -6.473e-4
-1.163, -6.535e-4
-1.162, -6.596e-4
-1.161, -6.627e-4
-1.160, -6.658e-4
-1.159, -6.689e-4
-1.158, -6.720e-4
-1.157, -6.750e-4
-1.156, -6.781e-4
-1.155, -6.812e-4
-1.154, -6.874e-4
-1.153, -6.935e-4
-1.152, -6.966e-4
-1.151, -7.059e-4
-1.150, -7.120e-4
-1.149, -7.151e-4
-1.148, -7.182e-4
-1.147, -7.213e-4
-1.146, -7.213e-4
-1.145, -7.244e-4
-1.144, -7.275e-4
-1.143, -7.336e-4
-1.142, -7.398e-4
-1.141, -7.429e-4
-1.140, -7.490e-4
-1.139, -7.552e-4
-1.138, -7.614e-4
-1.137, -7.675e-4
-1.136, -7.706e-4
-1.135, -7.706e-4
-1.134, -7.737e-4
-1.133, -7.768e-4
-1.132, -7.830e-4
-1.131, -7.860e-4
-1.130, -7.922e-4
-1.129, -7.984e-4
-1.128, -8.045e-4
-1.127, -8.107e-4
-1.126, -8.169e-4
-1.125, -8.169e-4
-1.124, -8.200e-4
-1.123, -8.230e-4
-1.122, -8.261e-4
-1.121, -8.292e-4
-1.120, -8.323e-4
-1.119, -8.385e-4
-1.118, -8.446e-4
-1.117, -8.508e-4
-1.116, -8.569e-4
-1.115, -8.631e-4
-1.114, -8.662e-4
-1.113, -8.693e-4
-1.112, -8.724e-4
-1.111, -8.754e-4
-1.110, -8.785e-4
-1.109, -8.816e-4
-1.108, -8.847e-4
-1.107, -8.909e-4
-1.106, -8.970e-4
-1.105, -9.032e-4
-1.104, -9.094e-4
-1.103, -9.155e-4
-1.102, -9.186e-4
-1.101, -9.217e-4
-1.100, -9.248e-4
-1.099, -9.279e-4
-1.098, -9.279e-4
-1.097, -9.309e-4
-1.096, -9.371e-4
-1.095, -9.433e-4
-1.094, -9.494e-4
-1.093, -9.556e-4
-1.092, -9.618e-4
-1.091, -9.649e-4
-1.090, -9.679e-4
-1.089, -9.710e-4
-1.088, -9.741e-4
-1.087, -9.772e-4
-1.086, -9.803e-4
-1.085, -9.834e-4
-1.084, -9.895e-4
-1.083, -9.957e-4
-1.082, -1.002e-3
-1.081, -1.008e-3
-1.080, -1.014e-3
-1.079, -1.017e-3
-1.078, -1.023e-3
-1.077, -1.023e-3
-1.076, -1.027e-3
-1.075, -1.030e-3
-1.074, -1.033e-3
-1.073, -1.039e-3
-1.072, -1.045e-3
-1.071, -1.051e-3
-1.070, -1.057e-3
-1.069, -1.064e-3
-1.068, -1.070e-3
-1.067, -1.073e-3
-1.066, -1.076e-3
-1.065, -1.079e-3
-1.064, -1.082e-3
-1.063, -1.085e-3
-1.062, -1.091e-3
-1.061, -1.094e-3
-1.060, -1.104e-3
-1.059, -1.110e-3
-1.058, -1.116e-3
-1.057, -1.122e-3
-1.056, -1.128e-3
-1.055, -1.131e-3
-1.054, -1.134e-3
-1.053, -1.138e-3
-1.052, -1.141e-3
-1.051, -1.144e-3
-1.050, -1.147e-3
-1.049, -1.153e-3
-1.048, -1.159e-3
-1.047, -1.165e-3
-1.046, -1.171e-3
-1.045, -1.178e-3
-1.044, -1.184e-3
-1.043, -1.187e-3
-1.042, -1.190e-3
-1.041, -1.196e-3
-1.040, -1.196e-3
-1.039, -1.202e-3
-1.038, -1.208e-3
-1.037, -1.215e-3
-1.036, -1.221e-3
-1.035, -1.227e-3
-1.034, -1.233e-3
-1.033, -1.242e-3
-1.032, -1.245e-3
-1.031, -1.249e-3
-1.030, -1.255e-3
-1.029, -1.255e-3
-1.028, -1.261e-3
-1.027, -1.264e-3
-1.026, -1.270e-3
-1.025, -1.279e-3
-1.024, -1.289e-3
-1.023, -1.298e-3
-1.022, -1.304e-3
-1.021, -1.307e-3
-1.020, -1.316e-3
-1.019, -1.316e-3
-1.018, -1.322e-3
-1.017, -1.326e-3
-1.016, -1.332e-3
-1.015, -1.335e-3
-1.014, -1.344e-3
-1.013, -1.350e-3
-1.012, -1.359e-3
-1.011, -1.366e-3
-1.010, -1.372e-3
-1.009, -1.381e-3
-1.008, -1.384e-3
-1.007, -1.390e-3
-1.006, -1.393e-3
-1.005, -1.396e-3
-1.004, -1.406e-3
-1.003, -1.409e-3
-1.002, -1.418e-3
-1.001, -1.427e-3
