Apr. 20, 2025   16:03:48
Cyclic Voltammetry
File: c:/users/guazh/data/banditlqround7_x0exp590_r20/2025-04-16-exp1138\exp1138-2025-04-20t15_48_50-arkoh\exp1138_cv_sr_300mvs_efin_-1700mv.bin
Data Source:  Experiment
Instrument Model:  CHI760E
Header: CV ran at 300 mVs
Note: 

Init E (V) = -1
High E (V) = -1
Low E (V) = -1.7
Final E (V) = -1
Init P/N = N
Scan Rate (V/s) = 0.3
Segment = 3
Sample Interval (V) = 0.001
Quiet Time (sec) = 2
Sensitivity (A/V) = 0.01
Comp R (ohm) = 1.5

Results:

Channel 1:
Segment 1:

Segment 2:

Segment 3:

Potential/V, Current/A

-1.000, 6.322e-6
-1.001, 6.322e-6
-1.002, 6.322e-6
-1.003, 9.405e-6
-1.004, 1.249e-5
-1.005, 9.405e-6
-1.006, 6.322e-6
-1.007, 6.322e-6
-1.008, 1.249e-5
-1.009, 1.249e-5
-1.010, 9.405e-6
-1.011, 6.322e-6
-1.012, 9.405e-6
-1.013, 1.249e-5
-1.014, 1.249e-5
-1.015, 9.405e-6
-1.016, 9.405e-6
-1.017, 9.405e-6
-1.018, 1.249e-5
-1.019, 1.249e-5
-1.020, 1.249e-5
-1.021, 9.405e-6
-1.022, 9.405e-6
-1.023, 1.249e-5
-1.024, 1.249e-5
-1.025, 1.249e-5
-1.026, 9.405e-6
-1.027, 9.405e-6
-1.028, 1.249e-5
-1.029, 1.557e-5
-1.030, 1.249e-5
-1.031, 9.405e-6
-1.032, 9.405e-6
-1.033, 1.249e-5
-1.034, 1.557e-5
-1.035, 1.249e-5
-1.036, 9.405e-6
-1.037, 1.249e-5
-1.038, 1.557e-5
-1.039, 1.557e-5
-1.040, 1.249e-5
-1.041, 9.405e-6
-1.042, 1.249e-5
-1.043, 1.557e-5
-1.044, 1.557e-5
-1.045, 1.249e-5
-1.046, 9.405e-6
-1.047, 1.249e-5
-1.048, 1.557e-5
-1.049, 1.557e-5
-1.050, 1.249e-5
-1.051, 9.405e-6
-1.052, 1.249e-5
-1.053, 1.557e-5
-1.054, 1.557e-5
-1.055, 1.249e-5
-1.056, 1.249e-5
-1.057, 1.249e-5
-1.058, 1.557e-5
-1.059, 1.557e-5
-1.060, 1.249e-5
-1.061, 1.249e-5
-1.062, 1.249e-5
-1.063, 1.557e-5
-1.064, 1.557e-5
-1.065, 1.249e-5
-1.066, 1.249e-5
-1.067, 1.249e-5
-1.068, 1.557e-5
-1.069, 1.865e-5
-1.070, 1.557e-5
-1.071, 1.249e-5
-1.072, 1.249e-5
-1.073, 1.557e-5
-1.074, 1.865e-5
-1.075, 1.557e-5
-1.076, 1.249e-5
-1.077, 1.249e-5
-1.078, 1.865e-5
-1.079, 1.557e-5
-1.080, 1.557e-5
-1.081, 1.249e-5
-1.082, 1.557e-5
-1.083, 1.865e-5
-1.084, 1.865e-5
-1.085, 1.557e-5
-1.086, 1.249e-5
-1.087, 1.557e-5
-1.088, 1.865e-5
-1.089, 1.865e-5
-1.090, 1.557e-5
-1.091, 1.249e-5
-1.092, 1.557e-5
-1.093, 1.865e-5
-1.094, 1.865e-5
-1.095, 1.557e-5
-1.096, 1.249e-5
-1.097, 1.557e-5
-1.098, 1.865e-5
-1.099, 1.865e-5
-1.100, 1.557e-5
-1.101, 1.557e-5
-1.102, 1.557e-5
-1.103, 1.865e-5
-1.104, 1.865e-5
-1.105, 1.557e-5
-1.106, 1.557e-5
-1.107, 1.557e-5
-1.108, 1.865e-5
-1.109, 1.865e-5
-1.110, 1.557e-5
-1.111, 1.557e-5
-1.112, 1.557e-5
-1.113, 1.865e-5
-1.114, 2.174e-5
-1.115, 1.865e-5
-1.116, 1.557e-5
-1.117, 1.557e-5
-1.118, 1.865e-5
-1.119, 2.174e-5
-1.120, 1.865e-5
-1.121, 1.557e-5
-1.122, 1.557e-5
-1.123, 2.174e-5
-1.124, 2.174e-5
-1.125, 1.865e-5
-1.126, 1.557e-5
-1.127, 1.557e-5
-1.128, 2.174e-5
-1.129, 2.174e-5
-1.130, 1.865e-5
-1.131, 1.557e-5
-1.132, 1.865e-5
-1.133, 2.174e-5
-1.134, 2.174e-5
-1.135, 1.865e-5
-1.136, 1.865e-5
-1.137, 1.865e-5
-1.138, 2.174e-5
-1.139, 2.174e-5
-1.140, 2.174e-5
-1.141, 1.557e-5
-1.142, 1.865e-5
-1.143, 2.174e-5
-1.144, 2.174e-5
-1.145, 1.865e-5
-1.146, 1.865e-5
-1.147, 1.865e-5
-1.148, 2.174e-5
-1.149, 2.174e-5
-1.150, 2.174e-5
-1.151, 1.557e-5
-1.152, 1.865e-5
-1.153, 2.174e-5
-1.154, 2.482e-5
-1.155, 1.865e-5
-1.156, 1.865e-5
-1.157, 1.865e-5
-1.158, 2.174e-5
-1.159, 2.174e-5
-1.160, 2.174e-5
-1.161, 1.865e-5
-1.162, 1.865e-5
-1.163, 2.174e-5
-1.164, 2.482e-5
-1.165, 2.174e-5
-1.166, 1.865e-5
-1.167, 2.174e-5
-1.168, 2.482e-5
-1.169, 2.482e-5
-1.170, 2.174e-5
-1.171, 1.865e-5
-1.172, 1.865e-5
-1.173, 2.174e-5
-1.174, 2.482e-5
-1.175, 2.174e-5
-1.176, 1.865e-5
-1.177, 2.174e-5
-1.178, 2.482e-5
-1.179, 2.482e-5
-1.180, 2.174e-5
-1.181, 1.865e-5
-1.182, 2.174e-5
-1.183, 2.482e-5
-1.184, 2.482e-5
-1.185, 2.174e-5
-1.186, 1.865e-5
-1.187, 2.174e-5
-1.188, 2.482e-5
-1.189, 2.482e-5
-1.190, 2.482e-5
-1.191, 1.865e-5
-1.192, 2.174e-5
-1.193, 2.482e-5
-1.194, 2.482e-5
-1.195, 2.174e-5
-1.196, 2.174e-5
-1.197, 2.174e-5
-1.198, 2.482e-5
-1.199, 2.482e-5
-1.200, 2.174e-5
-1.201, 2.174e-5
-1.202, 2.174e-5
-1.203, 2.482e-5
-1.204, 2.790e-5
-1.205, 2.174e-5
-1.206, 2.174e-5
-1.207, 2.174e-5
-1.208, 2.482e-5
-1.209, 2.790e-5
-1.210, 2.482e-5
-1.211, 2.174e-5
-1.212, 2.174e-5
-1.213, 2.790e-5
-1.214, 2.790e-5
-1.215, 2.482e-5
-1.216, 2.174e-5
-1.217, 2.482e-5
-1.218, 2.790e-5
-1.219, 2.790e-5
-1.220, 2.482e-5
-1.221, 2.174e-5
-1.222, 2.482e-5
-1.223, 2.790e-5
-1.224, 2.790e-5
-1.225, 2.482e-5
-1.226, 2.174e-5
-1.227, 2.482e-5
-1.228, 2.790e-5
-1.229, 2.790e-5
-1.230, 2.482e-5
-1.231, 2.174e-5
-1.232, 2.482e-5
-1.233, 2.790e-5
-1.234, 2.790e-5
-1.235, 2.790e-5
-1.236, 2.174e-5
-1.237, 2.482e-5
-1.238, 2.790e-5
-1.239, 2.790e-5
-1.240, 2.482e-5
-1.241, 2.174e-5
-1.242, 2.482e-5
-1.243, 2.790e-5
-1.244, 2.790e-5
-1.245, 2.482e-5
-1.246, 2.174e-5
-1.247, 2.482e-5
-1.248, 2.790e-5
-1.249, 2.790e-5
-1.250, 2.482e-5
-1.251, 2.174e-5
-1.252, 2.482e-5
-1.253, 2.790e-5
-1.254, 2.790e-5
-1.255, 2.482e-5
-1.256, 2.174e-5
-1.257, 2.482e-5
-1.258, 2.790e-5
-1.259, 2.790e-5
-1.260, 2.482e-5
-1.261, 2.174e-5
-1.262, 2.482e-5
-1.263, 2.790e-5
-1.264, 2.790e-5
-1.265, 2.482e-5
-1.266, 2.174e-5
-1.267, 2.482e-5
-1.268, 2.790e-5
-1.269, 2.790e-5
-1.270, 2.482e-5
-1.271, 2.174e-5
-1.272, 2.482e-5
-1.273, 2.790e-5
-1.274, 2.790e-5
-1.275, 2.482e-5
-1.276, 2.174e-5
-1.277, 2.482e-5
-1.278, 2.790e-5
-1.279, 2.790e-5
-1.280, 2.482e-5
-1.281, 2.174e-5
-1.282, 2.482e-5
-1.283, 2.790e-5
-1.284, 2.790e-5
-1.285, 2.790e-5
-1.286, 2.482e-5
-1.287, 2.482e-5
-1.288, 2.790e-5
-1.289, 2.790e-5
-1.290, 2.482e-5
-1.291, 2.174e-5
-1.292, 2.482e-5
-1.293, 2.790e-5
-1.294, 3.099e-5
-1.295, 2.790e-5
-1.296, 2.482e-5
-1.297, 2.482e-5
-1.298, 2.790e-5
-1.299, 2.790e-5
-1.300, 2.790e-5
-1.301, 2.482e-5
-1.302, 2.790e-5
-1.303, 3.099e-5
-1.304, 3.099e-5
-1.305, 2.790e-5
-1.306, 2.482e-5
-1.307, 2.790e-5
-1.308, 3.099e-5
-1.309, 3.099e-5
-1.310, 2.790e-5
-1.311, 2.790e-5
-1.312, 2.790e-5
-1.313, 3.099e-5
-1.314, 3.099e-5
-1.315, 2.790e-5
-1.316, 2.790e-5
-1.317, 2.790e-5
-1.318, 3.407e-5
-1.319, 3.407e-5
-1.320, 3.099e-5
-1.321, 2.790e-5
-1.322, 3.099e-5
-1.323, 3.407e-5
-1.324, 3.407e-5
-1.325, 3.099e-5
-1.326, 3.099e-5
-1.327, 3.099e-5
-1.328, 3.407e-5
-1.329, 3.407e-5
-1.330, 3.407e-5
-1.331, 3.099e-5
-1.332, 3.407e-5
-1.333, 3.715e-5
-1.334, 3.715e-5
-1.335, 3.407e-5
-1.336, 3.407e-5
-1.337, 3.407e-5
-1.338, 3.715e-5
-1.339, 4.024e-5
-1.340, 3.715e-5
-1.341, 3.407e-5
-1.342, 3.715e-5
-1.343, 4.024e-5
-1.344, 4.024e-5
-1.345, 4.024e-5
-1.346, 3.715e-5
-1.347, 4.024e-5
-1.348, 4.332e-5
-1.349, 4.332e-5
-1.350, 4.332e-5
-1.351, 4.024e-5
-1.352, 4.332e-5
-1.353, 4.640e-5
-1.354, 4.949e-5
-1.355, 4.640e-5
-1.356, 4.332e-5
-1.357, 4.640e-5
-1.358, 4.949e-5
-1.359, 5.257e-5
-1.360, 4.949e-5
-1.361, 4.949e-5
-1.362, 4.949e-5
-1.363, 5.565e-5
-1.364, 5.565e-5
-1.365, 5.565e-5
-1.366, 5.257e-5
-1.367, 5.565e-5
-1.368, 5.873e-5
-1.369, 5.873e-5
-1.370, 5.873e-5
-1.371, 5.873e-5
-1.372, 6.182e-5
-1.373, 6.490e-5
-1.374, 6.798e-5
-1.375, 6.798e-5
-1.376, 6.490e-5
-1.377, 6.798e-5
-1.378, 7.107e-5
-1.379, 7.415e-5
-1.380, 7.415e-5
-1.381, 7.415e-5
-1.382, 7.415e-5
-1.383, 8.032e-5
-1.384, 8.340e-5
-1.385, 8.340e-5
-1.386, 8.340e-5
-1.387, 8.340e-5
-1.388, 8.957e-5
-1.389, 9.265e-5
-1.390, 9.265e-5
-1.391, 9.265e-5
-1.392, 9.573e-5
-1.393, 1.019e-4
-1.394, 1.050e-4
-1.395, 1.050e-4
-1.396, 1.050e-4
-1.397, 1.081e-4
-1.398, 1.142e-4
-1.399, 1.173e-4
-1.400, 1.204e-4
-1.401, 1.204e-4
-1.402, 1.235e-4
-1.403, 1.296e-4
-1.404, 1.358e-4
-1.405, 1.358e-4
-1.406, 1.358e-4
-1.407, 1.420e-4
-1.408, 1.481e-4
-1.409, 1.543e-4
-1.410, 1.574e-4
-1.411, 1.574e-4
-1.412, 1.636e-4
-1.413, 1.697e-4
-1.414, 1.759e-4
-1.415, 1.790e-4
-1.416, 1.790e-4
-1.417, 1.851e-4
-1.418, 1.944e-4
-1.419, 2.006e-4
-1.420, 2.067e-4
-1.421, 2.067e-4
-1.422, 2.129e-4
-1.423, 2.221e-4
-1.424, 2.314e-4
-1.425, 2.345e-4
-1.426, 2.406e-4
-1.427, 2.468e-4
-1.428, 2.561e-4
-1.429, 2.653e-4
-1.430, 2.715e-4
-1.431, 2.746e-4
-1.432, 2.838e-4
-1.433, 2.961e-4
-1.434, 3.054e-4
-1.435, 3.115e-4
-1.436, 3.177e-4
-1.437, 3.270e-4
-1.438, 3.393e-4
-1.439, 3.516e-4
-1.440, 3.578e-4
-1.441, 3.670e-4
-1.442, 3.763e-4
-1.443, 3.886e-4
-1.444, 4.040e-4
-1.445, 4.133e-4
-1.446, 4.195e-4
-1.447, 4.287e-4
-1.448, 4.472e-4
-1.449, 4.595e-4
-1.450, 4.719e-4
-1.451, 4.811e-4
-1.452, 4.935e-4
-1.453, 5.120e-4
-1.454, 5.274e-4
-1.455, 5.397e-4
-1.456, 5.520e-4
-1.457, 5.644e-4
-1.458, 5.829e-4
-1.459, 6.014e-4
-1.460, 6.168e-4
-1.461, 6.291e-4
-1.462, 6.445e-4
-1.463, 6.630e-4
-1.464, 6.846e-4
-1.465, 7.031e-4
-1.466, 7.154e-4
-1.467, 7.309e-4
-1.468, 7.555e-4
-1.469, 7.802e-4
-1.470, 7.987e-4
-1.471, 8.141e-4
-1.472, 8.326e-4
-1.473, 8.573e-4
-1.474, 8.819e-4
-1.475, 9.035e-4
-1.476, 9.220e-4
-1.477, 9.405e-4
-1.478, 9.652e-4
-1.479, 9.960e-4
-1.480, 1.021e-3
-1.481, 1.039e-3
-1.482, 1.061e-3
-1.483, 1.088e-3
-1.484, 1.122e-3
-1.485, 1.147e-3
-1.486, 1.169e-3
-1.487, 1.190e-3
-1.488, 1.221e-3
-1.489, 1.255e-3
-1.490, 1.283e-3
-1.491, 1.307e-3
-1.492, 1.332e-3
-1.493, 1.366e-3
-1.494, 1.403e-3
-1.495, 1.434e-3
-1.496, 1.458e-3
-1.497, 1.483e-3
-1.498, 1.520e-3
-1.499, 1.560e-3
-1.500, 1.594e-3
-1.501, 1.622e-3
-1.502, 1.650e-3
-1.503, 1.690e-3
-1.504, 1.733e-3
-1.505, 1.770e-3
-1.506, 1.795e-3
-1.507, 1.825e-3
-1.508, 1.869e-3
-1.509, 1.915e-3
-1.510, 1.952e-3
-1.511, 1.986e-3
-1.512, 2.017e-3
-1.513, 2.060e-3
-1.514, 2.109e-3
-1.515, 2.152e-3
-1.516, 2.183e-3
-1.517, 2.217e-3
-1.518, 2.263e-3
-1.519, 2.312e-3
-1.520, 2.356e-3
-1.521, 2.390e-3
-1.522, 2.423e-3
-1.523, 2.473e-3
-1.524, 2.528e-3
-1.525, 2.575e-3
-1.526, 2.608e-3
-1.527, 2.645e-3
-1.528, 2.698e-3
-1.529, 2.756e-3
-1.530, 2.806e-3
-1.531, 2.843e-3
-1.532, 2.883e-3
-1.533, 2.935e-3
-1.534, 2.997e-3
-1.535, 3.049e-3
-1.536, 3.086e-3
-1.537, 3.126e-3
-1.538, 3.185e-3
-1.539, 3.247e-3
-1.540, 3.302e-3
-1.541, 3.342e-3
-1.542, 3.382e-3
-1.543, 3.444e-3
-1.544, 3.509e-3
-1.545, 3.564e-3
-1.546, 3.601e-3
-1.547, 3.647e-3
-1.548, 3.706e-3
-1.549, 3.774e-3
-1.550, 3.836e-3
-1.551, 3.876e-3
-1.552, 3.919e-3
-1.553, 3.984e-3
-1.554, 4.058e-3
-1.555, 4.116e-3
-1.556, 4.162e-3
-1.557, 4.209e-3
-1.558, 4.273e-3
-1.559, 4.344e-3
-1.560, 4.403e-3
-1.561, 4.449e-3
-1.562, 4.492e-3
-1.563, 4.563e-3
-1.564, 4.637e-3
-1.565, 4.696e-3
-1.566, 4.742e-3
-1.567, 4.791e-3
-1.568, 4.859e-3
-1.569, 4.939e-3
-1.570, 5.001e-3
-1.571, 5.047e-3
-1.572, 5.097e-3
-1.573, 5.167e-3
-1.574, 5.248e-3
-1.575, 5.315e-3
-1.576, 5.362e-3
-1.577, 5.414e-3
-1.578, 5.488e-3
-1.579, 5.568e-3
-1.580, 5.636e-3
-1.581, 5.685e-3
-1.582, 5.735e-3
-1.583, 5.806e-3
-1.584, 5.892e-3
-1.585, 5.960e-3
-1.586, 6.006e-3
-1.587, 6.058e-3
-1.588, 6.129e-3
-1.589, 6.213e-3
-1.590, 6.280e-3
-1.591, 6.327e-3
-1.592, 6.379e-3
-1.593, 6.453e-3
-1.594, 6.539e-3
-1.595, 6.607e-3
-1.596, 6.660e-3
-1.597, 6.712e-3
-1.598, 6.789e-3
-1.599, 6.879e-3
-1.600, 6.949e-3
-1.601, 7.002e-3
-1.602, 7.057e-3
-1.603, 7.131e-3
-1.604, 7.221e-3
-1.605, 7.289e-3
-1.606, 7.338e-3
-1.607, 7.387e-3
-1.608, 7.467e-3
-1.609, 7.557e-3
-1.610, 7.628e-3
-1.611, 7.680e-3
-1.612, 7.736e-3
-1.613, 7.813e-3
-1.614, 7.902e-3
-1.615, 7.976e-3
-1.616, 8.025e-3
-1.617, 8.081e-3
-1.618, 8.158e-3
-1.619, 8.251e-3
-1.620, 8.328e-3
-1.621, 8.380e-3
-1.622, 8.436e-3
-1.623, 8.516e-3
-1.624, 8.608e-3
-1.625, 8.679e-3
-1.626, 8.732e-3
-1.627, 8.787e-3
-1.628, 8.867e-3
-1.629, 8.960e-3
-1.630, 9.040e-3
-1.631, 9.092e-3
-1.632, 9.151e-3
-1.633, 9.237e-3
-1.634, 9.333e-3
-1.635, 9.397e-3
-1.636, 9.441e-3
-1.637, 9.490e-3
-1.638, 9.576e-3
-1.639, 9.675e-3
-1.640, 9.755e-3
-1.641, 9.811e-3
-1.642, 9.866e-3
-1.643, 9.949e-3
-1.644, 1.004e-2
-1.645, 1.012e-2
-1.646, 1.017e-2
-1.647, 1.022e-2
-1.648, 1.030e-2
-1.649, 1.040e-2
-1.650, 1.048e-2
-1.651, 1.053e-2
-1.652, 1.059e-2
-1.653, 1.068e-2
-1.654, 1.078e-2
-1.655, 1.087e-2
-1.656, 1.092e-2
-1.657, 1.098e-2
-1.658, 1.107e-2
-1.659, 1.117e-2
-1.660, 1.126e-2
-1.661, 1.132e-2
-1.662, 1.138e-2
-1.663, 1.148e-2
-1.664, 1.158e-2
-1.665, 1.166e-2
-1.666, 1.172e-2
-1.667, 1.177e-2
-1.668, 1.186e-2
-1.669, 1.197e-2
-1.670, 1.205e-2
-1.671, 1.210e-2
-1.672, 1.216e-2
-1.673, 1.224e-2
-1.674, 1.234e-2
-1.675, 1.242e-2
-1.676, 1.248e-2
-1.677, 1.254e-2
-1.678, 1.263e-2
-1.679, 1.274e-2
-1.680, 1.283e-2
-1.681, 1.290e-2
-1.682, 1.297e-2
-1.683, 1.307e-2
-1.684, 1.318e-2
-1.685, 1.326e-2
-1.686, 1.332e-2
-1.687, 1.338e-2
-1.688, 1.348e-2
-1.689, 1.358e-2
-1.690, 1.366e-2
-1.691, 1.372e-2
-1.692, 1.379e-2
-1.693, 1.388e-2
-1.694, 1.399e-2
-1.695, 1.407e-2
-1.696, 1.414e-2
-1.697, 1.422e-2
-1.698, 1.433e-2
-1.699, 1.446e-2
-1.700, 1.450e-2
-1.699, 1.437e-2
-1.698, 1.424e-2
-1.697, 1.413e-2
-1.696, 1.403e-2
-1.695, 1.390e-2
-1.694, 1.376e-2
-1.693, 1.362e-2
-1.692, 1.352e-2
-1.691, 1.343e-2
-1.690, 1.332e-2
-1.689, 1.319e-2
-1.688, 1.307e-2
-1.687, 1.298e-2
-1.686, 1.291e-2
-1.685, 1.281e-2
-1.684, 1.267e-2
-1.683, 1.252e-2
-1.682, 1.241e-2
-1.681, 1.233e-2
-1.680, 1.222e-2
-1.679, 1.210e-2
-1.678, 1.197e-2
-1.677, 1.189e-2
-1.676, 1.181e-2
-1.675, 1.171e-2
-1.674, 1.159e-2
-1.673, 1.148e-2
-1.672, 1.140e-2
-1.671, 1.133e-2
-1.670, 1.124e-2
-1.669, 1.111e-2
-1.668, 1.100e-2
-1.667, 1.092e-2
-1.666, 1.084e-2
-1.665, 1.075e-2
-1.664, 1.064e-2
-1.663, 1.052e-2
-1.662, 1.044e-2
-1.661, 1.038e-2
-1.660, 1.030e-2
-1.659, 1.019e-2
-1.658, 1.008e-2
-1.657, 9.993e-3
-1.656, 9.925e-3
-1.655, 9.832e-3
-1.654, 9.721e-3
-1.653, 9.610e-3
-1.652, 9.530e-3
-1.651, 9.456e-3
-1.650, 9.360e-3
-1.649, 9.246e-3
-1.648, 9.148e-3
-1.647, 9.080e-3
-1.646, 9.012e-3
-1.645, 8.926e-3
-1.644, 8.821e-3
-1.643, 8.722e-3
-1.642, 8.648e-3
-1.641, 8.580e-3
-1.640, 8.500e-3
-1.639, 8.392e-3
-1.638, 8.294e-3
-1.637, 8.220e-3
-1.636, 8.158e-3
-1.635, 8.078e-3
-1.634, 7.982e-3
-1.633, 7.890e-3
-1.632, 7.816e-3
-1.631, 7.751e-3
-1.630, 7.671e-3
-1.629, 7.578e-3
-1.628, 7.492e-3
-1.627, 7.421e-3
-1.626, 7.363e-3
-1.625, 7.289e-3
-1.624, 7.202e-3
-1.623, 7.113e-3
-1.622, 7.045e-3
-1.621, 6.990e-3
-1.620, 6.919e-3
-1.619, 6.829e-3
-1.618, 6.740e-3
-1.617, 6.675e-3
-1.616, 6.617e-3
-1.615, 6.546e-3
-1.614, 6.453e-3
-1.613, 6.373e-3
-1.612, 6.308e-3
-1.611, 6.250e-3
-1.610, 6.179e-3
-1.609, 6.095e-3
-1.608, 6.015e-3
-1.607, 5.957e-3
-1.606, 5.907e-3
-1.605, 5.843e-3
-1.604, 5.756e-3
-1.603, 5.676e-3
-1.602, 5.621e-3
-1.601, 5.568e-3
-1.600, 5.507e-3
-1.599, 5.423e-3
-1.598, 5.349e-3
-1.597, 5.297e-3
-1.596, 5.248e-3
-1.595, 5.186e-3
-1.594, 5.109e-3
-1.593, 5.035e-3
-1.592, 4.982e-3
-1.591, 4.933e-3
-1.590, 4.871e-3
-1.589, 4.794e-3
-1.588, 4.720e-3
-1.587, 4.671e-3
-1.586, 4.625e-3
-1.585, 4.566e-3
-1.584, 4.492e-3
-1.583, 4.431e-3
-1.582, 4.381e-3
-1.581, 4.335e-3
-1.580, 4.276e-3
-1.579, 4.206e-3
-1.578, 4.144e-3
-1.577, 4.095e-3
-1.576, 4.051e-3
-1.575, 3.999e-3
-1.574, 3.931e-3
-1.573, 3.869e-3
-1.572, 3.823e-3
-1.571, 3.780e-3
-1.570, 3.731e-3
-1.569, 3.669e-3
-1.568, 3.607e-3
-1.567, 3.564e-3
-1.566, 3.524e-3
-1.565, 3.475e-3
-1.564, 3.413e-3
-1.563, 3.358e-3
-1.562, 3.318e-3
-1.561, 3.281e-3
-1.560, 3.231e-3
-1.559, 3.173e-3
-1.558, 3.123e-3
-1.557, 3.086e-3
-1.556, 3.046e-3
-1.555, 3.000e-3
-1.554, 2.948e-3
-1.553, 2.895e-3
-1.552, 2.855e-3
-1.551, 2.821e-3
-1.550, 2.781e-3
-1.549, 2.732e-3
-1.548, 2.679e-3
-1.547, 2.645e-3
-1.546, 2.612e-3
-1.545, 2.571e-3
-1.544, 2.519e-3
-1.543, 2.476e-3
-1.542, 2.442e-3
-1.541, 2.411e-3
-1.540, 2.371e-3
-1.539, 2.325e-3
-1.538, 2.282e-3
-1.537, 2.251e-3
-1.536, 2.220e-3
-1.535, 2.183e-3
-1.534, 2.140e-3
-1.533, 2.097e-3
-1.532, 2.069e-3
-1.531, 2.038e-3
-1.530, 2.004e-3
-1.529, 1.961e-3
-1.528, 1.924e-3
-1.527, 1.893e-3
-1.526, 1.869e-3
-1.525, 1.835e-3
-1.524, 1.795e-3
-1.523, 1.761e-3
-1.522, 1.733e-3
-1.521, 1.711e-3
-1.520, 1.680e-3
-1.519, 1.640e-3
-1.518, 1.606e-3
-1.517, 1.582e-3
-1.516, 1.557e-3
-1.515, 1.529e-3
-1.514, 1.492e-3
-1.513, 1.462e-3
-1.512, 1.440e-3
-1.511, 1.418e-3
-1.510, 1.391e-3
-1.509, 1.357e-3
-1.508, 1.329e-3
-1.507, 1.307e-3
-1.506, 1.289e-3
-1.505, 1.261e-3
-1.504, 1.233e-3
-1.503, 1.206e-3
-1.502, 1.187e-3
-1.501, 1.169e-3
-1.500, 1.147e-3
-1.499, 1.119e-3
-1.498, 1.095e-3
-1.497, 1.076e-3
-1.496, 1.058e-3
-1.495, 1.039e-3
-1.494, 1.011e-3
-1.493, 9.868e-4
-1.492, 9.713e-4
-1.491, 9.559e-4
-1.490, 9.374e-4
-1.489, 9.128e-4
-1.488, 8.912e-4
-1.487, 8.758e-4
-1.486, 8.634e-4
-1.485, 8.449e-4
-1.484, 8.203e-4
-1.483, 8.018e-4
-1.482, 7.894e-4
-1.481, 7.740e-4
-1.480, 7.586e-4
-1.479, 7.370e-4
-1.478, 7.216e-4
-1.477, 7.093e-4
-1.476, 6.969e-4
-1.475, 6.815e-4
-1.474, 6.630e-4
-1.473, 6.476e-4
-1.472, 6.353e-4
-1.471, 6.229e-4
-1.470, 6.106e-4
-1.469, 5.921e-4
-1.468, 5.798e-4
-1.467, 5.674e-4
-1.466, 5.582e-4
-1.465, 5.459e-4
-1.464, 5.305e-4
-1.463, 5.181e-4
-1.462, 5.089e-4
-1.461, 4.996e-4
-1.460, 4.873e-4
-1.459, 4.750e-4
-1.458, 4.626e-4
-1.457, 4.565e-4
-1.456, 4.472e-4
-1.455, 4.349e-4
-1.454, 4.225e-4
-1.453, 4.133e-4
-1.452, 4.071e-4
-1.451, 4.010e-4
-1.450, 3.886e-4
-1.449, 3.763e-4
-1.448, 3.701e-4
-1.447, 3.640e-4
-1.446, 3.578e-4
-1.445, 3.485e-4
-1.444, 3.362e-4
-1.443, 3.300e-4
-1.442, 3.239e-4
-1.441, 3.177e-4
-1.440, 3.085e-4
-1.439, 2.992e-4
-1.438, 2.931e-4
-1.437, 2.900e-4
-1.436, 2.838e-4
-1.435, 2.746e-4
-1.434, 2.653e-4
-1.433, 2.591e-4
-1.432, 2.561e-4
-1.431, 2.530e-4
-1.430, 2.437e-4
-1.429, 2.376e-4
-1.428, 2.314e-4
-1.427, 2.283e-4
-1.426, 2.252e-4
-1.425, 2.191e-4
-1.424, 2.098e-4
-1.423, 2.067e-4
-1.422, 2.036e-4
-1.421, 2.006e-4
-1.420, 1.913e-4
-1.419, 1.851e-4
-1.418, 1.821e-4
-1.417, 1.790e-4
-1.416, 1.759e-4
-1.415, 1.697e-4
-1.414, 1.636e-4
-1.413, 1.605e-4
-1.412, 1.605e-4
-1.411, 1.574e-4
-1.410, 1.512e-4
-1.409, 1.451e-4
-1.408, 1.420e-4
-1.407, 1.420e-4
-1.406, 1.389e-4
-1.405, 1.327e-4
-1.404, 1.296e-4
-1.403, 1.266e-4
-1.402, 1.266e-4
-1.401, 1.235e-4
-1.400, 1.173e-4
-1.399, 1.142e-4
-1.398, 1.111e-4
-1.397, 1.111e-4
-1.396, 1.081e-4
-1.395, 1.050e-4
-1.394, 9.882e-5
-1.393, 9.882e-5
-1.392, 9.882e-5
-1.391, 9.573e-5
-1.390, 9.265e-5
-1.389, 8.648e-5
-1.388, 8.648e-5
-1.387, 8.648e-5
-1.386, 8.648e-5
-1.385, 8.340e-5
-1.384, 7.723e-5
-1.383, 7.723e-5
-1.382, 7.723e-5
-1.381, 7.723e-5
-1.380, 7.107e-5
-1.379, 6.798e-5
-1.378, 6.798e-5
-1.377, 6.798e-5
-1.376, 6.490e-5
-1.375, 6.490e-5
-1.374, 6.182e-5
-1.373, 5.873e-5
-1.372, 5.873e-5
-1.371, 5.873e-5
-1.370, 5.565e-5
-1.369, 5.257e-5
-1.368, 5.257e-5
-1.367, 5.257e-5
-1.366, 5.257e-5
-1.365, 4.949e-5
-1.364, 4.640e-5
-1.363, 4.640e-5
-1.362, 4.640e-5
-1.361, 4.640e-5
-1.360, 4.332e-5
-1.359, 4.024e-5
-1.358, 4.024e-5
-1.357, 4.024e-5
-1.356, 4.024e-5
-1.355, 3.715e-5
-1.354, 3.407e-5
-1.353, 3.407e-5
-1.352, 3.715e-5
-1.351, 3.715e-5
-1.350, 3.099e-5
-1.349, 2.790e-5
-1.348, 3.099e-5
-1.347, 3.099e-5
-1.346, 3.099e-5
-1.345, 2.790e-5
-1.344, 2.482e-5
-1.343, 2.482e-5
-1.342, 2.790e-5
-1.341, 2.482e-5
-1.340, 2.482e-5
-1.339, 2.174e-5
-1.338, 2.174e-5
-1.337, 2.482e-5
-1.336, 2.174e-5
-1.335, 2.174e-5
-1.334, 1.865e-5
-1.333, 1.865e-5
-1.332, 2.174e-5
-1.331, 1.865e-5
-1.330, 1.557e-5
-1.329, 1.557e-5
-1.328, 1.557e-5
-1.327, 1.865e-5
-1.326, 1.557e-5
-1.325, 1.249e-5
-1.324, 1.249e-5
-1.323, 1.249e-5
-1.322, 1.557e-5
-1.321, 1.557e-5
-1.320, 1.249e-5
-1.319, 9.405e-6
-1.318, 1.249e-5
-1.317, 1.249e-5
-1.316, 1.249e-5
-1.315, 9.405e-6
-1.314, 9.405e-6
-1.313, 9.405e-6
-1.312, 1.249e-5
-1.311, 9.405e-6
-1.310, 6.322e-6
-1.309, 6.322e-6
-1.308, 6.322e-6
-1.307, 9.405e-6
-1.306, 9.405e-6
-1.305, 6.322e-6
-1.304, 3.239e-6
-1.303, 6.322e-6
-1.302, 9.405e-6
-1.301, 6.322e-6
-1.300, 3.239e-6
-1.299, 3.239e-6
-1.298, 3.239e-6
-1.297, 6.322e-6
-1.296, 6.322e-6
-1.295, 3.239e-6
-1.294, 3.239e-6
-1.293, 3.239e-6
-1.292, 6.322e-6
-1.291, 3.239e-6
-1.290, 1.559e-7
-1.289, 1.559e-7
-1.288, 1.559e-7
-1.287, 3.239e-6
-1.286, 3.239e-6
-1.285, 1.559e-7
-1.284, 1.559e-7
-1.283, 1.559e-7
-1.282, 3.239e-6
-1.281, 3.239e-6
-1.280, 1.559e-7
-1.279, -2.927e-6
-1.278, 1.559e-7
-1.277, 3.239e-6
-1.276, 1.559e-7
-1.275, -2.927e-6
-1.274, -2.927e-6
-1.273, -2.927e-6
-1.272, 1.559e-7
-1.271, 1.559e-7
-1.270, -2.927e-6
-1.269, -2.927e-6
-1.268, -2.927e-6
-1.267, 1.559e-7
-1.266, 1.559e-7
-1.265, -2.927e-6
-1.264, -2.927e-6
-1.263, -2.927e-6
-1.262, 1.559e-7
-1.261, -2.927e-6
-1.260, -2.927e-6
-1.259, -6.010e-6
-1.258, -2.927e-6
-1.257, 1.559e-7
-1.256, -2.927e-6
-1.255, -6.010e-6
-1.254, -6.010e-6
-1.253, -2.927e-6
-1.252, -2.927e-6
-1.251, -2.927e-6
-1.250, -6.010e-6
-1.249, -6.010e-6
-1.248, -2.927e-6
-1.247, -2.927e-6
-1.246, -6.010e-6
-1.245, -6.010e-6
-1.244, -9.093e-6
-1.243, -6.010e-6
-1.242, -2.927e-6
-1.241, -2.927e-6
-1.240, -6.010e-6
-1.239, -6.010e-6
-1.238, -6.010e-6
-1.237, -2.927e-6
-1.236, -6.010e-6
-1.235, -6.010e-6
-1.234, -9.093e-6
-1.233, -6.010e-6
-1.232, -2.927e-6
-1.231, -6.010e-6
-1.230, -9.093e-6
-1.229, -9.093e-6
-1.228, -6.010e-6
-1.227, -6.010e-6
-1.226, -6.010e-6
-1.225, -9.093e-6
-1.224, -9.093e-6
-1.223, -6.010e-6
-1.222, -6.010e-6
-1.221, -6.010e-6
-1.220, -9.093e-6
-1.219, -9.093e-6
-1.218, -9.093e-6
-1.217, -6.010e-6
-1.216, -6.010e-6
-1.215, -9.093e-6
-1.214, -9.093e-6
-1.213, -9.093e-6
-1.212, -6.010e-6
-1.211, -6.010e-6
-1.210, -9.093e-6
-1.209, -1.218e-5
-1.208, -9.093e-6
-1.207, -6.010e-6
-1.206, -6.010e-6
-1.205, -9.093e-6
-1.204, -1.218e-5
-1.203, -9.093e-6
-1.202, -6.010e-6
-1.201, -9.093e-6
-1.200, -9.093e-6
-1.199, -1.218e-5
-1.198, -9.093e-6
-1.197, -9.093e-6
-1.196, -9.093e-6
-1.195, -1.218e-5
-1.194, -1.218e-5
-1.193, -9.093e-6
-1.192, -9.093e-6
-1.191, -9.093e-6
-1.190, -1.218e-5
-1.189, -1.218e-5
-1.188, -9.093e-6
-1.187, -9.093e-6
-1.186, -9.093e-6
-1.185, -1.218e-5
-1.184, -1.218e-5
-1.183, -9.093e-6
-1.182, -9.093e-6
-1.181, -9.093e-6
-1.180, -1.218e-5
-1.179, -1.218e-5
-1.178, -1.218e-5
-1.177, -9.093e-6
-1.176, -9.093e-6
-1.175, -1.218e-5
-1.174, -1.218e-5
-1.173, -1.218e-5
-1.172, -9.093e-6
-1.171, -9.093e-6
-1.170, -1.218e-5
-1.169, -1.218e-5
-1.168, -1.218e-5
-1.167, -9.093e-6
-1.166, -9.093e-6
-1.165, -1.218e-5
-1.164, -1.526e-5
-1.163, -1.218e-5
-1.162, -9.093e-6
-1.161, -1.218e-5
-1.160, -1.218e-5
-1.159, -1.526e-5
-1.158, -1.218e-5
-1.157, -9.093e-6
-1.156, -1.218e-5
-1.155, -1.218e-5
-1.154, -1.526e-5
-1.153, -1.218e-5
-1.152, -9.093e-6
-1.151, -1.218e-5
-1.150, -1.526e-5
-1.149, -1.526e-5
-1.148, -1.218e-5
-1.147, -9.093e-6
-1.146, -1.218e-5
-1.145, -1.526e-5
-1.144, -1.526e-5
-1.143, -1.218e-5
-1.142, -1.218e-5
-1.141, -1.218e-5
-1.140, -1.526e-5
-1.139, -1.526e-5
-1.138, -1.526e-5
-1.137, -1.218e-5
-1.136, -1.218e-5
-1.135, -1.526e-5
-1.134, -1.526e-5
-1.133, -1.526e-5
-1.132, -1.218e-5
-1.131, -1.218e-5
-1.130, -1.526e-5
-1.129, -1.526e-5
-1.128, -1.526e-5
-1.127, -1.218e-5
-1.126, -1.218e-5
-1.125, -1.526e-5
-1.124, -1.834e-5
-1.123, -1.526e-5
-1.122, -1.218e-5
-1.121, -1.218e-5
-1.120, -1.526e-5
-1.119, -1.834e-5
-1.118, -1.526e-5
-1.117, -1.218e-5
-1.116, -1.218e-5
-1.115, -1.526e-5
-1.114, -1.834e-5
-1.113, -1.526e-5
-1.112, -1.218e-5
-1.111, -1.526e-5
-1.110, -1.526e-5
-1.109, -1.834e-5
-1.108, -1.526e-5
-1.107, -1.218e-5
-1.106, -1.526e-5
-1.105, -1.834e-5
-1.104, -1.834e-5
-1.103, -1.526e-5
-1.102, -1.218e-5
-1.101, -1.526e-5
-1.100, -1.834e-5
-1.099, -1.834e-5
-1.098, -1.526e-5
-1.097, -1.526e-5
-1.096, -1.526e-5
-1.095, -1.834e-5
-1.094, -2.143e-5
-1.093, -1.526e-5
-1.092, -1.526e-5
-1.091, -1.526e-5
-1.090, -1.834e-5
-1.089, -1.834e-5
-1.088, -1.526e-5
-1.087, -1.526e-5
-1.086, -1.526e-5
-1.085, -1.834e-5
-1.084, -1.834e-5
-1.083, -1.834e-5
-1.082, -1.526e-5
-1.081, -1.526e-5
-1.080, -1.834e-5
-1.079, -2.143e-5
-1.078, -1.834e-5
-1.077, -1.526e-5
-1.076, -1.834e-5
-1.075, -2.143e-5
-1.074, -2.143e-5
-1.073, -1.834e-5
-1.072, -1.526e-5
-1.071, -1.834e-5
-1.070, -2.143e-5
-1.069, -2.143e-5
-1.068, -1.834e-5
-1.067, -1.834e-5
-1.066, -1.834e-5
-1.065, -2.143e-5
-1.064, -2.143e-5
-1.063, -1.834e-5
-1.062, -1.526e-5
-1.061, -1.834e-5
-1.060, -2.143e-5
-1.059, -2.143e-5
-1.058, -1.834e-5
-1.057, -1.834e-5
-1.056, -1.834e-5
-1.055, -2.143e-5
-1.054, -2.143e-5
-1.053, -2.143e-5
-1.052, -1.834e-5
-1.051, -1.834e-5
-1.050, -2.143e-5
-1.049, -2.143e-5
-1.048, -2.143e-5
-1.047, -1.834e-5
-1.046, -1.834e-5
-1.045, -2.143e-5
-1.044, -2.451e-5
-1.043, -2.143e-5
-1.042, -1.834e-5
-1.041, -2.143e-5
-1.040, -2.451e-5
-1.039, -2.451e-5
-1.038, -2.143e-5
-1.037, -1.834e-5
-1.036, -2.143e-5
-1.035, -2.451e-5
-1.034, -2.451e-5
-1.033, -2.143e-5
-1.032, -1.834e-5
-1.031, -2.143e-5
-1.030, -2.451e-5
-1.029, -2.451e-5
-1.028, -2.143e-5
-1.027, -2.143e-5
-1.026, -2.143e-5
-1.025, -2.451e-5
-1.024, -2.759e-5
-1.023, -2.451e-5
-1.022, -2.143e-5
-1.021, -2.143e-5
-1.020, -2.759e-5
-1.019, -2.759e-5
-1.018, -2.451e-5
-1.017, -2.143e-5
-1.016, -2.451e-5
-1.015, -2.759e-5
-1.014, -2.759e-5
-1.013, -2.451e-5
-1.012, -2.143e-5
-1.011, -2.451e-5
-1.010, -2.759e-5
-1.009, -2.759e-5
-1.008, -2.451e-5
-1.007, -2.143e-5
-1.006, -2.451e-5
-1.005, -2.759e-5
-1.004, -2.759e-5
-1.003, -2.451e-5
-1.002, -2.451e-5
-1.001, -2.451e-5
