Apr. 20, 2025   16:02:23
Cyclic Voltammetry
File: c:/users/guazh/data/banditlqround7_x0exp590_r20/2025-04-16-exp1138\exp1138-2025-04-20t15_48_50-arkoh\exp1138_cv_sr_50mvs_efin_-1700mv.bin
Data Source:  Experiment
Instrument Model:  CHI760E
Header: CV ran at 50 mVs
Note: 

Init E (V) = -1
High E (V) = -1
Low E (V) = -1.7
Final E (V) = -1
Init P/N = N
Scan Rate (V/s) = 0.05
Segment = 3
Sample Interval (V) = 0.001
Quiet Time (sec) = 2
Sensitivity (A/V) = 0.01
Comp R (ohm) = 1.5

Results:

Channel 1:
Segment 1:

Segment 2:

Segment 3:

Potential/V, Current/A

-1.000, 6.590e-7
-1.001, 4.815e-7
-1.002, 7.676e-7
-1.003, 1.409e-6
-1.004, 1.843e-6
-1.005, 1.468e-6
-1.006, 1.103e-6
-1.007, 1.241e-6
-1.008, 1.803e-6
-1.009, 2.247e-6
-1.010, 1.892e-6
-1.011, 1.468e-6
-1.012, 1.527e-6
-1.013, 2.238e-6
-1.014, 2.405e-6
-1.015, 2.159e-6
-1.016, 1.685e-6
-1.017, 1.794e-6
-1.018, 2.356e-6
-1.019, 2.563e-6
-1.020, 2.287e-6
-1.021, 1.754e-6
-1.022, 1.902e-6
-1.023, 2.573e-6
-1.024, 2.889e-6
-1.025, 2.494e-6
-1.026, 2.149e-6
-1.027, 2.090e-6
-1.028, 2.701e-6
-1.029, 2.938e-6
-1.030, 2.622e-6
-1.031, 2.287e-6
-1.032, 2.208e-6
-1.033, 2.849e-6
-1.034, 3.007e-6
-1.035, 2.721e-6
-1.036, 2.346e-6
-1.037, 2.386e-6
-1.038, 3.027e-6
-1.039, 3.204e-6
-1.040, 2.879e-6
-1.041, 2.514e-6
-1.042, 2.484e-6
-1.043, 3.007e-6
-1.044, 3.254e-6
-1.045, 3.047e-6
-1.046, 2.534e-6
-1.047, 2.583e-6
-1.048, 3.224e-6
-1.049, 3.392e-6
-1.050, 3.234e-6
-1.051, 2.701e-6
-1.052, 2.760e-6
-1.053, 3.402e-6
-1.054, 3.520e-6
-1.055, 3.283e-6
-1.056, 2.830e-6
-1.057, 2.889e-6
-1.058, 3.530e-6
-1.059, 3.579e-6
-1.060, 3.392e-6
-1.061, 2.938e-6
-1.062, 2.968e-6
-1.063, 3.619e-6
-1.064, 3.856e-6
-1.065, 3.550e-6
-1.066, 3.204e-6
-1.067, 3.096e-6
-1.068, 3.727e-6
-1.069, 3.935e-6
-1.070, 3.540e-6
-1.071, 3.086e-6
-1.072, 3.195e-6
-1.073, 3.806e-6
-1.074, 4.013e-6
-1.075, 3.747e-6
-1.076, 3.274e-6
-1.077, 3.323e-6
-1.078, 3.984e-6
-1.079, 4.152e-6
-1.080, 3.806e-6
-1.081, 3.333e-6
-1.082, 3.451e-6
-1.083, 3.974e-6
-1.084, 4.260e-6
-1.085, 3.885e-6
-1.086, 3.412e-6
-1.087, 3.461e-6
-1.088, 4.171e-6
-1.089, 4.418e-6
-1.090, 3.994e-6
-1.091, 3.550e-6
-1.092, 3.648e-6
-1.093, 4.221e-6
-1.094, 4.457e-6
-1.095, 4.073e-6
-1.096, 3.570e-6
-1.097, 3.698e-6
-1.098, 4.359e-6
-1.099, 4.477e-6
-1.100, 4.122e-6
-1.101, 3.875e-6
-1.102, 3.836e-6
-1.103, 4.467e-6
-1.104, 4.625e-6
-1.105, 4.231e-6
-1.106, 3.688e-6
-1.107, 3.925e-6
-1.108, 4.517e-6
-1.109, 4.724e-6
-1.110, 4.270e-6
-1.111, 3.915e-6
-1.112, 4.043e-6
-1.113, 4.497e-6
-1.114, 4.753e-6
-1.115, 4.379e-6
-1.116, 3.974e-6
-1.117, 4.073e-6
-1.118, 4.615e-6
-1.119, 4.882e-6
-1.120, 4.448e-6
-1.121, 3.994e-6
-1.122, 4.102e-6
-1.123, 4.724e-6
-1.124, 4.961e-6
-1.125, 4.586e-6
-1.126, 4.092e-6
-1.127, 4.329e-6
-1.128, 4.832e-6
-1.129, 4.951e-6
-1.130, 4.635e-6
-1.131, 4.319e-6
-1.132, 4.359e-6
-1.133, 5.040e-6
-1.134, 5.059e-6
-1.135, 4.704e-6
-1.136, 4.280e-6
-1.137, 4.477e-6
-1.138, 5.040e-6
-1.139, 5.197e-6
-1.140, 4.783e-6
-1.141, 4.418e-6
-1.142, 4.546e-6
-1.143, 5.109e-6
-1.144, 5.227e-6
-1.145, 4.872e-6
-1.146, 4.398e-6
-1.147, 4.556e-6
-1.148, 5.207e-6
-1.149, 5.296e-6
-1.150, 4.882e-6
-1.151, 4.438e-6
-1.152, 4.714e-6
-1.153, 5.227e-6
-1.154, 5.464e-6
-1.155, 5.000e-6
-1.156, 4.546e-6
-1.157, 4.753e-6
-1.158, 5.247e-6
-1.159, 5.543e-6
-1.160, 5.069e-6
-1.161, 4.625e-6
-1.162, 4.852e-6
-1.163, 5.345e-6
-1.164, 5.503e-6
-1.165, 5.217e-6
-1.166, 4.684e-6
-1.167, 4.882e-6
-1.168, 5.503e-6
-1.169, 5.710e-6
-1.170, 5.247e-6
-1.171, 4.852e-6
-1.172, 5.020e-6
-1.173, 5.582e-6
-1.174, 5.691e-6
-1.175, 5.355e-6
-1.176, 4.941e-6
-1.177, 5.010e-6
-1.178, 5.701e-6
-1.179, 5.908e-6
-1.180, 5.424e-6
-1.181, 5.010e-6
-1.182, 5.099e-6
-1.183, 5.829e-6
-1.184, 5.760e-6
-1.185, 5.543e-6
-1.186, 5.079e-6
-1.187, 5.336e-6
-1.188, 5.760e-6
-1.189, 5.927e-6
-1.190, 5.543e-6
-1.191, 5.079e-6
-1.192, 5.266e-6
-1.193, 5.868e-6
-1.194, 6.006e-6
-1.195, 5.612e-6
-1.196, 5.118e-6
-1.197, 5.385e-6
-1.198, 5.967e-6
-1.199, 6.095e-6
-1.200, 5.582e-6
-1.201, 5.188e-6
-1.202, 5.474e-6
-1.203, 6.105e-6
-1.204, 6.194e-6
-1.205, 5.829e-6
-1.206, 5.316e-6
-1.207, 5.602e-6
-1.208, 6.115e-6
-1.209, 6.184e-6
-1.210, 5.750e-6
-1.211, 5.276e-6
-1.212, 5.651e-6
-1.213, 6.233e-6
-1.214, 6.253e-6
-1.215, 5.799e-6
-1.216, 5.355e-6
-1.217, 5.671e-6
-1.218, 6.223e-6
-1.219, 6.302e-6
-1.220, 5.868e-6
-1.221, 5.444e-6
-1.222, 5.720e-6
-1.223, 6.332e-6
-1.224, 6.322e-6
-1.225, 5.908e-6
-1.226, 5.582e-6
-1.227, 5.740e-6
-1.228, 6.371e-6
-1.229, 6.549e-6
-1.230, 6.125e-6
-1.231, 5.701e-6
-1.232, 6.085e-6
-1.233, 6.519e-6
-1.234, 6.618e-6
-1.235, 6.233e-6
-1.236, 5.868e-6
-1.237, 6.085e-6
-1.238, 6.618e-6
-1.239, 6.717e-6
-1.240, 6.223e-6
-1.241, 5.957e-6
-1.242, 6.332e-6
-1.243, 6.865e-6
-1.244, 6.914e-6
-1.245, 6.431e-6
-1.246, 6.026e-6
-1.247, 6.440e-6
-1.248, 6.963e-6
-1.249, 6.894e-6
-1.250, 6.579e-6
-1.251, 6.145e-6
-1.252, 6.579e-6
-1.253, 7.102e-6
-1.254, 7.111e-6
-1.255, 6.717e-6
-1.256, 6.500e-6
-1.257, 6.746e-6
-1.258, 7.338e-6
-1.259, 7.319e-6
-1.260, 6.894e-6
-1.261, 6.707e-6
-1.262, 6.954e-6
-1.263, 7.476e-6
-1.264, 7.585e-6
-1.265, 7.171e-6
-1.266, 6.865e-6
-1.267, 7.141e-6
-1.268, 7.723e-6
-1.269, 7.881e-6
-1.270, 7.368e-6
-1.271, 7.131e-6
-1.272, 7.496e-6
-1.273, 8.088e-6
-1.274, 8.197e-6
-1.275, 7.753e-6
-1.276, 7.457e-6
-1.277, 7.832e-6
-1.278, 8.354e-6
-1.279, 8.354e-6
-1.280, 8.059e-6
-1.281, 7.881e-6
-1.282, 8.206e-6
-1.283, 8.779e-6
-1.284, 8.818e-6
-1.285, 8.611e-6
-1.286, 8.285e-6
-1.287, 8.739e-6
-1.288, 9.272e-6
-1.289, 9.282e-6
-1.290, 8.986e-6
-1.291, 8.779e-6
-1.292, 9.075e-6
-1.293, 9.834e-6
-1.294, 9.805e-6
-1.295, 9.450e-6
-1.296, 9.371e-6
-1.297, 9.706e-6
-1.298, 1.038e-5
-1.299, 1.053e-5
-1.300, 1.022e-5
-1.301, 1.004e-5
-1.302, 1.051e-5
-1.303, 1.121e-5
-1.304, 1.128e-5
-1.305, 1.103e-5
-1.306, 1.092e-5
-1.307, 1.141e-5
-1.308, 1.213e-5
-1.309, 1.232e-5
-1.310, 1.198e-5
-1.311, 1.200e-5
-1.312, 1.252e-5
-1.313, 1.326e-5
-1.314, 1.341e-5
-1.315, 1.312e-5
-1.316, 1.309e-5
-1.317, 1.378e-5
-1.318, 1.458e-5
-1.319, 1.467e-5
-1.320, 1.457e-5
-1.321, 1.463e-5
-1.322, 1.530e-5
-1.323, 1.601e-5
-1.324, 1.624e-5
-1.325, 1.630e-5
-1.326, 1.638e-5
-1.327, 1.712e-5
-1.328, 1.794e-5
-1.329, 1.830e-5
-1.330, 1.832e-5
-1.331, 1.856e-5
-1.332, 1.932e-5
-1.333, 2.023e-5
-1.334, 2.065e-5
-1.335, 2.074e-5
-1.336, 2.099e-5
-1.337, 2.182e-5
-1.338, 2.292e-5
-1.339, 2.342e-5
-1.340, 2.354e-5
-1.341, 2.392e-5
-1.342, 2.499e-5
-1.343, 2.603e-5
-1.344, 2.667e-5
-1.345, 2.707e-5
-1.346, 2.759e-5
-1.347, 2.877e-5
-1.348, 2.994e-5
-1.349, 3.063e-5
-1.350, 3.113e-5
-1.351, 3.185e-5
-1.352, 3.320e-5
-1.353, 3.451e-5
-1.354, 3.526e-5
-1.355, 3.585e-5
-1.356, 3.680e-5
-1.357, 3.831e-5
-1.358, 3.980e-5
-1.359, 4.088e-5
-1.360, 4.174e-5
-1.361, 4.274e-5
-1.362, 4.436e-5
-1.363, 4.608e-5
-1.364, 4.732e-5
-1.365, 4.836e-5
-1.366, 4.959e-5
-1.367, 5.146e-5
-1.368, 5.328e-5
-1.369, 5.481e-5
-1.370, 5.617e-5
-1.371, 5.765e-5
-1.372, 5.966e-5
-1.373, 6.189e-5
-1.374, 6.354e-5
-1.375, 6.522e-5
-1.376, 6.707e-5
-1.377, 6.935e-5
-1.378, 7.181e-5
-1.379, 7.386e-5
-1.380, 7.587e-5
-1.381, 7.789e-5
-1.382, 8.058e-5
-1.383, 8.363e-5
-1.384, 8.605e-5
-1.385, 8.830e-5
-1.386, 9.090e-5
-1.387, 9.385e-5
-1.388, 9.707e-5
-1.389, 1.000e-4
-1.390, 1.028e-4
-1.391, 1.056e-4
-1.392, 1.092e-4
-1.393, 1.127e-4
-1.394, 1.161e-4
-1.395, 1.192e-4
-1.396, 1.226e-4
-1.397, 1.265e-4
-1.398, 1.307e-4
-1.399, 1.347e-4
-1.400, 1.384e-4
-1.401, 1.423e-4
-1.402, 1.469e-4
-1.403, 1.517e-4
-1.404, 1.562e-4
-1.405, 1.603e-4
-1.406, 1.647e-4
-1.407, 1.698e-4
-1.408, 1.752e-4
-1.409, 1.806e-4
-1.410, 1.856e-4
-1.411, 1.908e-4
-1.412, 1.965e-4
-1.413, 2.026e-4
-1.414, 2.086e-4
-1.415, 2.144e-4
-1.416, 2.201e-4
-1.417, 2.266e-4
-1.418, 2.336e-4
-1.419, 2.404e-4
-1.420, 2.470e-4
-1.421, 2.536e-4
-1.422, 2.612e-4
-1.423, 2.689e-4
-1.424, 2.765e-4
-1.425, 2.840e-4
-1.426, 2.914e-4
-1.427, 2.999e-4
-1.428, 3.087e-4
-1.429, 3.175e-4
-1.430, 3.261e-4
-1.431, 3.347e-4
-1.432, 3.444e-4
-1.433, 3.545e-4
-1.434, 3.649e-4
-1.435, 3.746e-4
-1.436, 3.841e-4
-1.437, 3.945e-4
-1.438, 4.058e-4
-1.439, 4.169e-4
-1.440, 4.275e-4
-1.441, 4.380e-4
-1.442, 4.490e-4
-1.443, 4.605e-4
-1.444, 4.724e-4
-1.445, 4.840e-4
-1.446, 4.965e-4
-1.447, 5.105e-4
-1.448, 5.249e-4
-1.449, 5.394e-4
-1.450, 5.532e-4
-1.451, 5.667e-4
-1.452, 5.812e-4
-1.453, 5.966e-4
-1.454, 6.115e-4
-1.455, 6.258e-4
-1.456, 6.404e-4
-1.457, 6.570e-4
-1.458, 6.752e-4
-1.459, 6.934e-4
-1.460, 7.103e-4
-1.461, 7.263e-4
-1.462, 7.434e-4
-1.463, 7.620e-4
-1.464, 7.808e-4
-1.465, 7.999e-4
-1.466, 8.193e-4
-1.467, 8.401e-4
-1.468, 8.611e-4
-1.469, 8.815e-4
-1.470, 9.012e-4
-1.471, 9.213e-4
-1.472, 9.426e-4
-1.473, 9.652e-4
-1.474, 9.882e-4
-1.475, 1.011e-3
-1.476, 1.033e-3
-1.477, 1.057e-3
-1.478, 1.084e-3
-1.479, 1.107e-3
-1.480, 1.130e-3
-1.481, 1.153e-3
-1.482, 1.179e-3
-1.483, 1.206e-3
-1.484, 1.233e-3
-1.485, 1.261e-3
-1.486, 1.288e-3
-1.487, 1.315e-3
-1.488, 1.344e-3
-1.489, 1.373e-3
-1.490, 1.400e-3
-1.491, 1.428e-3
-1.492, 1.458e-3
-1.493, 1.489e-3
-1.494, 1.519e-3
-1.495, 1.551e-3
-1.496, 1.582e-3
-1.497, 1.614e-3
-1.498, 1.647e-3
-1.499, 1.681e-3
-1.500, 1.712e-3
-1.501, 1.747e-3
-1.502, 1.780e-3
-1.503, 1.815e-3
-1.504, 1.850e-3
-1.505, 1.883e-3
-1.506, 1.915e-3
-1.507, 1.949e-3
-1.508, 1.986e-3
-1.509, 2.025e-3
-1.510, 2.064e-3
-1.511, 2.103e-3
-1.512, 2.140e-3
-1.513, 2.181e-3
-1.514, 2.218e-3
-1.515, 2.252e-3
-1.516, 2.284e-3
-1.517, 2.320e-3
-1.518, 2.366e-3
-1.519, 2.414e-3
-1.520, 2.456e-3
-1.521, 2.496e-3
-1.522, 2.535e-3
-1.523, 2.576e-3
-1.524, 2.613e-3
-1.525, 2.654e-3
-1.526, 2.691e-3
-1.527, 2.734e-3
-1.528, 2.776e-3
-1.529, 2.821e-3
-1.530, 2.863e-3
-1.531, 2.909e-3
-1.532, 2.945e-3
-1.533, 2.998e-3
-1.534, 3.033e-3
-1.535, 3.070e-3
-1.536, 3.117e-3
-1.537, 3.158e-3
-1.538, 3.219e-3
-1.539, 3.256e-3
-1.540, 3.298e-3
-1.541, 3.329e-3
-1.542, 3.373e-3
-1.543, 3.417e-3
-1.544, 3.465e-3
-1.545, 3.510e-3
-1.546, 3.563e-3
-1.547, 3.615e-3
-1.548, 3.663e-3
-1.549, 3.713e-3
-1.550, 3.765e-3
-1.551, 3.808e-3
-1.552, 3.847e-3
-1.553, 3.897e-3
-1.554, 3.947e-3
-1.555, 4.004e-3
-1.556, 4.049e-3
-1.557, 4.099e-3
-1.558, 4.145e-3
-1.559, 4.189e-3
-1.560, 4.232e-3
-1.561, 4.278e-3
-1.562, 4.333e-3
-1.563, 4.389e-3
-1.564, 4.449e-3
-1.565, 4.505e-3
-1.566, 4.552e-3
-1.567, 4.610e-3
-1.568, 4.662e-3
-1.569, 4.703e-3
-1.570, 4.746e-3
-1.571, 4.779e-3
-1.572, 4.817e-3
-1.573, 4.862e-3
-1.574, 4.929e-3
-1.575, 4.987e-3
-1.576, 5.035e-3
-1.577, 5.094e-3
-1.578, 5.141e-3
-1.579, 5.185e-3
-1.580, 5.228e-3
-1.581, 5.264e-3
-1.582, 5.289e-3
-1.583, 5.352e-3
-1.584, 5.421e-3
-1.585, 5.475e-3
-1.586, 5.526e-3
-1.587, 5.578e-3
-1.588, 5.640e-3
-1.589, 5.686e-3
-1.590, 5.730e-3
-1.591, 5.763e-3
-1.592, 5.816e-3
-1.593, 5.883e-3
-1.594, 5.928e-3
-1.595, 5.969e-3
-1.596, 6.022e-3
-1.597, 6.108e-3
-1.598, 6.148e-3
-1.599, 6.196e-3
-1.600, 6.259e-3
-1.601, 6.293e-3
-1.602, 6.310e-3
-1.603, 6.347e-3
-1.604, 6.412e-3
-1.605, 6.476e-3
-1.606, 6.541e-3
-1.607, 6.591e-3
-1.608, 6.644e-3
-1.609, 6.692e-3
-1.610, 6.735e-3
-1.611, 6.771e-3
-1.612, 6.821e-3
-1.613, 6.866e-3
-1.614, 6.935e-3
-1.615, 7.000e-3
-1.616, 7.072e-3
-1.617, 7.107e-3
-1.618, 7.143e-3
-1.619, 7.169e-3
-1.620, 7.204e-3
-1.621, 7.264e-3
-1.622, 7.356e-3
-1.623, 7.422e-3
-1.624, 7.464e-3
-1.625, 7.511e-3
-1.626, 7.594e-3
-1.627, 7.650e-3
-1.628, 7.697e-3
-1.629, 7.756e-3
-1.630, 7.840e-3
-1.631, 7.932e-3
-1.632, 8.004e-3
-1.633, 8.038e-3
-1.634, 8.071e-3
-1.635, 8.101e-3
-1.636, 8.124e-3
-1.637, 8.168e-3
-1.638, 8.251e-3
-1.639, 8.328e-3
-1.640, 8.419e-3
-1.641, 8.479e-3
-1.642, 8.530e-3
-1.643, 8.654e-3
-1.644, 8.725e-3
-1.645, 8.736e-3
-1.646, 8.733e-3
-1.647, 8.775e-3
-1.648, 8.831e-3
-1.649, 8.923e-3
-1.650, 9.002e-3
-1.651, 9.097e-3
-1.652, 9.148e-3
-1.653, 9.210e-3
-1.654, 9.342e-3
-1.655, 9.419e-3
-1.656, 9.470e-3
-1.657, 9.533e-3
-1.658, 9.589e-3
-1.659, 9.663e-3
-1.660, 9.736e-3
-1.661, 9.818e-3
-1.662, 9.879e-3
-1.663, 9.944e-3
-1.664, 9.965e-3
-1.665, 9.986e-3
-1.666, 1.005e-2
-1.667, 1.015e-2
-1.668, 1.025e-2
-1.669, 1.031e-2
-1.670, 1.039e-2
-1.671, 1.048e-2
-1.672, 1.060e-2
-1.673, 1.063e-2
-1.674, 1.060e-2
-1.675, 1.066e-2
-1.676, 1.068e-2
-1.677, 1.074e-2
-1.678, 1.084e-2
-1.679, 1.094e-2
-1.680, 1.100e-2
-1.681, 1.105e-2
-1.682, 1.114e-2
-1.683, 1.127e-2
-1.684, 1.135e-2
-1.685, 1.138e-2
-1.686, 1.145e-2
-1.687, 1.153e-2
-1.688, 1.162e-2
-1.689, 1.163e-2
-1.690, 1.174e-2
-1.691, 1.178e-2
-1.692, 1.183e-2
-1.693, 1.184e-2
-1.694, 1.181e-2
-1.695, 1.177e-2
-1.696, 1.183e-2
-1.697, 1.204e-2
-1.698, 1.214e-2
-1.699, 1.222e-2
-1.700, 1.221e-2
-1.699, 1.213e-2
-1.698, 1.202e-2
-1.697, 1.192e-2
-1.696, 1.183e-2
-1.695, 1.178e-2
-1.694, 1.176e-2
-1.693, 1.170e-2
-1.692, 1.165e-2
-1.691, 1.161e-2
-1.690, 1.144e-2
-1.689, 1.138e-2
-1.688, 1.130e-2
-1.687, 1.125e-2
-1.686, 1.117e-2
-1.685, 1.108e-2
-1.684, 1.102e-2
-1.683, 1.099e-2
-1.682, 1.095e-2
-1.681, 1.083e-2
-1.680, 1.070e-2
-1.679, 1.061e-2
-1.678, 1.054e-2
-1.677, 1.051e-2
-1.676, 1.045e-2
-1.675, 1.036e-2
-1.674, 1.035e-2
-1.673, 1.026e-2
-1.672, 1.014e-2
-1.671, 9.998e-3
-1.670, 9.907e-3
-1.669, 9.816e-3
-1.668, 9.735e-3
-1.667, 9.679e-3
-1.666, 9.597e-3
-1.665, 9.491e-3
-1.664, 9.406e-3
-1.663, 9.325e-3
-1.662, 9.274e-3
-1.661, 9.200e-3
-1.660, 9.088e-3
-1.659, 8.981e-3
-1.658, 8.875e-3
-1.657, 8.798e-3
-1.656, 8.697e-3
-1.655, 8.617e-3
-1.654, 8.580e-3
-1.653, 8.510e-3
-1.652, 8.459e-3
-1.651, 8.456e-3
-1.650, 8.387e-3
-1.649, 8.320e-3
-1.648, 8.225e-3
-1.647, 8.144e-3
-1.646, 8.078e-3
-1.645, 8.053e-3
-1.644, 8.012e-3
-1.643, 7.972e-3
-1.642, 7.893e-3
-1.641, 7.818e-3
-1.640, 7.704e-3
-1.639, 7.633e-3
-1.638, 7.603e-3
-1.637, 7.566e-3
-1.636, 7.499e-3
-1.635, 7.419e-3
-1.634, 7.337e-3
-1.633, 7.213e-3
-1.632, 7.119e-3
-1.631, 7.067e-3
-1.630, 7.028e-3
-1.629, 6.942e-3
-1.628, 6.894e-3
-1.627, 6.842e-3
-1.626, 6.787e-3
-1.625, 6.716e-3
-1.624, 6.659e-3
-1.623, 6.588e-3
-1.622, 6.490e-3
-1.621, 6.404e-3
-1.620, 6.343e-3
-1.619, 6.292e-3
-1.618, 6.232e-3
-1.617, 6.173e-3
-1.616, 6.120e-3
-1.615, 6.049e-3
-1.614, 5.970e-3
-1.613, 5.895e-3
-1.612, 5.836e-3
-1.611, 5.777e-3
-1.610, 5.729e-3
-1.609, 5.668e-3
-1.608, 5.610e-3
-1.607, 5.579e-3
-1.606, 5.519e-3
-1.605, 5.447e-3
-1.604, 5.375e-3
-1.603, 5.317e-3
-1.602, 5.262e-3
-1.601, 5.233e-3
-1.600, 5.155e-3
-1.599, 5.093e-3
-1.598, 5.027e-3
-1.597, 4.966e-3
-1.596, 4.916e-3
-1.595, 4.855e-3
-1.594, 4.797e-3
-1.593, 4.745e-3
-1.592, 4.685e-3
-1.591, 4.638e-3
-1.590, 4.580e-3
-1.589, 4.510e-3
-1.588, 4.445e-3
-1.587, 4.394e-3
-1.586, 4.333e-3
-1.585, 4.275e-3
-1.584, 4.199e-3
-1.583, 4.133e-3
-1.582, 4.080e-3
-1.581, 4.032e-3
-1.580, 3.977e-3
-1.579, 3.942e-3
-1.578, 3.893e-3
-1.577, 3.850e-3
-1.576, 3.792e-3
-1.575, 3.730e-3
-1.574, 3.673e-3
-1.573, 3.627e-3
-1.572, 3.578e-3
-1.571, 3.531e-3
-1.570, 3.491e-3
-1.569, 3.437e-3
-1.568, 3.384e-3
-1.567, 3.331e-3
-1.566, 3.279e-3
-1.565, 3.226e-3
-1.564, 3.179e-3
-1.563, 3.141e-3
-1.562, 3.098e-3
-1.561, 3.051e-3
-1.560, 3.001e-3
-1.559, 2.952e-3
-1.558, 2.915e-3
-1.557, 2.874e-3
-1.556, 2.833e-3
-1.555, 2.788e-3
-1.554, 2.737e-3
-1.553, 2.686e-3
-1.552, 2.644e-3
-1.551, 2.608e-3
-1.550, 2.578e-3
-1.549, 2.541e-3
-1.548, 2.500e-3
-1.547, 2.462e-3
-1.546, 2.418e-3
-1.545, 2.373e-3
-1.544, 2.340e-3
-1.543, 2.305e-3
-1.542, 2.268e-3
-1.541, 2.228e-3
-1.540, 2.189e-3
-1.539, 2.151e-3
-1.538, 2.114e-3
-1.537, 2.080e-3
-1.536, 2.049e-3
-1.535, 2.016e-3
-1.534, 1.979e-3
-1.533, 1.947e-3
-1.532, 1.911e-3
-1.531, 1.877e-3
-1.530, 1.840e-3
-1.529, 1.809e-3
-1.528, 1.776e-3
-1.527, 1.746e-3
-1.526, 1.711e-3
-1.525, 1.678e-3
-1.524, 1.648e-3
-1.523, 1.619e-3
-1.522, 1.594e-3
-1.521, 1.562e-3
-1.520, 1.532e-3
-1.519, 1.504e-3
-1.518, 1.477e-3
-1.517, 1.447e-3
-1.516, 1.415e-3
-1.515, 1.383e-3
-1.514, 1.353e-3
-1.513, 1.327e-3
-1.512, 1.299e-3
-1.511, 1.274e-3
-1.510, 1.247e-3
-1.509, 1.222e-3
-1.508, 1.200e-3
-1.507, 1.177e-3
-1.506, 1.153e-3
-1.505, 1.128e-3
-1.504, 1.104e-3
-1.503, 1.080e-3
-1.502, 1.058e-3
-1.501, 1.035e-3
-1.500, 1.014e-3
-1.499, 9.939e-4
-1.498, 9.731e-4
-1.497, 9.528e-4
-1.496, 9.333e-4
-1.495, 9.125e-4
-1.494, 8.927e-4
-1.493, 8.743e-4
-1.492, 8.565e-4
-1.491, 8.386e-4
-1.490, 8.195e-4
-1.489, 8.012e-4
-1.488, 7.840e-4
-1.487, 7.673e-4
-1.486, 7.502e-4
-1.485, 7.331e-4
-1.484, 7.170e-4
-1.483, 7.025e-4
-1.482, 6.876e-4
-1.481, 6.722e-4
-1.480, 6.568e-4
-1.479, 6.429e-4
-1.478, 6.298e-4
-1.477, 6.167e-4
-1.476, 6.032e-4
-1.475, 5.892e-4
-1.474, 5.763e-4
-1.473, 5.636e-4
-1.472, 5.510e-4
-1.471, 5.386e-4
-1.470, 5.262e-4
-1.469, 5.144e-4
-1.468, 5.038e-4
-1.467, 4.928e-4
-1.466, 4.813e-4
-1.465, 4.699e-4
-1.464, 4.591e-4
-1.463, 4.494e-4
-1.462, 4.393e-4
-1.461, 4.295e-4
-1.460, 4.194e-4
-1.459, 4.102e-4
-1.458, 4.011e-4
-1.457, 3.923e-4
-1.456, 3.829e-4
-1.455, 3.737e-4
-1.454, 3.653e-4
-1.453, 3.574e-4
-1.452, 3.495e-4
-1.451, 3.415e-4
-1.450, 3.334e-4
-1.449, 3.259e-4
-1.448, 3.189e-4
-1.447, 3.117e-4
-1.446, 3.041e-4
-1.445, 2.966e-4
-1.444, 2.900e-4
-1.443, 2.838e-4
-1.442, 2.774e-4
-1.441, 2.707e-4
-1.440, 2.642e-4
-1.439, 2.582e-4
-1.438, 2.526e-4
-1.437, 2.468e-4
-1.436, 2.409e-4
-1.435, 2.350e-4
-1.434, 2.297e-4
-1.433, 2.247e-4
-1.432, 2.196e-4
-1.431, 2.144e-4
-1.430, 2.092e-4
-1.429, 2.045e-4
-1.428, 2.002e-4
-1.427, 1.957e-4
-1.426, 1.907e-4
-1.425, 1.861e-4
-1.424, 1.820e-4
-1.423, 1.782e-4
-1.422, 1.739e-4
-1.421, 1.697e-4
-1.420, 1.654e-4
-1.419, 1.618e-4
-1.418, 1.585e-4
-1.417, 1.546e-4
-1.416, 1.508e-4
-1.415, 1.470e-4
-1.414, 1.439e-4
-1.413, 1.409e-4
-1.412, 1.374e-4
-1.411, 1.340e-4
-1.410, 1.307e-4
-1.409, 1.279e-4
-1.408, 1.251e-4
-1.407, 1.221e-4
-1.406, 1.191e-4
-1.405, 1.162e-4
-1.404, 1.138e-4
-1.403, 1.116e-4
-1.402, 1.089e-4
-1.401, 1.060e-4
-1.400, 1.036e-4
-1.399, 1.014e-4
-1.398, 9.930e-5
-1.397, 9.688e-5
-1.396, 9.425e-5
-1.395, 9.182e-5
-1.394, 9.004e-5
-1.393, 8.815e-5
-1.392, 8.594e-5
-1.391, 8.370e-5
-1.390, 8.159e-5
-1.389, 7.994e-5
-1.388, 7.842e-5
-1.387, 7.647e-5
-1.386, 7.441e-5
-1.385, 7.249e-5
-1.384, 7.118e-5
-1.383, 6.976e-5
-1.382, 6.788e-5
-1.381, 6.603e-5
-1.380, 6.429e-5
-1.379, 6.315e-5
-1.378, 6.183e-5
-1.377, 6.029e-5
-1.376, 5.862e-5
-1.375, 5.720e-5
-1.374, 5.617e-5
-1.373, 5.506e-5
-1.372, 5.375e-5
-1.371, 5.208e-5
-1.370, 5.067e-5
-1.369, 4.982e-5
-1.368, 4.888e-5
-1.367, 4.758e-5
-1.366, 4.614e-5
-1.365, 4.493e-5
-1.364, 4.423e-5
-1.363, 4.327e-5
-1.362, 4.217e-5
-1.361, 4.090e-5
-1.360, 3.980e-5
-1.359, 3.923e-5
-1.358, 3.844e-5
-1.357, 3.733e-5
-1.356, 3.607e-5
-1.355, 3.513e-5
-1.354, 3.469e-5
-1.353, 3.410e-5
-1.352, 3.319e-5
-1.351, 3.192e-5
-1.350, 3.107e-5
-1.349, 3.077e-5
-1.348, 3.017e-5
-1.347, 2.919e-5
-1.346, 2.818e-5
-1.345, 2.739e-5
-1.344, 2.718e-5
-1.343, 2.664e-5
-1.342, 2.570e-5
-1.341, 2.478e-5
-1.340, 2.410e-5
-1.339, 2.388e-5
-1.338, 2.347e-5
-1.337, 2.253e-5
-1.336, 2.183e-5
-1.335, 2.120e-5
-1.334, 2.108e-5
-1.333, 2.071e-5
-1.332, 1.997e-5
-1.331, 1.911e-5
-1.330, 1.855e-5
-1.329, 1.842e-5
-1.328, 1.819e-5
-1.327, 1.746e-5
-1.326, 1.670e-5
-1.325, 1.620e-5
-1.324, 1.621e-5
-1.323, 1.594e-5
-1.322, 1.531e-5
-1.321, 1.456e-5
-1.320, 1.413e-5
-1.319, 1.415e-5
-1.318, 1.397e-5
-1.317, 1.341e-5
-1.316, 1.272e-5
-1.315, 1.224e-5
-1.314, 1.240e-5
-1.313, 1.224e-5
-1.312, 1.176e-5
-1.311, 1.102e-5
-1.310, 1.068e-5
-1.309, 1.083e-5
-1.308, 1.067e-5
-1.307, 1.010e-5
-1.306, 9.538e-6
-1.305, 9.193e-6
-1.304, 9.341e-6
-1.303, 9.252e-6
-1.302, 8.660e-6
-1.301, 8.157e-6
-1.300, 7.911e-6
-1.299, 8.098e-6
-1.298, 7.999e-6
-1.297, 7.486e-6
-1.296, 7.003e-6
-1.295, 6.638e-6
-1.294, 6.973e-6
-1.293, 6.924e-6
-1.292, 6.421e-6
-1.291, 5.888e-6
-1.290, 5.691e-6
-1.289, 5.927e-6
-1.288, 5.898e-6
-1.287, 5.434e-6
-1.286, 4.931e-6
-1.285, 4.704e-6
-1.284, 5.010e-6
-1.283, 4.921e-6
-1.282, 4.556e-6
-1.281, 4.043e-6
-1.280, 3.846e-6
-1.279, 4.142e-6
-1.278, 4.132e-6
-1.277, 3.826e-6
-1.276, 3.155e-6
-1.275, 3.126e-6
-1.274, 3.402e-6
-1.273, 3.323e-6
-1.272, 2.978e-6
-1.271, 2.405e-6
-1.270, 2.346e-6
-1.269, 2.839e-6
-1.268, 2.820e-6
-1.267, 2.247e-6
-1.266, 1.774e-6
-1.265, 1.705e-6
-1.264, 2.198e-6
-1.263, 2.109e-6
-1.262, 1.734e-6
-1.261, 1.300e-6
-1.260, 1.182e-6
-1.259, 1.547e-6
-1.258, 1.606e-6
-1.257, 1.162e-6
-1.256, 7.084e-7
-1.255, 6.886e-7
-1.254, 9.846e-7
-1.253, 1.073e-6
-1.252, 7.774e-7
-1.251, 1.460e-7
-1.250, 2.151e-7
-1.249, 5.308e-7
-1.248, 6.788e-7
-1.247, 2.052e-7
-1.246, -2.585e-7
-1.245, -2.190e-7
-1.244, 1.657e-7
-1.243, 2.841e-7
-1.242, -1.796e-7
-1.241, -6.038e-7
-1.240, -6.531e-7
-1.239, -1.105e-7
-1.238, -1.204e-7
-1.237, -4.953e-7
-1.236, -9.787e-7
-1.235, -9.787e-7
-1.234, -3.966e-7
-1.233, -3.769e-7
-1.232, -8.702e-7
-1.231, -1.186e-6
-1.230, -1.196e-6
-1.229, -8.504e-7
-1.228, -9.688e-7
-1.227, -1.245e-6
-1.226, -1.620e-6
-1.225, -1.630e-6
-1.224, -1.156e-6
-1.223, -9.984e-7
-1.222, -1.492e-6
-1.221, -1.857e-6
-1.220, -1.847e-6
-1.219, -1.383e-6
-1.218, -1.235e-6
-1.217, -1.768e-6
-1.216, -2.103e-6
-1.215, -2.163e-6
-1.214, -1.600e-6
-1.213, -1.502e-6
-1.212, -1.975e-6
-1.211, -2.320e-6
-1.210, -2.232e-6
-1.209, -1.768e-6
-1.208, -1.709e-6
-1.207, -2.133e-6
-1.206, -2.518e-6
-1.205, -2.409e-6
-1.204, -1.946e-6
-1.203, -2.015e-6
-1.202, -2.320e-6
-1.201, -2.735e-6
-1.200, -2.587e-6
-1.199, -2.094e-6
-1.198, -2.143e-6
-1.197, -2.518e-6
-1.196, -2.942e-6
-1.195, -2.814e-6
-1.194, -2.301e-6
-1.193, -2.202e-6
-1.192, -2.607e-6
-1.191, -3.120e-6
-1.190, -3.011e-6
-1.189, -2.459e-6
-1.188, -2.429e-6
-1.187, -2.755e-6
-1.186, -3.228e-6
-1.185, -3.120e-6
-1.184, -2.528e-6
-1.183, -2.439e-6
-1.182, -2.883e-6
-1.181, -3.366e-6
-1.180, -3.110e-6
-1.179, -2.646e-6
-1.178, -2.695e-6
-1.177, -3.041e-6
-1.176, -3.416e-6
-1.175, -3.208e-6
-1.174, -2.843e-6
-1.173, -2.764e-6
-1.172, -3.051e-6
-1.171, -3.534e-6
-1.170, -3.297e-6
-1.169, -2.883e-6
-1.168, -2.834e-6
-1.167, -3.258e-6
-1.166, -3.554e-6
-1.165, -3.495e-6
-1.164, -2.981e-6
-1.163, -2.981e-6
-1.162, -3.268e-6
-1.161, -3.731e-6
-1.160, -3.504e-6
-1.159, -3.110e-6
-1.158, -2.972e-6
-1.157, -3.376e-6
-1.156, -3.741e-6
-1.155, -3.623e-6
-1.154, -3.070e-6
-1.153, -3.031e-6
-1.152, -3.643e-6
-1.151, -3.909e-6
-1.150, -3.702e-6
-1.149, -3.149e-6
-1.148, -3.139e-6
-1.147, -3.583e-6
-1.146, -3.968e-6
-1.145, -3.712e-6
-1.144, -3.277e-6
-1.143, -3.189e-6
-1.142, -3.633e-6
-1.141, -4.017e-6
-1.140, -3.771e-6
-1.139, -3.396e-6
-1.138, -3.317e-6
-1.137, -3.633e-6
-1.136, -4.106e-6
-1.135, -3.889e-6
-1.134, -3.317e-6
-1.133, -3.376e-6
-1.132, -3.860e-6
-1.131, -4.175e-6
-1.130, -4.017e-6
-1.129, -3.544e-6
-1.128, -3.386e-6
-1.127, -3.919e-6
-1.126, -4.412e-6
-1.125, -3.998e-6
-1.124, -3.504e-6
-1.123, -3.554e-6
-1.122, -4.027e-6
-1.121, -4.373e-6
-1.120, -4.067e-6
-1.119, -3.445e-6
-1.118, -3.623e-6
-1.117, -3.988e-6
-1.116, -4.461e-6
-1.115, -4.067e-6
-1.114, -3.652e-6
-1.113, -3.731e-6
-1.112, -4.195e-6
-1.111, -4.511e-6
-1.110, -4.274e-6
-1.109, -3.781e-6
-1.108, -3.633e-6
-1.107, -4.234e-6
-1.106, -4.600e-6
-1.105, -4.343e-6
-1.104, -3.790e-6
-1.103, -3.820e-6
-1.102, -4.363e-6
-1.101, -4.817e-6
-1.100, -4.471e-6
-1.099, -3.978e-6
-1.098, -3.998e-6
-1.097, -4.432e-6
-1.096, -4.797e-6
-1.095, -4.530e-6
-1.094, -4.096e-6
-1.093, -4.116e-6
-1.092, -4.560e-6
-1.091, -4.895e-6
-1.090, -4.649e-6
-1.089, -4.175e-6
-1.088, -4.185e-6
-1.087, -4.738e-6
-1.086, -5.034e-6
-1.085, -4.747e-6
-1.084, -4.333e-6
-1.083, -4.195e-6
-1.082, -4.698e-6
-1.081, -5.251e-6
-1.080, -4.836e-6
-1.079, -4.304e-6
-1.078, -4.392e-6
-1.077, -4.915e-6
-1.076, -5.310e-6
-1.075, -5.103e-6
-1.074, -4.432e-6
-1.073, -4.570e-6
-1.072, -5.053e-6
-1.071, -5.379e-6
-1.070, -5.122e-6
-1.069, -4.600e-6
-1.068, -4.698e-6
-1.067, -5.201e-6
-1.066, -5.487e-6
-1.065, -5.310e-6
-1.064, -4.590e-6
-1.063, -4.708e-6
-1.062, -5.310e-6
-1.061, -5.655e-6
-1.060, -5.330e-6
-1.059, -4.787e-6
-1.058, -4.984e-6
-1.057, -5.507e-6
-1.056, -5.774e-6
-1.055, -5.458e-6
-1.054, -4.935e-6
-1.053, -5.034e-6
-1.052, -5.626e-6
-1.051, -5.991e-6
-1.050, -5.704e-6
-1.049, -5.182e-6
-1.048, -5.261e-6
-1.047, -5.823e-6
-1.046, -6.119e-6
-1.045, -5.823e-6
-1.044, -5.300e-6
-1.043, -5.399e-6
-1.042, -6.030e-6
-1.041, -6.336e-6
-1.040, -5.961e-6
-1.039, -5.537e-6
-1.038, -5.566e-6
-1.037, -6.208e-6
-1.036, -6.514e-6
-1.035, -6.198e-6
-1.034, -5.645e-6
-1.033, -5.774e-6
-1.032, -6.316e-6
-1.031, -6.701e-6
-1.030, -6.435e-6
-1.029, -5.862e-6
-1.028, -6.040e-6
-1.027, -6.543e-6
-1.026, -6.888e-6
-1.025, -6.612e-6
-1.024, -6.227e-6
-1.023, -6.218e-6
-1.022, -6.869e-6
-1.021, -7.125e-6
-1.020, -6.928e-6
-1.019, -6.346e-6
-1.018, -6.494e-6
-1.017, -7.096e-6
-1.016, -7.392e-6
-1.015, -7.096e-6
-1.014, -6.602e-6
-1.013, -6.691e-6
-1.012, -7.303e-6
-1.011, -7.737e-6
-1.010, -7.332e-6
-1.009, -6.839e-6
-1.008, -6.938e-6
-1.007, -7.510e-6
-1.006, -7.875e-6
-1.005, -7.569e-6
-1.004, -7.066e-6
-1.003, -7.184e-6
-1.002, -7.826e-6
-1.001, -8.220e-6
