Apr. 2, 2025   16:57:50
Linear Sweep Voltammetry
File: c:/users/guazh/data/banditlqround7_x0exp518_r20/2025-03-28-exp1021\regeneratedgce-2025-04-02t16_54_48-lsvinkoh\regeneratedgce_lsv_50mvs_efin_-1700mv.bin
Data Source:  Experiment
Instrument Model:  CHI760E
Header: LSV ran at 50 mVs with Efin at -1700mV
Note: 

Init E (V) = -0.6
Final E (V) = -1.7
Scan Rate (V/s) = 0.05
Sample Interval (V) = 0.001
Quiet Time (sec) = 2
Sensitivity (A/V) = 1e-4
Comp R (ohm) = 1.8

Results:

Channel 1:

Potential/V, Current/A

-0.600, 7.004e-7
-0.601, 8.402e-7
-0.602, 8.715e-7
-0.603, 8.854e-7
-0.604, 8.956e-7
-0.605, 9.039e-7
-0.606, 9.150e-7
-0.607, 9.222e-7
-0.608, 9.289e-7
-0.609, 9.366e-7
-0.610, 9.409e-7
-0.611, 9.470e-7
-0.612, 9.537e-7
-0.613, 9.573e-7
-0.614, 9.637e-7
-0.615, 9.677e-7
-0.616, 9.748e-7
-0.617, 9.802e-7
-0.618, 9.811e-7
-0.619, 9.861e-7
-0.620, 9.903e-7
-0.621, 9.951e-7
-0.622, 9.996e-7
-0.623, 1.002e-6
-0.624, 1.007e-6
-0.625, 1.010e-6
-0.626, 1.016e-6
-0.627, 1.019e-6
-0.628, 1.021e-6
-0.629, 1.025e-6
-0.630, 1.030e-6
-0.631, 1.034e-6
-0.632, 1.036e-6
-0.633, 1.040e-6
-0.634, 1.044e-6
-0.635, 1.048e-6
-0.636, 1.053e-6
-0.637, 1.054e-6
-0.638, 1.058e-6
-0.639, 1.059e-6
-0.640, 1.064e-6
-0.641, 1.068e-6
-0.642, 1.071e-6
-0.643, 1.073e-6
-0.644, 1.077e-6
-0.645, 1.079e-6
-0.646, 1.085e-6
-0.647, 1.088e-6
-0.648, 1.090e-6
-0.649, 1.093e-6
-0.650, 1.096e-6
-0.651, 1.101e-6
-0.652, 1.105e-6
-0.653, 1.104e-6
-0.654, 1.108e-6
-0.655, 1.111e-6
-0.656, 1.115e-6
-0.657, 1.118e-6
-0.658, 1.119e-6
-0.659, 1.123e-6
-0.660, 1.124e-6
-0.661, 1.129e-6
-0.662, 1.133e-6
-0.663, 1.134e-6
-0.664, 1.137e-6
-0.665, 1.139e-6
-0.666, 1.145e-6
-0.667, 1.146e-6
-0.668, 1.148e-6
-0.669, 1.149e-6
-0.670, 1.153e-6
-0.671, 1.157e-6
-0.672, 1.160e-6
-0.673, 1.162e-6
-0.674, 1.164e-6
-0.675, 1.165e-6
-0.676, 1.170e-6
-0.677, 1.172e-6
-0.678, 1.175e-6
-0.679, 1.177e-6
-0.680, 1.180e-6
-0.681, 1.185e-6
-0.682, 1.187e-6
-0.683, 1.188e-6
-0.684, 1.190e-6
-0.685, 1.191e-6
-0.686, 1.196e-6
-0.687, 1.199e-6
-0.688, 1.201e-6
-0.689, 1.205e-6
-0.690, 1.205e-6
-0.691, 1.210e-6
-0.692, 1.213e-6
-0.693, 1.213e-6
-0.694, 1.217e-6
-0.695, 1.218e-6
-0.696, 1.223e-6
-0.697, 1.227e-6
-0.698, 1.227e-6
-0.699, 1.230e-6
-0.700, 1.231e-6
-0.701, 1.233e-6
-0.702, 1.238e-6
-0.703, 1.240e-6
-0.704, 1.241e-6
-0.705, 1.243e-6
-0.706, 1.246e-6
-0.707, 1.250e-6
-0.708, 1.251e-6
-0.709, 1.252e-6
-0.710, 1.254e-6
-0.711, 1.258e-6
-0.712, 1.261e-6
-0.713, 1.263e-6
-0.714, 1.263e-6
-0.715, 1.266e-6
-0.716, 1.270e-6
-0.717, 1.275e-6
-0.718, 1.275e-6
-0.719, 1.277e-6
-0.720, 1.281e-6
-0.721, 1.287e-6
-0.722, 1.290e-6
-0.723, 1.290e-6
-0.724, 1.293e-6
-0.725, 1.293e-6
-0.726, 1.296e-6
-0.727, 1.300e-6
-0.728, 1.301e-6
-0.729, 1.305e-6
-0.730, 1.306e-6
-0.731, 1.311e-6
-0.732, 1.314e-6
-0.733, 1.314e-6
-0.734, 1.317e-6
-0.735, 1.317e-6
-0.736, 1.321e-6
-0.737, 1.326e-6
-0.738, 1.326e-6
-0.739, 1.329e-6
-0.740, 1.331e-6
-0.741, 1.334e-6
-0.742, 1.339e-6
-0.743, 1.340e-6
-0.744, 1.340e-6
-0.745, 1.344e-6
-0.746, 1.345e-6
-0.747, 1.350e-6
-0.748, 1.351e-6
-0.749, 1.351e-6
-0.750, 1.353e-6
-0.751, 1.357e-6
-0.752, 1.361e-6
-0.753, 1.363e-6
-0.754, 1.364e-6
-0.755, 1.367e-6
-0.756, 1.371e-6
-0.757, 1.373e-6
-0.758, 1.375e-6
-0.759, 1.376e-6
-0.760, 1.378e-6
-0.761, 1.382e-6
-0.762, 1.385e-6
-0.763, 1.385e-6
-0.764, 1.388e-6
-0.765, 1.390e-6
-0.766, 1.392e-6
-0.767, 1.396e-6
-0.768, 1.400e-6
-0.769, 1.402e-6
-0.770, 1.400e-6
-0.771, 1.404e-6
-0.772, 1.408e-6
-0.773, 1.408e-6
-0.774, 1.411e-6
-0.775, 1.411e-6
-0.776, 1.415e-6
-0.777, 1.419e-6
-0.778, 1.419e-6
-0.779, 1.420e-6
-0.780, 1.422e-6
-0.781, 1.426e-6
-0.782, 1.431e-6
-0.783, 1.432e-6
-0.784, 1.432e-6
-0.785, 1.436e-6
-0.786, 1.437e-6
-0.787, 1.442e-6
-0.788, 1.443e-6
-0.789, 1.444e-6
-0.790, 1.447e-6
-0.791, 1.450e-6
-0.792, 1.453e-6
-0.793, 1.456e-6
-0.794, 1.457e-6
-0.795, 1.459e-6
-0.796, 1.463e-6
-0.797, 1.466e-6
-0.798, 1.468e-6
-0.799, 1.468e-6
-0.800, 1.470e-6
-0.801, 1.475e-6
-0.802, 1.475e-6
-0.803, 1.479e-6
-0.804, 1.481e-6
-0.805, 1.482e-6
-0.806, 1.486e-6
-0.807, 1.489e-6
-0.808, 1.491e-6
-0.809, 1.492e-6
-0.810, 1.492e-6
-0.811, 1.497e-6
-0.812, 1.501e-6
-0.813, 1.502e-6
-0.814, 1.504e-6
-0.815, 1.505e-6
-0.816, 1.508e-6
-0.817, 1.515e-6
-0.818, 1.514e-6
-0.819, 1.521e-6
-0.820, 1.523e-6
-0.821, 1.524e-6
-0.822, 1.528e-6
-0.823, 1.528e-6
-0.824, 1.529e-6
-0.825, 1.534e-6
-0.826, 1.536e-6
-0.827, 1.539e-6
-0.828, 1.542e-6
-0.829, 1.543e-6
-0.830, 1.545e-6
-0.831, 1.549e-6
-0.832, 1.555e-6
-0.833, 1.560e-6
-0.834, 1.559e-6
-0.835, 1.563e-6
-0.836, 1.563e-6
-0.837, 1.567e-6
-0.838, 1.568e-6
-0.839, 1.569e-6
-0.840, 1.571e-6
-0.841, 1.576e-6
-0.842, 1.579e-6
-0.843, 1.582e-6
-0.844, 1.583e-6
-0.845, 1.586e-6
-0.846, 1.590e-6
-0.847, 1.592e-6
-0.848, 1.594e-6
-0.849, 1.597e-6
-0.850, 1.598e-6
-0.851, 1.602e-6
-0.852, 1.606e-6
-0.853, 1.608e-6
-0.854, 1.611e-6
-0.855, 1.610e-6
-0.856, 1.613e-6
-0.857, 1.619e-6
-0.858, 1.621e-6
-0.859, 1.622e-6
-0.860, 1.625e-6
-0.861, 1.627e-6
-0.862, 1.634e-6
-0.863, 1.634e-6
-0.864, 1.635e-6
-0.865, 1.639e-6
-0.866, 1.641e-6
-0.867, 1.646e-6
-0.868, 1.647e-6
-0.869, 1.647e-6
-0.870, 1.653e-6
-0.871, 1.658e-6
-0.872, 1.660e-6
-0.873, 1.661e-6
-0.874, 1.663e-6
-0.875, 1.665e-6
-0.876, 1.669e-6
-0.877, 1.672e-6
-0.878, 1.676e-6
-0.879, 1.676e-6
-0.880, 1.679e-6
-0.881, 1.682e-6
-0.882, 1.684e-6
-0.883, 1.690e-6
-0.884, 1.691e-6
-0.885, 1.693e-6
-0.886, 1.697e-6
-0.887, 1.701e-6
-0.888, 1.704e-6
-0.889, 1.706e-6
-0.890, 1.709e-6
-0.891, 1.713e-6
-0.892, 1.718e-6
-0.893, 1.718e-6
-0.894, 1.721e-6
-0.895, 1.721e-6
-0.896, 1.726e-6
-0.897, 1.731e-6
-0.898, 1.731e-6
-0.899, 1.734e-6
-0.900, 1.738e-6
-0.901, 1.741e-6
-0.902, 1.746e-6
-0.903, 1.748e-6
-0.904, 1.749e-6
-0.905, 1.752e-6
-0.906, 1.754e-6
-0.907, 1.759e-6
-0.908, 1.760e-6
-0.909, 1.764e-6
-0.910, 1.767e-6
-0.911, 1.770e-6
-0.912, 1.775e-6
-0.913, 1.777e-6
-0.914, 1.777e-6
-0.915, 1.780e-6
-0.916, 1.784e-6
-0.917, 1.787e-6
-0.918, 1.792e-6
-0.919, 1.793e-6
-0.920, 1.796e-6
-0.921, 1.800e-6
-0.922, 1.804e-6
-0.923, 1.806e-6
-0.924, 1.807e-6
-0.925, 1.809e-6
-0.926, 1.816e-6
-0.927, 1.821e-6
-0.928, 1.824e-6
-0.929, 1.826e-6
-0.930, 1.827e-6
-0.931, 1.832e-6
-0.932, 1.836e-6
-0.933, 1.838e-6
-0.934, 1.842e-6
-0.935, 1.845e-6
-0.936, 1.848e-6
-0.937, 1.853e-6
-0.938, 1.856e-6
-0.939, 1.858e-6
-0.940, 1.860e-6
-0.941, 1.863e-6
-0.942, 1.869e-6
-0.943, 1.872e-6
-0.944, 1.873e-6
-0.945, 1.877e-6
-0.946, 1.878e-6
-0.947, 1.884e-6
-0.948, 1.888e-6
-0.949, 1.888e-6
-0.950, 1.893e-6
-0.951, 1.895e-6
-0.952, 1.900e-6
-0.953, 1.903e-6
-0.954, 1.903e-6
-0.955, 1.909e-6
-0.956, 1.912e-6
-0.957, 1.916e-6
-0.958, 1.919e-6
-0.959, 1.920e-6
-0.960, 1.923e-6
-0.961, 1.926e-6
-0.962, 1.931e-6
-0.963, 1.934e-6
-0.964, 1.935e-6
-0.965, 1.939e-6
-0.966, 1.944e-6
-0.967, 1.947e-6
-0.968, 1.950e-6
-0.969, 1.954e-6
-0.970, 1.954e-6
-0.971, 1.959e-6
-0.972, 1.964e-6
-0.973, 1.970e-6
-0.974, 1.970e-6
-0.975, 1.973e-6
-0.976, 1.976e-6
-0.977, 1.984e-6
-0.978, 1.986e-6
-0.979, 1.986e-6
-0.980, 1.990e-6
-0.981, 1.993e-6
-0.982, 1.999e-6
-0.983, 2.003e-6
-0.984, 2.004e-6
-0.985, 2.009e-6
-0.986, 2.012e-6
-0.987, 2.019e-6
-0.988, 2.022e-6
-0.989, 2.023e-6
-0.990, 2.026e-6
-0.991, 2.030e-6
-0.992, 2.035e-6
-0.993, 2.040e-6
-0.994, 2.041e-6
-0.995, 2.045e-6
-0.996, 2.049e-6
-0.997, 2.054e-6
-0.998, 2.058e-6
-0.999, 2.061e-6
-1.000, 2.064e-6
-1.001, 2.069e-6
-1.002, 2.074e-6
-1.003, 2.077e-6
-1.004, 2.080e-6
-1.005, 2.084e-6
-1.006, 2.090e-6
-1.007, 2.093e-6
-1.008, 2.097e-6
-1.009, 2.101e-6
-1.010, 2.104e-6
-1.011, 2.109e-6
-1.012, 2.115e-6
-1.013, 2.118e-6
-1.014, 2.121e-6
-1.015, 2.122e-6
-1.016, 2.127e-6
-1.017, 2.133e-6
-1.018, 2.135e-6
-1.019, 2.140e-6
-1.020, 2.144e-6
-1.021, 2.146e-6
-1.022, 2.154e-6
-1.023, 2.156e-6
-1.024, 2.161e-6
-1.025, 2.164e-6
-1.026, 2.167e-6
-1.027, 2.174e-6
-1.028, 2.178e-6
-1.029, 2.180e-6
-1.030, 2.182e-6
-1.031, 2.186e-6
-1.032, 2.191e-6
-1.033, 2.196e-6
-1.034, 2.197e-6
-1.035, 2.202e-6
-1.036, 2.206e-6
-1.037, 2.211e-6
-1.038, 2.216e-6
-1.039, 2.218e-6
-1.040, 2.221e-6
-1.041, 2.225e-6
-1.042, 2.230e-6
-1.043, 2.235e-6
-1.044, 2.238e-6
-1.045, 2.243e-6
-1.046, 2.248e-6
-1.047, 2.251e-6
-1.048, 2.256e-6
-1.049, 2.260e-6
-1.050, 2.261e-6
-1.051, 2.265e-6
-1.052, 2.272e-6
-1.053, 2.276e-6
-1.054, 2.280e-6
-1.055, 2.282e-6
-1.056, 2.284e-6
-1.057, 2.291e-6
-1.058, 2.293e-6
-1.059, 2.297e-6
-1.060, 2.300e-6
-1.061, 2.303e-6
-1.062, 2.310e-6
-1.063, 2.315e-6
-1.064, 2.318e-6
-1.065, 2.323e-6
-1.066, 2.324e-6
-1.067, 2.330e-6
-1.068, 2.335e-6
-1.069, 2.336e-6
-1.070, 2.343e-6
-1.071, 2.346e-6
-1.072, 2.351e-6
-1.073, 2.356e-6
-1.074, 2.356e-6
-1.075, 2.364e-6
-1.076, 2.368e-6
-1.077, 2.374e-6
-1.078, 2.380e-6
-1.079, 2.383e-6
-1.080, 2.385e-6
-1.081, 2.388e-6
-1.082, 2.392e-6
-1.083, 2.398e-6
-1.084, 2.401e-6
-1.085, 2.403e-6
-1.086, 2.407e-6
-1.087, 2.413e-6
-1.088, 2.419e-6
-1.089, 2.422e-6
-1.090, 2.423e-6
-1.091, 2.428e-6
-1.092, 2.433e-6
-1.093, 2.437e-6
-1.094, 2.440e-6
-1.095, 2.443e-6
-1.096, 2.445e-6
-1.097, 2.452e-6
-1.098, 2.456e-6
-1.099, 2.460e-6
-1.100, 2.463e-6
-1.101, 2.467e-6
-1.102, 2.473e-6
-1.103, 2.477e-6
-1.104, 2.478e-6
-1.105, 2.481e-6
-1.106, 2.483e-6
-1.107, 2.491e-6
-1.108, 2.497e-6
-1.109, 2.500e-6
-1.110, 2.504e-6
-1.111, 2.506e-6
-1.112, 2.511e-6
-1.113, 2.517e-6
-1.114, 2.519e-6
-1.115, 2.523e-6
-1.116, 2.526e-6
-1.117, 2.530e-6
-1.118, 2.539e-6
-1.119, 2.540e-6
-1.120, 2.544e-6
-1.121, 2.547e-6
-1.122, 2.552e-6
-1.123, 2.558e-6
-1.124, 2.562e-6
-1.125, 2.565e-6
-1.126, 2.568e-6
-1.127, 2.574e-6
-1.128, 2.580e-6
-1.129, 2.582e-6
-1.130, 2.584e-6
-1.131, 2.589e-6
-1.132, 2.594e-6
-1.133, 2.599e-6
-1.134, 2.601e-6
-1.135, 2.604e-6
-1.136, 2.608e-6
-1.137, 2.614e-6
-1.138, 2.619e-6
-1.139, 2.623e-6
-1.140, 2.626e-6
-1.141, 2.628e-6
-1.142, 2.634e-6
-1.143, 2.640e-6
-1.144, 2.641e-6
-1.145, 2.644e-6
-1.146, 2.646e-6
-1.147, 2.654e-6
-1.148, 2.659e-6
-1.149, 2.661e-6
-1.150, 2.664e-6
-1.151, 2.666e-6
-1.152, 2.673e-6
-1.153, 2.678e-6
-1.154, 2.680e-6
-1.155, 2.684e-6
-1.156, 2.686e-6
-1.157, 2.691e-6
-1.158, 2.699e-6
-1.159, 2.702e-6
-1.160, 2.705e-6
-1.161, 2.706e-6
-1.162, 2.711e-6
-1.163, 2.716e-6
-1.164, 2.719e-6
-1.165, 2.722e-6
-1.166, 2.727e-6
-1.167, 2.730e-6
-1.168, 2.734e-6
-1.169, 2.738e-6
-1.170, 2.740e-6
-1.171, 2.744e-6
-1.172, 2.749e-6
-1.173, 2.752e-6
-1.174, 2.756e-6
-1.175, 2.757e-6
-1.176, 2.761e-6
-1.177, 2.768e-6
-1.178, 2.776e-6
-1.179, 2.777e-6
-1.180, 2.779e-6
-1.181, 2.782e-6
-1.182, 2.787e-6
-1.183, 2.789e-6
-1.184, 2.792e-6
-1.185, 2.795e-6
-1.186, 2.798e-6
-1.187, 2.802e-6
-1.188, 2.808e-6
-1.189, 2.810e-6
-1.190, 2.816e-6
-1.191, 2.817e-6
-1.192, 2.822e-6
-1.193, 2.829e-6
-1.194, 2.828e-6
-1.195, 2.831e-6
-1.196, 2.834e-6
-1.197, 2.839e-6
-1.198, 2.846e-6
-1.199, 2.850e-6
-1.200, 2.851e-6
-1.201, 2.854e-6
-1.202, 2.857e-6
-1.203, 2.866e-6
-1.204, 2.867e-6
-1.205, 2.868e-6
-1.206, 2.873e-6
-1.207, 2.875e-6
-1.208, 2.881e-6
-1.209, 2.884e-6
-1.210, 2.887e-6
-1.211, 2.889e-6
-1.212, 2.894e-6
-1.213, 2.898e-6
-1.214, 2.903e-6
-1.215, 2.905e-6
-1.216, 2.908e-6
-1.217, 2.914e-6
-1.218, 2.918e-6
-1.219, 2.923e-6
-1.220, 2.925e-6
-1.221, 2.927e-6
-1.222, 2.934e-6
-1.223, 2.938e-6
-1.224, 2.940e-6
-1.225, 2.943e-6
-1.226, 2.945e-6
-1.227, 2.949e-6
-1.228, 2.957e-6
-1.229, 2.967e-6
-1.230, 2.967e-6
-1.231, 2.967e-6
-1.232, 2.972e-6
-1.233, 2.976e-6
-1.234, 2.977e-6
-1.235, 2.981e-6
-1.236, 2.984e-6
-1.237, 2.987e-6
-1.238, 2.996e-6
-1.239, 2.997e-6
-1.240, 2.999e-6
-1.241, 3.003e-6
-1.242, 3.006e-6
-1.243, 3.011e-6
-1.244, 3.017e-6
-1.245, 3.016e-6
-1.246, 3.020e-6
-1.247, 3.024e-6
-1.248, 3.031e-6
-1.249, 3.034e-6
-1.250, 3.034e-6
-1.251, 3.039e-6
-1.252, 3.043e-6
-1.253, 3.049e-6
-1.254, 3.052e-6
-1.255, 3.056e-6
-1.256, 3.057e-6
-1.257, 3.065e-6
-1.258, 3.069e-6
-1.259, 3.071e-6
-1.260, 3.075e-6
-1.261, 3.076e-6
-1.262, 3.082e-6
-1.263, 3.086e-6
-1.264, 3.090e-6
-1.265, 3.092e-6
-1.266, 3.092e-6
-1.267, 3.100e-6
-1.268, 3.107e-6
-1.269, 3.110e-6
-1.270, 3.113e-6
-1.271, 3.114e-6
-1.272, 3.118e-6
-1.273, 3.124e-6
-1.274, 3.128e-6
-1.275, 3.131e-6
-1.276, 3.135e-6
-1.277, 3.139e-6
-1.278, 3.145e-6
-1.279, 3.147e-6
-1.280, 3.154e-6
-1.281, 3.157e-6
-1.282, 3.158e-6
-1.283, 3.165e-6
-1.284, 3.169e-6
-1.285, 3.169e-6
-1.286, 3.172e-6
-1.287, 3.177e-6
-1.288, 3.183e-6
-1.289, 3.189e-6
-1.290, 3.189e-6
-1.291, 3.193e-6
-1.292, 3.198e-6
-1.293, 3.203e-6
-1.294, 3.209e-6
-1.295, 3.210e-6
-1.296, 3.211e-6
-1.297, 3.217e-6
-1.298, 3.222e-6
-1.299, 3.229e-6
-1.300, 3.233e-6
-1.301, 3.238e-6
-1.302, 3.244e-6
-1.303, 3.247e-6
-1.304, 3.249e-6
-1.305, 3.249e-6
-1.306, 3.251e-6
-1.307, 3.255e-6
-1.308, 3.263e-6
-1.309, 3.266e-6
-1.310, 3.272e-6
-1.311, 3.274e-6
-1.312, 3.279e-6
-1.313, 3.284e-6
-1.314, 3.286e-6
-1.315, 3.290e-6
-1.316, 3.293e-6
-1.317, 3.295e-6
-1.318, 3.305e-6
-1.319, 3.308e-6
-1.320, 3.312e-6
-1.321, 3.317e-6
-1.322, 3.319e-6
-1.323, 3.325e-6
-1.324, 3.331e-6
-1.325, 3.333e-6
-1.326, 3.338e-6
-1.327, 3.343e-6
-1.328, 3.351e-6
-1.329, 3.356e-6
-1.330, 3.358e-6
-1.331, 3.364e-6
-1.332, 3.370e-6
-1.333, 3.375e-6
-1.334, 3.380e-6
-1.335, 3.382e-6
-1.336, 3.389e-6
-1.337, 3.396e-6
-1.338, 3.401e-6
-1.339, 3.409e-6
-1.340, 3.412e-6
-1.341, 3.416e-6
-1.342, 3.422e-6
-1.343, 3.427e-6
-1.344, 3.435e-6
-1.345, 3.439e-6
-1.346, 3.442e-6
-1.347, 3.448e-6
-1.348, 3.455e-6
-1.349, 3.461e-6
-1.350, 3.467e-6
-1.351, 3.472e-6
-1.352, 3.478e-6
-1.353, 3.485e-6
-1.354, 3.491e-6
-1.355, 3.496e-6
-1.356, 3.502e-6
-1.357, 3.507e-6
-1.358, 3.516e-6
-1.359, 3.524e-6
-1.360, 3.527e-6
-1.361, 3.533e-6
-1.362, 3.540e-6
-1.363, 3.549e-6
-1.364, 3.557e-6
-1.365, 3.561e-6
-1.366, 3.567e-6
-1.367, 3.572e-6
-1.368, 3.580e-6
-1.369, 3.590e-6
-1.370, 3.595e-6
-1.371, 3.602e-6
-1.372, 3.610e-6
-1.373, 3.618e-6
-1.374, 3.626e-6
-1.375, 3.631e-6
-1.376, 3.637e-6
-1.377, 3.645e-6
-1.378, 3.653e-6
-1.379, 3.663e-6
-1.380, 3.668e-6
-1.381, 3.675e-6
-1.382, 3.684e-6
-1.383, 3.696e-6
-1.384, 3.702e-6
-1.385, 3.707e-6
-1.386, 3.713e-6
-1.387, 3.720e-6
-1.388, 3.730e-6
-1.389, 3.738e-6
-1.390, 3.747e-6
-1.391, 3.753e-6
-1.392, 3.760e-6
-1.393, 3.772e-6
-1.394, 3.779e-6
-1.395, 3.787e-6
-1.396, 3.795e-6
-1.397, 3.800e-6
-1.398, 3.812e-6
-1.399, 3.821e-6
-1.400, 3.829e-6
-1.401, 3.836e-6
-1.402, 3.845e-6
-1.403, 3.855e-6
-1.404, 3.866e-6
-1.405, 3.872e-6
-1.406, 3.884e-6
-1.407, 3.891e-6
-1.408, 3.902e-6
-1.409, 3.913e-6
-1.410, 3.918e-6
-1.411, 3.927e-6
-1.412, 3.936e-6
-1.413, 3.945e-6
-1.414, 3.957e-6
-1.415, 3.963e-6
-1.416, 3.970e-6
-1.417, 3.981e-6
-1.418, 3.991e-6
-1.419, 4.003e-6
-1.420, 4.011e-6
-1.421, 4.019e-6
-1.422, 4.028e-6
-1.423, 4.038e-6
-1.424, 4.050e-6
-1.425, 4.059e-6
-1.426, 4.066e-6
-1.427, 4.075e-6
-1.428, 4.086e-6
-1.429, 4.096e-6
-1.430, 4.107e-6
-1.431, 4.113e-6
-1.432, 4.122e-6
-1.433, 4.135e-6
-1.434, 4.148e-6
-1.435, 4.155e-6
-1.436, 4.165e-6
-1.437, 4.172e-6
-1.438, 4.184e-6
-1.439, 4.194e-6
-1.440, 4.202e-6
-1.441, 4.211e-6
-1.442, 4.216e-6
-1.443, 4.230e-6
-1.444, 4.241e-6
-1.445, 4.247e-6
-1.446, 4.259e-6
-1.447, 4.266e-6
-1.448, 4.278e-6
-1.449, 4.292e-6
-1.450, 4.300e-6
-1.451, 4.308e-6
-1.452, 4.318e-6
-1.453, 4.328e-6
-1.454, 4.339e-6
-1.455, 4.350e-6
-1.456, 4.359e-6
-1.457, 4.370e-6
-1.458, 4.381e-6
-1.459, 4.395e-6
-1.460, 4.404e-6
-1.461, 4.412e-6
-1.462, 4.421e-6
-1.463, 4.433e-6
-1.464, 4.445e-6
-1.465, 4.456e-6
-1.466, 4.465e-6
-1.467, 4.475e-6
-1.468, 4.488e-6
-1.469, 4.498e-6
-1.470, 4.509e-6
-1.471, 4.520e-6
-1.472, 4.532e-6
-1.473, 4.545e-6
-1.474, 4.557e-6
-1.475, 4.567e-6
-1.476, 4.578e-6
-1.477, 4.588e-6
-1.478, 4.602e-6
-1.479, 4.613e-6
-1.480, 4.623e-6
-1.481, 4.633e-6
-1.482, 4.642e-6
-1.483, 4.656e-6
-1.484, 4.672e-6
-1.485, 4.685e-6
-1.486, 4.694e-6
-1.487, 4.704e-6
-1.488, 4.718e-6
-1.489, 4.733e-6
-1.490, 4.741e-6
-1.491, 4.755e-6
-1.492, 4.767e-6
-1.493, 4.781e-6
-1.494, 4.796e-6
-1.495, 4.807e-6
-1.496, 4.819e-6
-1.497, 4.832e-6
-1.498, 4.847e-6
-1.499, 4.864e-6
-1.500, 4.876e-6
-1.501, 4.889e-6
-1.502, 4.904e-6
-1.503, 4.918e-6
-1.504, 4.935e-6
-1.505, 4.951e-6
-1.506, 4.960e-6
-1.507, 4.976e-6
-1.508, 4.993e-6
-1.509, 5.012e-6
-1.510, 5.029e-6
-1.511, 5.043e-6
-1.512, 5.061e-6
-1.513, 5.079e-6
-1.514, 5.095e-6
-1.515, 5.112e-6
-1.516, 5.128e-6
-1.517, 5.145e-6
-1.518, 5.166e-6
-1.519, 5.187e-6
-1.520, 5.203e-6
-1.521, 5.221e-6
-1.522, 5.239e-6
-1.523, 5.261e-6
-1.524, 5.283e-6
-1.525, 5.300e-6
-1.526, 5.321e-6
-1.527, 5.340e-6
-1.528, 5.363e-6
-1.529, 5.389e-6
-1.530, 5.407e-6
-1.531, 5.428e-6
-1.532, 5.448e-6
-1.533, 5.471e-6
-1.534, 5.501e-6
-1.535, 5.523e-6
-1.536, 5.546e-6
-1.537, 5.570e-6
-1.538, 5.596e-6
-1.539, 5.624e-6
-1.540, 5.650e-6
-1.541, 5.673e-6
-1.542, 5.701e-6
-1.543, 5.729e-6
-1.544, 5.758e-6
-1.545, 5.789e-6
-1.546, 5.814e-6
-1.547, 5.844e-6
-1.548, 5.875e-6
-1.549, 5.907e-6
-1.550, 5.938e-6
-1.551, 5.967e-6
-1.552, 6.000e-6
-1.553, 6.036e-6
-1.554, 6.070e-6
-1.555, 6.104e-6
-1.556, 6.139e-6
-1.557, 6.170e-6
-1.558, 6.208e-6
-1.559, 6.245e-6
-1.560, 6.282e-6
-1.561, 6.322e-6
-1.562, 6.360e-6
-1.563, 6.404e-6
-1.564, 6.448e-6
-1.565, 6.489e-6
-1.566, 6.531e-6
-1.567, 6.575e-6
-1.568, 6.622e-6
-1.569, 6.671e-6
-1.570, 6.720e-6
-1.571, 6.769e-6
-1.572, 6.820e-6
-1.573, 6.869e-6
-1.574, 6.924e-6
-1.575, 6.976e-6
-1.576, 7.028e-6
-1.577, 7.084e-6
-1.578, 7.144e-6
-1.579, 7.206e-6
-1.580, 7.265e-6
-1.581, 7.323e-6
-1.582, 7.386e-6
-1.583, 7.448e-6
-1.584, 7.517e-6
-1.585, 7.587e-6
-1.586, 7.653e-6
-1.587, 7.729e-6
-1.588, 7.806e-6
-1.589, 7.882e-6
-1.590, 7.962e-6
-1.591, 8.037e-6
-1.592, 8.118e-6
-1.593, 8.208e-6
-1.594, 8.298e-6
-1.595, 8.385e-6
-1.596, 8.477e-6
-1.597, 8.570e-6
-1.598, 8.669e-6
-1.599, 8.775e-6
-1.600, 8.877e-6
-1.601, 8.983e-6
-1.602, 9.092e-6
-1.603, 9.206e-6
-1.604, 9.328e-6
-1.605, 9.446e-6
-1.606, 9.572e-6
-1.607, 9.700e-6
-1.608, 9.837e-6
-1.609, 9.981e-6
-1.610, 1.012e-5
-1.611, 1.026e-5
-1.612, 1.041e-5
-1.613, 1.057e-5
-1.614, 1.074e-5
-1.615, 1.091e-5
-1.616, 1.109e-5
-1.617, 1.127e-5
-1.618, 1.146e-5
-1.619, 1.166e-5
-1.620, 1.186e-5
-1.621, 1.206e-5
-1.622, 1.227e-5
-1.623, 1.250e-5
-1.624, 1.274e-5
-1.625, 1.299e-5
-1.626, 1.324e-5
-1.627, 1.351e-5
-1.628, 1.378e-5
-1.629, 1.407e-5
-1.630, 1.437e-5
-1.631, 1.467e-5
-1.632, 1.499e-5
-1.633, 1.533e-5
-1.634, 1.568e-5
-1.635, 1.605e-5
-1.636, 1.643e-5
-1.637, 1.683e-5
-1.638, 1.725e-5
-1.639, 1.769e-5
-1.640, 1.812e-5
-1.641, 1.858e-5
-1.642, 1.906e-5
-1.643, 1.956e-5
-1.644, 2.008e-5
-1.645, 2.061e-5
-1.646, 2.117e-5
-1.647, 2.174e-5
-1.648, 2.234e-5
-1.649, 2.298e-5
-1.650, 2.363e-5
-1.651, 2.431e-5
-1.652, 2.501e-5
-1.653, 2.573e-5
-1.654, 2.649e-5
-1.655, 2.726e-5
-1.656, 2.803e-5
-1.657, 2.883e-5
-1.658, 2.967e-5
-1.659, 3.058e-5
-1.660, 3.151e-5
-1.661, 3.249e-5
-1.662, 3.349e-5
-1.663, 3.451e-5
-1.664, 3.560e-5
-1.665, 3.671e-5
-1.666, 3.786e-5
-1.667, 3.905e-5
-1.668, 4.029e-5
-1.669, 4.155e-5
-1.670, 4.278e-5
-1.671, 4.410e-5
-1.672, 4.548e-5
-1.673, 4.683e-5
-1.674, 4.829e-5
-1.675, 4.981e-5
-1.676, 5.137e-5
-1.677, 5.298e-5
-1.678, 5.466e-5
-1.679, 5.638e-5
-1.680, 5.816e-5
-1.681, 5.999e-5
-1.682, 6.188e-5
-1.683, 6.384e-5
-1.684, 6.585e-5
-1.685, 6.792e-5
-1.686, 7.004e-5
-1.687, 7.217e-5
-1.688, 7.435e-5
-1.689, 7.661e-5
-1.690, 7.899e-5
-1.691, 8.144e-5
-1.692, 8.395e-5
-1.693, 8.649e-5
-1.694, 8.911e-5
-1.695, 9.173e-5
-1.696, 9.443e-5
-1.697, 9.718e-5
-1.698, 1.001e-4
-1.699, 1.031e-4
