Mar. 12, 2025   02:18:11
Cyclic Voltammetry
File: c:/users/guazh/data/banditlqround7_x0exp891_r5/2025-03-03-exp882\exp882-2025-03-12t02_01_54-h2koh\exp882_cv_sr_800mvs_efin_-1600mv.bin
Data Source:  Experiment
Instrument Model:  CHI760E
Header: CV ran at 800 mVs
Note: 

Init E (V) = -1
High E (V) = -1
Low E (V) = -1.6
Final E (V) = -1
Init P/N = N
Scan Rate (V/s) = 0.8
Segment = 3
Sample Interval (V) = 0.001
Quiet Time (sec) = 2
Sensitivity (A/V) = 0.01
Comp R (ohm) = 1.6

Results:

Channel 1:
Segment 1:

Segment 2:

Segment 3:

Potential/V, Current/A

-1.000, 2.482e-5
-1.001, 8.648e-5
-1.002, 1.235e-4
-1.003, 1.512e-4
-1.004, 1.728e-4
-1.005, 1.882e-4
-1.006, 1.975e-4
-1.007, 2.036e-4
-1.008, 2.067e-4
-1.009, 2.129e-4
-1.010, 2.129e-4
-1.011, 2.160e-4
-1.012, 2.191e-4
-1.013, 2.191e-4
-1.014, 2.221e-4
-1.015, 2.221e-4
-1.016, 2.252e-4
-1.017, 2.252e-4
-1.018, 2.252e-4
-1.019, 2.252e-4
-1.020, 2.252e-4
-1.021, 2.252e-4
-1.022, 2.252e-4
-1.023, 2.252e-4
-1.024, 2.252e-4
-1.025, 2.283e-4
-1.026, 2.283e-4
-1.027, 2.314e-4
-1.028, 2.314e-4
-1.029, 2.314e-4
-1.030, 2.345e-4
-1.031, 2.345e-4
-1.032, 2.314e-4
-1.033, 2.314e-4
-1.034, 2.314e-4
-1.035, 2.314e-4
-1.036, 2.283e-4
-1.037, 2.252e-4
-1.038, 2.283e-4
-1.039, 2.252e-4
-1.040, 2.252e-4
-1.041, 2.252e-4
-1.042, 2.252e-4
-1.043, 2.283e-4
-1.044, 2.283e-4
-1.045, 2.314e-4
-1.046, 2.314e-4
-1.047, 2.314e-4
-1.048, 2.314e-4
-1.049, 2.283e-4
-1.050, 2.314e-4
-1.051, 2.314e-4
-1.052, 2.314e-4
-1.053, 2.283e-4
-1.054, 2.314e-4
-1.055, 2.314e-4
-1.056, 2.314e-4
-1.057, 2.314e-4
-1.058, 2.314e-4
-1.059, 2.314e-4
-1.060, 2.314e-4
-1.061, 2.283e-4
-1.062, 2.314e-4
-1.063, 2.283e-4
-1.064, 2.283e-4
-1.065, 2.283e-4
-1.066, 2.283e-4
-1.067, 2.314e-4
-1.068, 2.314e-4
-1.069, 2.314e-4
-1.070, 2.345e-4
-1.071, 2.314e-4
-1.072, 2.345e-4
-1.073, 2.345e-4
-1.074, 2.314e-4
-1.075, 2.314e-4
-1.076, 2.314e-4
-1.077, 2.314e-4
-1.078, 2.314e-4
-1.079, 2.283e-4
-1.080, 2.314e-4
-1.081, 2.314e-4
-1.082, 2.314e-4
-1.083, 2.345e-4
-1.084, 2.345e-4
-1.085, 2.345e-4
-1.086, 2.345e-4
-1.087, 2.345e-4
-1.088, 2.314e-4
-1.089, 2.345e-4
-1.090, 2.314e-4
-1.091, 2.314e-4
-1.092, 2.345e-4
-1.093, 2.345e-4
-1.094, 2.345e-4
-1.095, 2.345e-4
-1.096, 2.345e-4
-1.097, 2.376e-4
-1.098, 2.345e-4
-1.099, 2.345e-4
-1.100, 2.345e-4
-1.101, 2.345e-4
-1.102, 2.345e-4
-1.103, 2.314e-4
-1.104, 2.314e-4
-1.105, 2.345e-4
-1.106, 2.314e-4
-1.107, 2.345e-4
-1.108, 2.345e-4
-1.109, 2.345e-4
-1.110, 2.345e-4
-1.111, 2.376e-4
-1.112, 2.376e-4
-1.113, 2.345e-4
-1.114, 2.345e-4
-1.115, 2.345e-4
-1.116, 2.345e-4
-1.117, 2.345e-4
-1.118, 2.345e-4
-1.119, 2.345e-4
-1.120, 2.345e-4
-1.121, 2.345e-4
-1.122, 2.376e-4
-1.123, 2.376e-4
-1.124, 2.376e-4
-1.125, 2.376e-4
-1.126, 2.406e-4
-1.127, 2.376e-4
-1.128, 2.376e-4
-1.129, 2.376e-4
-1.130, 2.345e-4
-1.131, 2.345e-4
-1.132, 2.345e-4
-1.133, 2.345e-4
-1.134, 2.376e-4
-1.135, 2.376e-4
-1.136, 2.406e-4
-1.137, 2.406e-4
-1.138, 2.406e-4
-1.139, 2.406e-4
-1.140, 2.406e-4
-1.141, 2.406e-4
-1.142, 2.406e-4
-1.143, 2.406e-4
-1.144, 2.406e-4
-1.145, 2.376e-4
-1.146, 2.406e-4
-1.147, 2.376e-4
-1.148, 2.376e-4
-1.149, 2.376e-4
-1.150, 2.406e-4
-1.151, 2.406e-4
-1.152, 2.406e-4
-1.153, 2.406e-4
-1.154, 2.406e-4
-1.155, 2.406e-4
-1.156, 2.406e-4
-1.157, 2.406e-4
-1.158, 2.406e-4
-1.159, 2.406e-4
-1.160, 2.406e-4
-1.161, 2.437e-4
-1.162, 2.437e-4
-1.163, 2.437e-4
-1.164, 2.437e-4
-1.165, 2.437e-4
-1.166, 2.437e-4
-1.167, 2.437e-4
-1.168, 2.437e-4
-1.169, 2.437e-4
-1.170, 2.406e-4
-1.171, 2.406e-4
-1.172, 2.406e-4
-1.173, 2.406e-4
-1.174, 2.437e-4
-1.175, 2.468e-4
-1.176, 2.468e-4
-1.177, 2.468e-4
-1.178, 2.468e-4
-1.179, 2.499e-4
-1.180, 2.499e-4
-1.181, 2.468e-4
-1.182, 2.468e-4
-1.183, 2.468e-4
-1.184, 2.468e-4
-1.185, 2.468e-4
-1.186, 2.468e-4
-1.187, 2.468e-4
-1.188, 2.468e-4
-1.189, 2.468e-4
-1.190, 2.499e-4
-1.191, 2.499e-4
-1.192, 2.499e-4
-1.193, 2.499e-4
-1.194, 2.468e-4
-1.195, 2.468e-4
-1.196, 2.468e-4
-1.197, 2.468e-4
-1.198, 2.468e-4
-1.199, 2.499e-4
-1.200, 2.499e-4
-1.201, 2.530e-4
-1.202, 2.530e-4
-1.203, 2.530e-4
-1.204, 2.530e-4
-1.205, 2.561e-4
-1.206, 2.561e-4
-1.207, 2.561e-4
-1.208, 2.530e-4
-1.209, 2.530e-4
-1.210, 2.530e-4
-1.211, 2.530e-4
-1.212, 2.530e-4
-1.213, 2.530e-4
-1.214, 2.530e-4
-1.215, 2.530e-4
-1.216, 2.561e-4
-1.217, 2.561e-4
-1.218, 2.561e-4
-1.219, 2.561e-4
-1.220, 2.561e-4
-1.221, 2.561e-4
-1.222, 2.591e-4
-1.223, 2.561e-4
-1.224, 2.561e-4
-1.225, 2.561e-4
-1.226, 2.591e-4
-1.227, 2.591e-4
-1.228, 2.591e-4
-1.229, 2.622e-4
-1.230, 2.653e-4
-1.231, 2.653e-4
-1.232, 2.653e-4
-1.233, 2.653e-4
-1.234, 2.653e-4
-1.235, 2.653e-4
-1.236, 2.653e-4
-1.237, 2.622e-4
-1.238, 2.622e-4
-1.239, 2.622e-4
-1.240, 2.653e-4
-1.241, 2.653e-4
-1.242, 2.684e-4
-1.243, 2.684e-4
-1.244, 2.684e-4
-1.245, 2.684e-4
-1.246, 2.684e-4
-1.247, 2.684e-4
-1.248, 2.684e-4
-1.249, 2.684e-4
-1.250, 2.715e-4
-1.251, 2.684e-4
-1.252, 2.715e-4
-1.253, 2.684e-4
-1.254, 2.715e-4
-1.255, 2.746e-4
-1.256, 2.746e-4
-1.257, 2.776e-4
-1.258, 2.776e-4
-1.259, 2.776e-4
-1.260, 2.776e-4
-1.261, 2.776e-4
-1.262, 2.807e-4
-1.263, 2.776e-4
-1.264, 2.776e-4
-1.265, 2.807e-4
-1.266, 2.807e-4
-1.267, 2.807e-4
-1.268, 2.838e-4
-1.269, 2.869e-4
-1.270, 2.869e-4
-1.271, 2.869e-4
-1.272, 2.869e-4
-1.273, 2.900e-4
-1.274, 2.869e-4
-1.275, 2.900e-4
-1.276, 2.900e-4
-1.277, 2.869e-4
-1.278, 2.900e-4
-1.279, 2.900e-4
-1.280, 2.931e-4
-1.281, 2.961e-4
-1.282, 2.992e-4
-1.283, 3.023e-4
-1.284, 3.023e-4
-1.285, 3.023e-4
-1.286, 3.054e-4
-1.287, 3.054e-4
-1.288, 3.054e-4
-1.289, 3.085e-4
-1.290, 3.054e-4
-1.291, 3.085e-4
-1.292, 3.085e-4
-1.293, 3.115e-4
-1.294, 3.115e-4
-1.295, 3.146e-4
-1.296, 3.177e-4
-1.297, 3.177e-4
-1.298, 3.208e-4
-1.299, 3.208e-4
-1.300, 3.239e-4
-1.301, 3.270e-4
-1.302, 3.270e-4
-1.303, 3.270e-4
-1.304, 3.300e-4
-1.305, 3.300e-4
-1.306, 3.331e-4
-1.307, 3.362e-4
-1.308, 3.393e-4
-1.309, 3.424e-4
-1.310, 3.455e-4
-1.311, 3.455e-4
-1.312, 3.455e-4
-1.313, 3.485e-4
-1.314, 3.516e-4
-1.315, 3.516e-4
-1.316, 3.547e-4
-1.317, 3.547e-4
-1.318, 3.609e-4
-1.319, 3.640e-4
-1.320, 3.670e-4
-1.321, 3.732e-4
-1.322, 3.763e-4
-1.323, 3.825e-4
-1.324, 3.855e-4
-1.325, 3.886e-4
-1.326, 3.886e-4
-1.327, 3.917e-4
-1.328, 3.917e-4
-1.329, 3.948e-4
-1.330, 3.948e-4
-1.331, 3.979e-4
-1.332, 4.010e-4
-1.333, 4.010e-4
-1.334, 4.071e-4
-1.335, 4.102e-4
-1.336, 4.164e-4
-1.337, 4.195e-4
-1.338, 4.256e-4
-1.339, 4.287e-4
-1.340, 4.318e-4
-1.341, 4.380e-4
-1.342, 4.441e-4
-1.343, 4.472e-4
-1.344, 4.534e-4
-1.345, 4.565e-4
-1.346, 4.626e-4
-1.347, 4.688e-4
-1.348, 4.719e-4
-1.349, 4.780e-4
-1.350, 4.842e-4
-1.351, 4.873e-4
-1.352, 4.935e-4
-1.353, 4.965e-4
-1.354, 4.996e-4
-1.355, 5.027e-4
-1.356, 5.089e-4
-1.357, 5.120e-4
-1.358, 5.181e-4
-1.359, 5.212e-4
-1.360, 5.274e-4
-1.361, 5.366e-4
-1.362, 5.428e-4
-1.363, 5.489e-4
-1.364, 5.582e-4
-1.365, 5.644e-4
-1.366, 5.705e-4
-1.367, 5.767e-4
-1.368, 5.829e-4
-1.369, 5.890e-4
-1.370, 5.952e-4
-1.371, 6.014e-4
-1.372, 6.106e-4
-1.373, 6.168e-4
-1.374, 6.260e-4
-1.375, 6.353e-4
-1.376, 6.414e-4
-1.377, 6.507e-4
-1.378, 6.599e-4
-1.379, 6.692e-4
-1.380, 6.754e-4
-1.381, 6.846e-4
-1.382, 6.939e-4
-1.383, 7.000e-4
-1.384, 7.093e-4
-1.385, 7.185e-4
-1.386, 7.309e-4
-1.387, 7.401e-4
-1.388, 7.524e-4
-1.389, 7.617e-4
-1.390, 7.709e-4
-1.391, 7.833e-4
-1.392, 7.925e-4
-1.393, 8.048e-4
-1.394, 8.172e-4
-1.395, 8.264e-4
-1.396, 8.388e-4
-1.397, 8.480e-4
-1.398, 8.603e-4
-1.399, 8.727e-4
-1.400, 8.881e-4
-1.401, 9.004e-4
-1.402, 9.128e-4
-1.403, 9.282e-4
-1.404, 9.436e-4
-1.405, 9.559e-4
-1.406, 9.713e-4
-1.407, 9.837e-4
-1.408, 9.991e-4
-1.409, 1.014e-3
-1.410, 1.030e-3
-1.411, 1.045e-3
-1.412, 1.061e-3
-1.413, 1.079e-3
-1.414, 1.095e-3
-1.415, 1.113e-3
-1.416, 1.129e-3
-1.417, 1.144e-3
-1.418, 1.162e-3
-1.419, 1.181e-3
-1.420, 1.196e-3
-1.421, 1.212e-3
-1.422, 1.230e-3
-1.423, 1.249e-3
-1.424, 1.267e-3
-1.425, 1.289e-3
-1.426, 1.307e-3
-1.427, 1.332e-3
-1.428, 1.354e-3
-1.429, 1.375e-3
-1.430, 1.403e-3
-1.431, 1.425e-3
-1.432, 1.449e-3
-1.433, 1.471e-3
-1.434, 1.495e-3
-1.435, 1.520e-3
-1.436, 1.545e-3
-1.437, 1.569e-3
-1.438, 1.594e-3
-1.439, 1.619e-3
-1.440, 1.643e-3
-1.441, 1.668e-3
-1.442, 1.693e-3
-1.443, 1.721e-3
-1.444, 1.745e-3
-1.445, 1.773e-3
-1.446, 1.801e-3
-1.447, 1.828e-3
-1.448, 1.853e-3
-1.449, 1.884e-3
-1.450, 1.915e-3
-1.451, 1.946e-3
-1.452, 1.980e-3
-1.453, 2.013e-3
-1.454, 2.050e-3
-1.455, 2.087e-3
-1.456, 2.124e-3
-1.457, 2.158e-3
-1.458, 2.192e-3
-1.459, 2.229e-3
-1.460, 2.263e-3
-1.461, 2.297e-3
-1.462, 2.328e-3
-1.463, 2.362e-3
-1.464, 2.396e-3
-1.465, 2.430e-3
-1.466, 2.460e-3
-1.467, 2.494e-3
-1.468, 2.531e-3
-1.469, 2.568e-3
-1.470, 2.605e-3
-1.471, 2.645e-3
-1.472, 2.682e-3
-1.473, 2.726e-3
-1.474, 2.766e-3
-1.475, 2.806e-3
-1.476, 2.846e-3
-1.477, 2.889e-3
-1.478, 2.932e-3
-1.479, 2.975e-3
-1.480, 3.022e-3
-1.481, 3.065e-3
-1.482, 3.108e-3
-1.483, 3.151e-3
-1.484, 3.194e-3
-1.485, 3.234e-3
-1.486, 3.278e-3
-1.487, 3.318e-3
-1.488, 3.358e-3
-1.489, 3.398e-3
-1.490, 3.441e-3
-1.491, 3.484e-3
-1.492, 3.530e-3
-1.493, 3.577e-3
-1.494, 3.629e-3
-1.495, 3.678e-3
-1.496, 3.728e-3
-1.497, 3.777e-3
-1.498, 3.823e-3
-1.499, 3.869e-3
-1.500, 3.916e-3
-1.501, 3.956e-3
-1.502, 4.005e-3
-1.503, 4.048e-3
-1.504, 4.098e-3
-1.505, 4.141e-3
-1.506, 4.187e-3
-1.507, 4.227e-3
-1.508, 4.273e-3
-1.509, 4.326e-3
-1.510, 4.375e-3
-1.511, 4.424e-3
-1.512, 4.477e-3
-1.513, 4.529e-3
-1.514, 4.585e-3
-1.515, 4.637e-3
-1.516, 4.690e-3
-1.517, 4.742e-3
-1.518, 4.794e-3
-1.519, 4.844e-3
-1.520, 4.896e-3
-1.521, 4.949e-3
-1.522, 5.001e-3
-1.523, 5.050e-3
-1.524, 5.103e-3
-1.525, 5.152e-3
-1.526, 5.198e-3
-1.527, 5.245e-3
-1.528, 5.288e-3
-1.529, 5.328e-3
-1.530, 5.365e-3
-1.531, 5.399e-3
-1.532, 5.433e-3
-1.533, 5.470e-3
-1.534, 5.504e-3
-1.535, 5.553e-3
-1.536, 5.605e-3
-1.537, 5.670e-3
-1.538, 5.732e-3
-1.539, 5.799e-3
-1.540, 5.870e-3
-1.541, 5.941e-3
-1.542, 6.012e-3
-1.543, 6.083e-3
-1.544, 6.148e-3
-1.545, 6.210e-3
-1.546, 6.265e-3
-1.547, 6.317e-3
-1.548, 6.361e-3
-1.549, 6.398e-3
-1.550, 6.435e-3
-1.551, 6.462e-3
-1.552, 6.493e-3
-1.553, 6.524e-3
-1.554, 6.552e-3
-1.555, 6.583e-3
-1.556, 6.617e-3
-1.557, 6.660e-3
-1.558, 6.709e-3
-1.559, 6.761e-3
-1.560, 6.814e-3
-1.561, 6.885e-3
-1.562, 6.956e-3
-1.563, 7.033e-3
-1.564, 7.107e-3
-1.565, 7.178e-3
-1.566, 7.239e-3
-1.567, 7.286e-3
-1.568, 7.326e-3
-1.569, 7.363e-3
-1.570, 7.403e-3
-1.571, 7.440e-3
-1.572, 7.474e-3
-1.573, 7.508e-3
-1.574, 7.535e-3
-1.575, 7.566e-3
-1.576, 7.600e-3
-1.577, 7.643e-3
-1.578, 7.693e-3
-1.579, 7.745e-3
-1.580, 7.807e-3
-1.581, 7.865e-3
-1.582, 7.927e-3
-1.583, 7.988e-3
-1.584, 8.044e-3
-1.585, 8.103e-3
-1.586, 8.146e-3
-1.587, 8.201e-3
-1.588, 8.254e-3
-1.589, 8.306e-3
-1.590, 8.365e-3
-1.591, 8.414e-3
-1.592, 8.466e-3
-1.593, 8.519e-3
-1.594, 8.568e-3
-1.595, 8.614e-3
-1.596, 8.667e-3
-1.597, 8.710e-3
-1.598, 8.759e-3
-1.599, 8.809e-3
-1.600, 8.812e-3
-1.599, 8.732e-3
-1.598, 8.661e-3
-1.597, 8.593e-3
-1.596, 8.519e-3
-1.595, 8.442e-3
-1.594, 8.358e-3
-1.593, 8.278e-3
-1.592, 8.217e-3
-1.591, 8.146e-3
-1.590, 8.090e-3
-1.589, 8.025e-3
-1.588, 7.970e-3
-1.587, 7.899e-3
-1.586, 7.837e-3
-1.585, 7.785e-3
-1.584, 7.733e-3
-1.583, 7.683e-3
-1.582, 7.640e-3
-1.581, 7.591e-3
-1.580, 7.532e-3
-1.579, 7.464e-3
-1.578, 7.393e-3
-1.577, 7.323e-3
-1.576, 7.249e-3
-1.575, 7.178e-3
-1.574, 7.094e-3
-1.573, 7.017e-3
-1.572, 6.940e-3
-1.571, 6.872e-3
-1.570, 6.811e-3
-1.569, 6.752e-3
-1.568, 6.703e-3
-1.567, 6.660e-3
-1.566, 6.617e-3
-1.565, 6.570e-3
-1.564, 6.527e-3
-1.563, 6.484e-3
-1.562, 6.441e-3
-1.561, 6.401e-3
-1.560, 6.358e-3
-1.559, 6.302e-3
-1.558, 6.247e-3
-1.557, 6.185e-3
-1.556, 6.123e-3
-1.555, 6.055e-3
-1.554, 6.000e-3
-1.553, 5.932e-3
-1.552, 5.864e-3
-1.551, 5.806e-3
-1.550, 5.766e-3
-1.549, 5.707e-3
-1.548, 5.658e-3
-1.547, 5.618e-3
-1.546, 5.559e-3
-1.545, 5.516e-3
-1.544, 5.467e-3
-1.543, 5.420e-3
-1.542, 5.377e-3
-1.541, 5.331e-3
-1.540, 5.297e-3
-1.539, 5.254e-3
-1.538, 5.204e-3
-1.537, 5.149e-3
-1.536, 5.093e-3
-1.535, 5.047e-3
-1.534, 4.998e-3
-1.533, 4.942e-3
-1.532, 4.893e-3
-1.531, 4.856e-3
-1.530, 4.813e-3
-1.529, 4.767e-3
-1.528, 4.717e-3
-1.527, 4.671e-3
-1.526, 4.622e-3
-1.525, 4.579e-3
-1.524, 4.529e-3
-1.523, 4.480e-3
-1.522, 4.428e-3
-1.521, 4.378e-3
-1.520, 4.332e-3
-1.519, 4.283e-3
-1.518, 4.233e-3
-1.517, 4.184e-3
-1.516, 4.135e-3
-1.515, 4.095e-3
-1.514, 4.048e-3
-1.513, 4.002e-3
-1.512, 3.962e-3
-1.511, 3.925e-3
-1.510, 3.888e-3
-1.509, 3.848e-3
-1.508, 3.811e-3
-1.507, 3.774e-3
-1.506, 3.734e-3
-1.505, 3.694e-3
-1.504, 3.663e-3
-1.503, 3.620e-3
-1.502, 3.570e-3
-1.501, 3.524e-3
-1.500, 3.478e-3
-1.499, 3.435e-3
-1.498, 3.401e-3
-1.497, 3.351e-3
-1.496, 3.305e-3
-1.495, 3.259e-3
-1.494, 3.216e-3
-1.493, 3.176e-3
-1.492, 3.133e-3
-1.491, 3.096e-3
-1.490, 3.074e-3
-1.489, 3.040e-3
-1.488, 3.003e-3
-1.487, 2.969e-3
-1.486, 2.932e-3
-1.485, 2.898e-3
-1.484, 2.861e-3
-1.483, 2.824e-3
-1.482, 2.793e-3
-1.481, 2.756e-3
-1.480, 2.726e-3
-1.479, 2.692e-3
-1.478, 2.652e-3
-1.477, 2.612e-3
-1.476, 2.571e-3
-1.475, 2.531e-3
-1.474, 2.497e-3
-1.473, 2.454e-3
-1.472, 2.420e-3
-1.471, 2.383e-3
-1.470, 2.356e-3
-1.469, 2.328e-3
-1.468, 2.297e-3
-1.467, 2.269e-3
-1.466, 2.245e-3
-1.465, 2.220e-3
-1.464, 2.195e-3
-1.463, 2.168e-3
-1.462, 2.146e-3
-1.461, 2.112e-3
-1.460, 2.078e-3
-1.459, 2.044e-3
-1.458, 2.020e-3
-1.457, 1.983e-3
-1.456, 1.943e-3
-1.455, 1.899e-3
-1.454, 1.862e-3
-1.453, 1.822e-3
-1.452, 1.785e-3
-1.451, 1.758e-3
-1.450, 1.727e-3
-1.449, 1.702e-3
-1.448, 1.680e-3
-1.447, 1.656e-3
-1.446, 1.634e-3
-1.445, 1.613e-3
-1.444, 1.591e-3
-1.443, 1.573e-3
-1.442, 1.551e-3
-1.441, 1.529e-3
-1.440, 1.511e-3
-1.439, 1.486e-3
-1.438, 1.462e-3
-1.437, 1.434e-3
-1.436, 1.406e-3
-1.435, 1.375e-3
-1.434, 1.344e-3
-1.433, 1.314e-3
-1.432, 1.286e-3
-1.431, 1.258e-3
-1.430, 1.230e-3
-1.429, 1.209e-3
-1.428, 1.184e-3
-1.427, 1.162e-3
-1.426, 1.144e-3
-1.425, 1.125e-3
-1.424, 1.110e-3
-1.423, 1.092e-3
-1.422, 1.073e-3
-1.421, 1.051e-3
-1.420, 1.033e-3
-1.419, 1.011e-3
-1.418, 9.929e-4
-1.417, 9.683e-4
-1.416, 9.467e-4
-1.415, 9.251e-4
-1.414, 9.097e-4
-1.413, 8.912e-4
-1.412, 8.727e-4
-1.411, 8.573e-4
-1.410, 8.418e-4
-1.409, 8.264e-4
-1.408, 8.079e-4
-1.407, 7.894e-4
-1.406, 7.740e-4
-1.405, 7.555e-4
-1.404, 7.370e-4
-1.403, 7.216e-4
-1.402, 7.031e-4
-1.401, 6.846e-4
-1.400, 6.692e-4
-1.399, 6.507e-4
-1.398, 6.353e-4
-1.397, 6.199e-4
-1.396, 6.044e-4
-1.395, 5.890e-4
-1.394, 5.736e-4
-1.393, 5.582e-4
-1.392, 5.459e-4
-1.391, 5.335e-4
-1.390, 5.212e-4
-1.389, 5.089e-4
-1.388, 4.935e-4
-1.387, 4.842e-4
-1.386, 4.719e-4
-1.385, 4.626e-4
-1.384, 4.503e-4
-1.383, 4.380e-4
-1.382, 4.256e-4
-1.381, 4.133e-4
-1.380, 4.010e-4
-1.379, 3.886e-4
-1.378, 3.732e-4
-1.377, 3.609e-4
-1.376, 3.485e-4
-1.375, 3.393e-4
-1.374, 3.300e-4
-1.373, 3.177e-4
-1.372, 3.085e-4
-1.371, 2.992e-4
-1.370, 2.900e-4
-1.369, 2.807e-4
-1.368, 2.715e-4
-1.367, 2.591e-4
-1.366, 2.530e-4
-1.365, 2.406e-4
-1.364, 2.314e-4
-1.363, 2.221e-4
-1.362, 2.129e-4
-1.361, 2.036e-4
-1.360, 1.975e-4
-1.359, 1.882e-4
-1.358, 1.821e-4
-1.357, 1.728e-4
-1.356, 1.666e-4
-1.355, 1.574e-4
-1.354, 1.512e-4
-1.353, 1.420e-4
-1.352, 1.327e-4
-1.351, 1.266e-4
-1.350, 1.173e-4
-1.349, 1.111e-4
-1.348, 1.019e-4
-1.347, 9.573e-5
-1.346, 8.957e-5
-1.345, 8.340e-5
-1.344, 7.723e-5
-1.343, 7.107e-5
-1.342, 6.490e-5
-1.341, 6.182e-5
-1.340, 5.257e-5
-1.339, 4.640e-5
-1.338, 4.024e-5
-1.337, 3.407e-5
-1.336, 2.790e-5
-1.335, 2.174e-5
-1.334, 1.865e-5
-1.333, 1.249e-5
-1.332, 9.405e-6
-1.331, 3.239e-6
-1.330, 1.559e-7
-1.329, -6.010e-6
-1.328, -9.093e-6
-1.327, -1.526e-5
-1.326, -1.834e-5
-1.325, -2.759e-5
-1.324, -3.068e-5
-1.323, -3.684e-5
-1.322, -3.992e-5
-1.321, -4.609e-5
-1.320, -4.917e-5
-1.319, -5.226e-5
-1.318, -5.534e-5
-1.317, -5.842e-5
-1.316, -6.151e-5
-1.315, -6.459e-5
-1.314, -7.076e-5
-1.313, -7.384e-5
-1.312, -7.692e-5
-1.311, -8.309e-5
-1.310, -8.617e-5
-1.309, -8.925e-5
-1.308, -9.234e-5
-1.307, -9.542e-5
-1.306, -9.850e-5
-1.305, -1.016e-4
-1.304, -1.016e-4
-1.303, -1.047e-4
-1.302, -1.078e-4
-1.301, -1.108e-4
-1.300, -1.139e-4
-1.299, -1.170e-4
-1.298, -1.201e-4
-1.297, -1.232e-4
-1.296, -1.263e-4
-1.295, -1.293e-4
-1.294, -1.324e-4
-1.293, -1.324e-4
-1.292, -1.355e-4
-1.291, -1.386e-4
-1.290, -1.386e-4
-1.289, -1.417e-4
-1.288, -1.417e-4
-1.287, -1.448e-4
-1.286, -1.478e-4
-1.285, -1.509e-4
-1.284, -1.540e-4
-1.283, -1.540e-4
-1.282, -1.571e-4
-1.281, -1.602e-4
-1.280, -1.602e-4
-1.279, -1.602e-4
-1.278, -1.632e-4
-1.277, -1.632e-4
-1.276, -1.663e-4
-1.275, -1.663e-4
-1.274, -1.694e-4
-1.273, -1.725e-4
-1.272, -1.725e-4
-1.271, -1.756e-4
-1.270, -1.787e-4
-1.269, -1.817e-4
-1.268, -1.817e-4
-1.267, -1.817e-4
-1.266, -1.817e-4
-1.265, -1.848e-4
-1.264, -1.817e-4
-1.263, -1.848e-4
-1.262, -1.848e-4
-1.261, -1.848e-4
-1.260, -1.879e-4
-1.259, -1.879e-4
-1.258, -1.910e-4
-1.257, -1.910e-4
-1.256, -1.941e-4
-1.255, -1.941e-4
-1.254, -1.972e-4
-1.253, -1.972e-4
-1.252, -1.972e-4
-1.251, -1.972e-4
-1.250, -1.972e-4
-1.249, -1.972e-4
-1.248, -2.002e-4
-1.247, -2.002e-4
-1.246, -2.002e-4
-1.245, -2.033e-4
-1.244, -2.064e-4
-1.243, -2.064e-4
-1.242, -2.064e-4
-1.241, -2.095e-4
-1.240, -2.064e-4
-1.239, -2.095e-4
-1.238, -2.095e-4
-1.237, -2.064e-4
-1.236, -2.095e-4
-1.235, -2.095e-4
-1.234, -2.095e-4
-1.233, -2.095e-4
-1.232, -2.126e-4
-1.231, -2.126e-4
-1.230, -2.157e-4
-1.229, -2.187e-4
-1.228, -2.187e-4
-1.227, -2.187e-4
-1.226, -2.187e-4
-1.225, -2.157e-4
-1.224, -2.157e-4
-1.223, -2.157e-4
-1.222, -2.157e-4
-1.221, -2.187e-4
-1.220, -2.187e-4
-1.219, -2.187e-4
-1.218, -2.218e-4
-1.217, -2.218e-4
-1.216, -2.218e-4
-1.215, -2.249e-4
-1.214, -2.218e-4
-1.213, -2.218e-4
-1.212, -2.218e-4
-1.211, -2.218e-4
-1.210, -2.218e-4
-1.209, -2.218e-4
-1.208, -2.218e-4
-1.207, -2.218e-4
-1.206, -2.249e-4
-1.205, -2.249e-4
-1.204, -2.249e-4
-1.203, -2.280e-4
-1.202, -2.280e-4
-1.201, -2.280e-4
-1.200, -2.280e-4
-1.199, -2.280e-4
-1.198, -2.280e-4
-1.197, -2.280e-4
-1.196, -2.280e-4
-1.195, -2.280e-4
-1.194, -2.280e-4
-1.193, -2.280e-4
-1.192, -2.311e-4
-1.191, -2.311e-4
-1.190, -2.342e-4
-1.189, -2.311e-4
-1.188, -2.342e-4
-1.187, -2.342e-4
-1.186, -2.342e-4
-1.185, -2.311e-4
-1.184, -2.311e-4
-1.183, -2.311e-4
-1.182, -2.311e-4
-1.181, -2.311e-4
-1.180, -2.342e-4
-1.179, -2.342e-4
-1.178, -2.342e-4
-1.177, -2.342e-4
-1.176, -2.372e-4
-1.175, -2.372e-4
-1.174, -2.372e-4
-1.173, -2.372e-4
-1.172, -2.372e-4
-1.171, -2.372e-4
-1.170, -2.372e-4
-1.169, -2.372e-4
-1.168, -2.372e-4
-1.167, -2.372e-4
-1.166, -2.372e-4
-1.165, -2.372e-4
-1.164, -2.372e-4
-1.163, -2.372e-4
-1.162, -2.342e-4
-1.161, -2.372e-4
-1.160, -2.342e-4
-1.159, -2.342e-4
-1.158, -2.342e-4
-1.157, -2.372e-4
-1.156, -2.372e-4
-1.155, -2.403e-4
-1.154, -2.403e-4
-1.153, -2.434e-4
-1.152, -2.434e-4
-1.151, -2.465e-4
-1.150, -2.465e-4
-1.149, -2.434e-4
-1.148, -2.434e-4
-1.147, -2.403e-4
-1.146, -2.403e-4
-1.145, -2.372e-4
-1.144, -2.342e-4
-1.143, -2.342e-4
-1.142, -2.342e-4
-1.141, -2.342e-4
-1.140, -2.372e-4
-1.139, -2.372e-4
-1.138, -2.403e-4
-1.137, -2.403e-4
-1.136, -2.434e-4
-1.135, -2.434e-4
-1.134, -2.465e-4
-1.133, -2.465e-4
-1.132, -2.434e-4
-1.131, -2.434e-4
-1.130, -2.434e-4
-1.129, -2.403e-4
-1.128, -2.403e-4
-1.127, -2.434e-4
-1.126, -2.434e-4
-1.125, -2.434e-4
-1.124, -2.434e-4
-1.123, -2.403e-4
-1.122, -2.434e-4
-1.121, -2.434e-4
-1.120, -2.434e-4
-1.119, -2.403e-4
-1.118, -2.403e-4
-1.117, -2.403e-4
-1.116, -2.434e-4
-1.115, -2.434e-4
-1.114, -2.434e-4
-1.113, -2.434e-4
-1.112, -2.465e-4
-1.111, -2.465e-4
-1.110, -2.496e-4
-1.109, -2.465e-4
-1.108, -2.465e-4
-1.107, -2.465e-4
-1.106, -2.465e-4
-1.105, -2.434e-4
-1.104, -2.403e-4
-1.103, -2.434e-4
-1.102, -2.403e-4
-1.101, -2.434e-4
-1.100, -2.434e-4
-1.099, -2.434e-4
-1.098, -2.465e-4
-1.097, -2.465e-4
-1.096, -2.496e-4
-1.095, -2.496e-4
-1.094, -2.496e-4
-1.093, -2.465e-4
-1.092, -2.496e-4
-1.091, -2.465e-4
-1.090, -2.465e-4
-1.089, -2.465e-4
-1.088, -2.434e-4
-1.087, -2.465e-4
-1.086, -2.496e-4
-1.085, -2.465e-4
-1.084, -2.496e-4
-1.083, -2.496e-4
-1.082, -2.496e-4
-1.081, -2.496e-4
-1.080, -2.496e-4
-1.079, -2.465e-4
-1.078, -2.434e-4
-1.077, -2.434e-4
-1.076, -2.434e-4
-1.075, -2.465e-4
-1.074, -2.496e-4
-1.073, -2.496e-4
-1.072, -2.527e-4
-1.071, -2.557e-4
-1.070, -2.557e-4
-1.069, -2.557e-4
-1.068, -2.557e-4
-1.067, -2.557e-4
-1.066, -2.557e-4
-1.065, -2.527e-4
-1.064, -2.496e-4
-1.063, -2.496e-4
-1.062, -2.465e-4
-1.061, -2.465e-4
-1.060, -2.465e-4
-1.059, -2.465e-4
-1.058, -2.465e-4
-1.057, -2.496e-4
-1.056, -2.496e-4
-1.055, -2.527e-4
-1.054, -2.527e-4
-1.053, -2.527e-4
-1.052, -2.527e-4
-1.051, -2.527e-4
-1.050, -2.557e-4
-1.049, -2.557e-4
-1.048, -2.557e-4
-1.047, -2.557e-4
-1.046, -2.557e-4
-1.045, -2.557e-4
-1.044, -2.557e-4
-1.043, -2.557e-4
-1.042, -2.557e-4
-1.041, -2.527e-4
-1.040, -2.496e-4
-1.039, -2.496e-4
-1.038, -2.496e-4
-1.037, -2.496e-4
-1.036, -2.527e-4
-1.035, -2.557e-4
-1.034, -2.588e-4
-1.033, -2.619e-4
-1.032, -2.650e-4
-1.031, -2.650e-4
-1.030, -2.681e-4
-1.029, -2.650e-4
-1.028, -2.681e-4
-1.027, -2.681e-4
-1.026, -2.650e-4
-1.025, -2.619e-4
-1.024, -2.619e-4
-1.023, -2.588e-4
-1.022, -2.588e-4
-1.021, -2.557e-4
-1.020, -2.588e-4
-1.019, -2.588e-4
-1.018, -2.619e-4
-1.017, -2.619e-4
-1.016, -2.650e-4
-1.015, -2.681e-4
-1.014, -2.681e-4
-1.013, -2.712e-4
-1.012, -2.712e-4
-1.011, -2.742e-4
-1.010, -2.742e-4
-1.009, -2.742e-4
-1.008, -2.742e-4
-1.007, -2.712e-4
-1.006, -2.742e-4
-1.005, -2.742e-4
-1.004, -2.742e-4
-1.003, -2.742e-4
-1.002, -2.742e-4
-1.001, -2.773e-4
