Potential V vs RHE, Current mA cm-2
0.013299999999999867,13.475125131214474
0.012299999999999978,10.46603419640154
0.011299999999999866,7.7186648520636405
0.010299999999999976,5.18774633660509
0.009299999999999864,2.8761080726256196
0.008299999999999974,0.6956135461436386
0.007299999999999862,-1.3980177065266295
0.006299999999999972,-3.447651437771094
0.00529999999999986,-5.497568111275533
0.0042999999999999705,-7.5474847847799715
0.0032999999999998586,-9.641257508580225
0.0022999999999999687,-11.73503023238048
0.0012999999999998568,-13.828802956180734
0.00029999999999996696,-15.972090575476265
-0.000700000000000145,-17.966833508285966
-0.0017000000000000348,-19.93328221509837
-0.0027000000000001467,-21.67337711393236
-0.0037000000000000366,-23.385177786769056
-0.0047000000000001485,-24.95550732961925
-0.005700000000000038,-26.525836872469437
-0.00670000000000015,-28.011283737327723
-0.00770000000000004,-29.525024828183312
-0.008700000000000152,-31.095354371033505
-0.009700000000000042,-32.764713704874254
-0.010700000000000154,-34.5472499427042
-0.011700000000000044,-36.244903502542236
-0.012700000000000156,-37.99914551437489
-0.013700000000000045,-39.654357735216976
-0.014700000000000157,-41.30956995605907
-0.015700000000000047,-42.79501682091736
-0.01670000000000016,-44.181433894785094
-0.01770000000000005,-45.581998081651484
-0.01870000000000016,-46.84109113853137
-0.01970000000000005,-48.071889969413945
-0.020700000000000163,-49.373424365289786
-0.021700000000000053,-50.64666453516831
-0.022700000000000164,-52.11796428702795
-0.023700000000000054,-53.518528473894335
-0.024700000000000166,-55.003975338752625
-0.025700000000000056,-56.57430488160282
-0.026700000000000168,-58.14463442445301
-0.027700000000000058,-59.587639950315335
-0.02870000000000017,-60.974057024183075
-0.02970000000000006,-62.28973853305756
-0.03070000000000017,-63.421507572949594
-0.03170000000000006,-64.55327661284163
-0.03270000000000017,-65.68504565273366
-0.03370000000000006,-66.87340314462028
-0.034700000000000175,-68.0051721845123
-0.035700000000000065,-69.26426524139221
-0.03670000000000018,-70.62238808926263
-0.03770000000000007,-71.96636382413442
-0.03870000000000018,-73.40936934999675
-0.03970000000000007,-74.97969889284694
-0.04070000000000018,-76.29538040172143
-0.04170000000000007,-77.68179747558916
-0.04270000000000018,-78.8135665154812
-0.04370000000000007,-80.08680668535972
-0.044700000000000184,-81.1761343862558
-0.045700000000000074,-82.26546208715187
-0.046700000000000186,-83.26990711005605
-0.047700000000000076,-84.35923481095215
-0.04870000000000019,-85.53344518984011
-0.04970000000000008,-86.84912669871461
-0.05070000000000019,-88.15066109459043
-0.05170000000000008,-89.55122528145681
-0.05270000000000019,-90.99423080731917
-0.05370000000000008,-92.33820654219093
-0.05470000000000019,-93.69632939006138
-0.05570000000000008,-94.91298110794531
-0.056700000000000195,-96.0871914868333
-0.057700000000000085,-97.17651918772938
-0.058700000000000196,-98.26584688862545
-0.059700000000000086,-99.22785057253368
-0.0607000000000002,-100.31717827342976
-0.06170000000000009,-101.50553576531638
-0.0627000000000002,-102.80707016119221
-0.06370000000000009,-104.06616321807209
-0.0647000000000002,-105.46672740493848
-0.06570000000000009,-106.82485025280893
-0.0667000000000002,-108.2537086656726
-0.0677000000000001,-109.56939017454708
-0.0687000000000002,-110.92751302241753
-0.0697000000000001,-112.05928206230955
-0.07070000000000021,-113.23349244119754
-0.0717000000000001,-114.3228201420936
-0.07270000000000021,-115.32726516499778
-0.0737000000000001,-116.41659286589388
-0.07470000000000021,-117.50592056678994
-0.0757000000000001,-118.82160207566443
-0.07670000000000021,-120.08069513254432
-0.0777000000000001,-121.43881798041474
-0.07870000000000021,-122.82523505428249
-0.0797000000000001,-124.35312325813672
-0.08070000000000022,-125.71124610600715
-0.0817000000000001,-127.09766317987489
-0.08270000000000022,-128.2294322197669
-0.08370000000000011,-129.4602310506495
-0.08470000000000022,-130.5495587515456
-0.08570000000000011,-131.68132779143764
-0.08670000000000022,-132.6857728143418
-0.08770000000000011,-133.81754185423384
-0.08870000000000022,-134.9917522331218
-0.08970000000000011,-136.26499240300032
-0.09070000000000022,-137.6089681378721
-0.09170000000000011,-139.05197366373446
-0.09270000000000023,-140.53742052859275
-0.09370000000000012,-142.03701450644968
-0.09470000000000023,-143.3102546763282
-0.09570000000000012,-144.58349484620675
-0.09670000000000023,-145.85673501608528
-0.09770000000000012,-146.9885040559773
-0.09870000000000023,-148.12027309586935
-0.09970000000000012,-149.1105710057749
-0.10070000000000023,-150.38381117565342
-0.10170000000000012,-151.5155802155454
-0.10270000000000024,-152.78882038542397
-0.10370000000000013,-154.203531685289
-0.10470000000000024,-155.61824298515404
-0.10570000000000013,-157.03295428501906
-0.10670000000000024,-158.4476655848841
-0.10770000000000013,-160.00384801473567
-0.10870000000000024,-161.2770881846142
-0.10970000000000013,-162.5503283544927
-0.11070000000000024,-163.68209739438475
-0.11170000000000013,-164.81386643427678
-0.11270000000000002,-165.8041643441823
-0.11370000000000013,-167.07740451406085
-0.11470000000000002,-168.20917355395284
-0.11570000000000014,-169.48241372383137
-0.11670000000000003,-170.75565389370993
-0.11770000000000014,-172.17036519357498
-0.11870000000000003,-173.58507649344
-0.11970000000000014,-175.14125892329156
-0.12070000000000003,-176.4144990931701
-0.12170000000000014,-177.82921039303508
-0.12270000000000003,-179.10245056291362
-0.12370000000000014,-180.37569073279218
-0.12470000000000003,-181.5074597726842
-0.12570000000000014,-182.63922881257625
-0.12670000000000003,-183.62952672248176
-0.12770000000000015,-184.9027668923603
-0.12870000000000004,-186.03453593225234
-0.12970000000000015,-187.30777610213087
-0.13070000000000004,-188.72248740199586
-0.13170000000000015,-190.27866983184742
-0.13270000000000004,-191.69338113171247
-0.13370000000000015,-193.10809243157752
-0.13470000000000004,-194.66427486142905
-0.13570000000000015,-195.93751503130758
-0.13670000000000004,-197.21075520118612
-0.13770000000000016,-198.48399537106465
-0.13870000000000005,-199.61576441095667
-0.13970000000000016,-200.6060623208622
-0.14070000000000005,-201.87930249074074
-0.14170000000000016,-203.01107153063276
-0.14270000000000005,-204.2843117005113
-0.14370000000000016,-205.69902300037634
-0.14470000000000005,-207.1137343002414
-0.14570000000000016,-208.52844560010638
-0.14670000000000005,-210.08462802995794
-0.14770000000000016,-211.35786819983647
-0.14870000000000005,-212.77257949970152
-0.14970000000000017,-214.04581966958003
-0.15070000000000006,-215.17758870947208
-0.15170000000000017,-216.1678866193776
-0.15270000000000006,-217.29965565926966
-0.15370000000000017,-218.43142469916165
-0.15470000000000006,-219.42172260906716
-0.15570000000000017,-220.83643390893224
-0.15670000000000006,-222.10967407881074
-0.15770000000000017,-223.52438537867582
-0.15870000000000006,-224.93909667854084
-0.15970000000000018,-226.49527910839237
-0.16070000000000007,-227.9099904082574
-0.16170000000000018,-229.32470170812243
-0.16270000000000007,-230.59794187800094
-0.16370000000000018,-231.8711820478795
-0.16470000000000007,-232.86147995778504
-0.16570000000000018,-233.99324899767706
-0.16670000000000007,-235.12501803756908
-0.16770000000000018,-236.3982582074476
-0.16870000000000007,-237.53002724733966
-0.16970000000000018,-238.8032674172182
-0.17070000000000007,-240.21797871708318
-0.17170000000000019,-241.77416114693477
-0.17270000000000008,-243.18887244679982
-0.1737000000000002,-244.60358374666484
-0.17470000000000008,-246.01829504652986
-0.1757000000000002,-247.2915352164084
-0.17670000000000008,-248.70624651627344
-0.1777000000000002,-249.83801555616546
-0.17870000000000008,-251.111255726044
-0.1797000000000002,-252.243024765936
-0.18070000000000008,-253.51626493581452
-0.1817000000000002,-254.78950510569314
-0.18270000000000008,-256.0627452755717
-0.1837000000000002,-257.4774565754367
-0.1847000000000001,-258.8921678753017
-0.1857000000000002,-260.4483503051532
-0.1867000000000001,-262.1460038649913
-0.1877000000000002,-263.7021862948428
-0.1887000000000001,-264.83395533473487
-0.1897000000000002,-266.1071955046134
-0.1907000000000001,-267.23896454450545
-0.1917000000000001,-268.22926245441096
-0.19269999999999998,-269.2195603643164
-0.1937000000000001,-270.20985827422203
-0.19469999999999998,-271.341627314114
-0.1957000000000001,-272.61486748399255
-0.19669999999999999,-273.7466365238846
-0.1977000000000001,-275.1613478237496
-0.1987,-276.43458799362816
-0.1997000000000001,-277.9907704234797
-0.2007,-279.26401059335825
-0.2017000000000001,-280.5372507632368
-0.2027,-281.8104909331153
-0.2037000000000001,-282.9422599730073
-0.2047,-284.07402901289936
-0.2057000000000001,-285.2057980527914
-0.2067,-286.196095962697
-0.2077000000000001,-287.327865002589
-0.2087,-288.3181629124945
-0.2097000000000001,-289.4499319523865
-0.2107,-290.723172122265
-0.2117000000000001,-291.9964122921436
-0.2127,-293.26965246202207
-0.2137000000000001,-294.54289263190066
-0.2147,-295.9576039317657
-0.2157000000000001,-297.23084410164427
-0.2167,-298.3626131415362
-0.21770000000000012,-299.3529110514418
-0.2187,-300.3432089613473
-0.21970000000000012,-301.1920357412663
-0.2207,-302.32380478115834
-0.22170000000000012,-303.17263156107737
-0.2227,-304.4458717309559
-0.22370000000000012,-305.57764077084795
-0.2247,-306.8508809407265
-0.22570000000000012,-307.98264998061853
-0.2267,-309.255890150497
-0.22770000000000012,-310.38765919038906
-0.22870000000000001,-311.3779571002945
-0.22970000000000013,-312.2267838802136
-0.23070000000000002,-313.0756106601326
-0.23170000000000013,-313.9244374400517
-0.23270000000000002,-314.6317930899841
-0.23370000000000013,-315.4806198699032
-0.23470000000000002,-316.3294466498222
-0.23570000000000013,-317.3197445597277
-0.23670000000000002,-318.16857133964675
-0.2376999999999999,-319.30034037953874
-0.23870000000000002,-320.4321094194308
-0.2396999999999999,-321.7053495893094
-0.24070000000000003,-322.83711862920137
-0.24169999999999991,-324.1103587990799
-0.24270000000000003,-325.1006567089854
-0.24369999999999992,-326.090954618891
-0.24470000000000003,-326.93978139880994
-0.24569999999999992,-327.9300793087155
-0.24670000000000003,-328.7789060886345
-0.24769999999999992,-329.62773286855355
-0.24870000000000003,-330.618030778459
-0.24969999999999992,-331.74979981835105
-0.25070000000000003,-332.8815688582431
-0.2516999999999999,-334.1548090281217
-0.25270000000000004,-335.5695203279867
-0.2536999999999999,-336.70128936787876
-0.25470000000000004,-337.9745295377573
-0.2556999999999999,-339.1062985776493
-0.25670000000000004,-340.2380676175413
-0.25769999999999993,-341.3698366574333
-0.25870000000000004,-342.3601345673389
-0.25969999999999993,-343.06749021727137
-0.26070000000000004,-344.057788127177
-0.26169999999999993,-345.04808603708244
-0.26270000000000004,-346.03838394698795
-0.26369999999999993,-347.17015298688
-0.26470000000000005,-348.301922026772
-0.26569999999999994,-349.5751621966506
-0.26670000000000005,-350.8484023665291
-0.26769999999999994,-351.9801714064211
-0.26870000000000005,-353.11194044631316
-0.26969999999999994,-354.10223835621866
-0.27070000000000005,-354.95106513613774
-0.27169999999999994,-355.7998919160567
-0.27270000000000005,-356.64871869597573
-0.27369999999999994,-357.4975454758948
-0.27470000000000006,-358.3463722558138
-0.27569999999999995,-359.4781412957058
-0.27670000000000006,-360.46843920561133
-0.27769999999999995,-361.6002082455034
-0.27870000000000006,-362.87344841538186
-0.27969999999999995,-364.0052174552739
-0.28070000000000006,-365.2784576251525
-0.28169999999999995,-366.268755535058
-0.28270000000000006,-367.117582314977
-0.28369999999999995,-368.10788022488254
-0.28470000000000006,-369.2396492647746
-0.28569999999999995,-370.5128894346531
-0.28670000000000007,-371.5031873445586
-0.28769999999999996,-372.6349563844507
-0.28870000000000007,-373.6252542943562
-0.28969999999999996,-374.75702333424823
-0.29070000000000007,-375.60585011416725
-0.29169999999999996,-376.7376191540593
-0.29270000000000007,-377.86938819395135
-0.29369999999999996,-379.00115723384334
-0.2947000000000001,-380.13292627373534
-0.29569999999999996,-380.98175305365436
-0.2967000000000001,-381.8305798335734
-0.29769999999999996,-382.6794066134924
-0.2987000000000001,-383.5282333934114
-0.29969999999999997,-384.0941179133575
-0.3007000000000001,-384.80147356328996
-0.30169999999999997,-385.367358083236
-0.3027000000000001,-386.0747137331685
-0.30369999999999997,-386.782069383101
-0.3047000000000001,-387.63089616302005
-0.30569999999999997,-388.33825181295254
-0.3067000000000001,-389.3285497228581
-0.3077,-390.03590537279064
-0.3087000000000001,-390.60178989273663
-0.3097,-391.16767441268263
-0.3107000000000001,-391.7335589326286
-0.3117,-392.1579723225882
-0.3127000000000001,-392.58238571254765
-0.3137,-393.00679910250716
-0.3147000000000001,-393.4312124924667
-0.3157,-394.1385681423992
-0.3167000000000001,-394.70445266234526
-0.3177,-395.41180831227774
-0.3187000000000001,-396.26063509219676
-0.3197,-397.10946187211584
-0.3207000000000001,-397.81681752204827
-0.3217,-398.3827020419943
-0.3227000000000001,-398.9485865619403
-0.3237,-399.6559422118729
-0.3247000000000001,-400.08035560183237
-0.3257,-400.5047689917919
-0.3267000000000001,-400.78771125176496
-0.3277,-401.3535957717109
-0.3287000000000001,-401.77800916167047
-0.3297,-402.34389368161646
-0.3307000000000001,-402.9097782015624
-0.3317,-403.7586049814815
-0.3327000000000001,-404.6074317614005
-0.3337,-405.314787411333
-0.3347000000000001,-405.88067193127904
-0.3357,-406.44655645122504
-0.3367000000000001,-407.0124409711711
-0.3377,-407.43685436113054
-0.3387000000000001,-407.7197966211035
-0.3397,-408.0027388810766
-0.3407000000000001,-408.4271522710361
-0.3417,-408.85156566099556
-0.3427000000000001,-409.27597905095513
-0.3437,-409.8418635709011
-0.3447000000000001,-410.54921922083366
-0.3457,-411.25657487076614
-0.3467000000000001,-411.9639305206987
-0.3477,-412.5298150406447
-0.3487000000000001,-412.9542284306042
-0.3497,-413.3786418205637
-0.3507000000000001,-413.6615840805367
-0.3517,-413.94452634050975
-0.3527000000000001,-414.08599747049624
-0.3537,-414.3689397304692
-0.3547000000000001,-414.51041086045575
-0.3557,-414.9348242504152
-0.35670000000000013,-415.50070877036126
-0.3577,-415.92512216032077
-0.35870000000000013,-416.34953555028034
-0.3597,-416.91542007022633
-0.36070000000000013,-417.1983623301993
-0.3617,-417.6227757201588
-0.3626999999999999,-417.90571798013184
-0.3637,-418.0471891101183
-0.3646999999999999,-418.1886602401048
-0.3657,-418.33013137009135
-0.3666999999999999,-418.47160250007784
-0.3677,-418.47160250007784
-0.3686999999999999,-418.47160250007784
-0.36970000000000003,-418.8960158900374
-0.3706999999999999,-419.1789581500104
-0.37170000000000003,-419.6033715399698
-0.3726999999999999,-420.1692560599159
-0.37370000000000003,-420.5936694498754
-0.3746999999999999,-421.01808283983496
-0.37570000000000003,-421.30102509980793
-0.3766999999999999,-421.58396735978096
-0.37770000000000004,-421.72543848976744
-0.3786999999999999,-421.72543848976744
-0.37970000000000004,-421.58396735978096
-0.3806999999999999,-421.72543848976744
-0.38170000000000004,-421.72543848976744
-0.38269999999999993,-421.8669096197539
-0.38370000000000004,-421.8669096197539
-0.38469999999999993,-422.00838074974047
-0.38570000000000004,-422.1498518797269
-0.38669999999999993,-420.3107271899024
-0.38570000000000004,-414.2274686004828
-0.38469999999999993,-408.5686234010226
-0.38370000000000004,-402.7683070715759
-0.38269999999999993,-397.10946187211584
-0.38170000000000004,-391.4506166726556
-0.3806999999999999,-385.933242603182
-0.37970000000000004,-380.55733966369485
-0.3786999999999999,-375.3229078541942
-0.37770000000000004,-370.3714183046666
-0.3766999999999999,-365.419928755139
-0.37570000000000003,-360.75138146558436
-0.3746999999999999,-356.08283417602973
-0.37370000000000003,-351.69722914644814
-0.3726999999999999,-347.17015298688
-0.37170000000000003,-342.7845479572984
-0.3706999999999999,-338.2574717977303
-0.36970000000000003,-333.7303956381621
-0.3686999999999999,-329.0618483486075
-0.3677,-324.5347721890394
-0.3666999999999999,-320.00769602947133
-0.3657,-315.9050332598627
-0.3646999999999999,-311.80237049025413
-0.3637,-307.98264998061853
-0.3626999999999999,-304.1629294709828
-0.3617,-300.3432089613473
-0.36070000000000013,-296.6649595816982
-0.3597,-292.9867102020491
-0.35870000000000013,-289.1669896924135
-0.3577,-285.4887403127644
-0.35670000000000013,-281.66901980312883
-0.3557,-277.84929929349323
-0.3547000000000001,-273.8881076538711
-0.3537,-269.926916014249
-0.3527000000000001,-266.2486666345999
-0.3517,-262.42894612496434
-0.3507000000000001,-258.7506967453152
-0.3497,-255.21391849565262
-0.3487000000000001,-251.81861137597656
-0.3477,-248.28183312631393
-0.3467000000000001,-245.02799713662432
-0.3457,-241.6326900169483
-0.3447000000000001,-238.37885402725868
-0.3437,-234.9835469075826
-0.3427000000000001,-231.5882397879065
-0.3417,-228.0514615382439
-0.3407000000000001,-224.65615441856778
-0.3397,-221.11937616890526
-0.3387000000000001,-217.86554017921566
-0.3377,-214.61170418952605
-0.3367000000000001,-211.499339329823
-0.3357,-208.52844560010638
-0.3347000000000001,-205.55755187038983
-0.3337,-202.86960040064628
-0.3327000000000001,-199.89870667092967
-0.3317,-197.0692840711996
-0.3307000000000001,-193.9569192114965
-0.3297,-190.98602548177996
-0.3287000000000001,-187.87366062207687
-0.3277,-184.7612957623738
-0.3267000000000001,-181.64893090267074
-0.3257,-178.67803717295413
-0.3247000000000001,-175.70714344323756
-0.3237,-172.87772084350746
-0.3227000000000001,-170.33124050375042
-0.3217,-167.6432890340068
-0.3207000000000001,-165.09680869424977
-0.3197,-162.5503283544927
-0.3187000000000001,-160.00384801473567
-0.3177,-157.31589654499206
-0.3167000000000001,-154.6279450752485
-0.3157,-151.7985224755184
-0.3147000000000001,-149.1105710057749
-0.3137,-146.28114840604482
-0.3127000000000001,-143.5931969363012
-0.3117,-140.89109835355902
-0.3107000000000001,-138.3587651268006
-0.3097,-135.95375591703004
-0.3087000000000001,-133.5628938202581
-0.3077,-131.2003259494835
-0.3067000000000001,-128.93678786969946
-0.30569999999999997,-126.5317786599289
-0.3047000000000001,-124.18335790215292
-0.30369999999999997,-121.69346601439047
-0.3027000000000001,-119.16113278763203
-0.30169999999999997,-116.58635822187767
-0.3007000000000001,-113.92670097813141
-0.29969999999999997,-111.49339754236355
-0.2987000000000001,-109.00350565460108
-0.29769999999999996,-106.59849644483052
-0.2967000000000001,-104.2925170260505
-0.29569999999999996,-102.1563029632543
-0.2947000000000001,-100.10497157844999
-0.29369999999999996,-98.13852287163759
-0.29270000000000007,-96.00230880884139
-0.29169999999999996,-93.82365340704924
-0.29070000000000007,-91.56011532726518
-0.28969999999999996,-89.28243013448247
-0.28870000000000007,-86.97645071570246
-0.28769999999999996,-84.6563241839238
-0.28670000000000007,-82.18057940915998
-0.28569999999999995,-79.90289421637728
-0.28470000000000006,-77.7242388145851
-0.28369999999999995,-75.63046609078486
-0.28270000000000006,-73.6781644969711
-0.28169999999999995,-71.7117157901587
-0.28070000000000006,-69.87259110033416
-0.27969999999999995,-68.0051721845123
-0.27870000000000006,-66.12360615569182
-0.27769999999999995,-64.0722747708875
-0.27670000000000006,-62.02094338608321
-0.27569999999999995,-59.884729323287
-0.27470000000000006,-57.70607392149485
-0.27369999999999994,-55.484977180706736
-0.27270000000000005,-53.476087134898386
-0.27169999999999994,-51.33987307210218
-0.27070000000000005,-49.458307043281685
-0.26969999999999994,-47.590888127459834
-0.26870000000000005,-45.85079322862584
-0.26769999999999994,-44.096551216793195
-0.26670000000000005,-42.39889765695515
