Jan. 11, 2025   17:04:48
Cyclic Voltammetry
File: c:/users/guazh/data/banditlqround7_x0exp772_r5/2025-01-10-exp815\exp815-2025-01-11t16_57_42-h2koh\exp815_cv_sr_400mvs_efin_-1400mv.bin
Data Source:  Experiment
Instrument Model:  CHI760E
Header: CV ran at 400 mVs
Note: 

Init E (V) = -1
High E (V) = -1
Low E (V) = -1.4
Final E (V) = -1
Init P/N = N
Scan Rate (V/s) = 0.4
Segment = 3
Sample Interval (V) = 0.001
Quiet Time (sec) = 2
Sensitivity (A/V) = 0.01
Comp R (ohm) = 1.2

Results:

Channel 1:
Segment 1:

Segment 2:

Segment 3:

Potential/V, Current/A

-1.000, -1.196e-3
-1.001, -9.834e-4
-1.002, -8.015e-4
-1.003, -6.565e-4
-1.004, -5.301e-4
-1.005, -4.068e-4
-1.006, -2.681e-4
-1.007, -1.170e-4
-1.008, 2.482e-5
-1.009, 1.574e-4
-1.010, 2.561e-4
-1.011, 3.424e-4
-1.012, 4.441e-4
-1.013, 5.613e-4
-1.014, 6.908e-4
-1.015, 8.110e-4
-1.016, 9.097e-4
-1.017, 9.868e-4
-1.018, 1.064e-3
-1.019, 1.150e-3
-1.020, 1.261e-3
-1.021, 1.375e-3
-1.022, 1.477e-3
-1.023, 1.557e-3
-1.024, 1.622e-3
-1.025, 1.690e-3
-1.026, 1.776e-3
-1.027, 1.878e-3
-1.028, 1.983e-3
-1.029, 2.069e-3
-1.030, 2.134e-3
-1.031, 2.186e-3
-1.032, 2.254e-3
-1.033, 2.340e-3
-1.034, 2.442e-3
-1.035, 2.534e-3
-1.036, 2.608e-3
-1.037, 2.661e-3
-1.038, 2.713e-3
-1.039, 2.778e-3
-1.040, 2.864e-3
-1.041, 2.963e-3
-1.042, 3.046e-3
-1.043, 3.105e-3
-1.044, 3.151e-3
-1.045, 3.207e-3
-1.046, 3.278e-3
-1.047, 3.370e-3
-1.048, 3.462e-3
-1.049, 3.536e-3
-1.050, 3.589e-3
-1.051, 3.629e-3
-1.052, 3.688e-3
-1.053, 3.765e-3
-1.054, 3.857e-3
-1.055, 3.943e-3
-1.056, 4.008e-3
-1.057, 4.054e-3
-1.058, 4.098e-3
-1.059, 4.159e-3
-1.060, 4.246e-3
-1.061, 4.338e-3
-1.062, 4.415e-3
-1.063, 4.474e-3
-1.064, 4.514e-3
-1.065, 4.563e-3
-1.066, 4.631e-3
-1.067, 4.717e-3
-1.068, 4.813e-3
-1.069, 4.887e-3
-1.070, 4.936e-3
-1.071, 4.979e-3
-1.072, 5.032e-3
-1.073, 5.112e-3
-1.074, 5.201e-3
-1.075, 5.291e-3
-1.076, 5.359e-3
-1.077, 5.405e-3
-1.078, 5.448e-3
-1.079, 5.510e-3
-1.080, 5.590e-3
-1.081, 5.685e-3
-1.082, 5.769e-3
-1.083, 5.824e-3
-1.084, 5.870e-3
-1.085, 5.917e-3
-1.086, 5.984e-3
-1.087, 6.074e-3
-1.088, 6.163e-3
-1.089, 6.237e-3
-1.090, 6.287e-3
-1.091, 6.324e-3
-1.092, 6.376e-3
-1.093, 6.450e-3
-1.094, 6.543e-3
-1.095, 6.629e-3
-1.096, 6.694e-3
-1.097, 6.740e-3
-1.098, 6.789e-3
-1.099, 6.851e-3
-1.100, 6.934e-3
-1.101, 7.030e-3
-1.102, 7.113e-3
-1.103, 7.175e-3
-1.104, 7.221e-3
-1.105, 7.270e-3
-1.106, 7.341e-3
-1.107, 7.430e-3
-1.108, 7.523e-3
-1.109, 7.600e-3
-1.110, 7.656e-3
-1.111, 7.699e-3
-1.112, 7.751e-3
-1.113, 7.828e-3
-1.114, 7.924e-3
-1.115, 8.013e-3
-1.116, 8.084e-3
-1.117, 8.130e-3
-1.118, 8.177e-3
-1.119, 8.235e-3
-1.120, 8.321e-3
-1.121, 8.417e-3
-1.122, 8.497e-3
-1.123, 8.556e-3
-1.124, 8.599e-3
-1.125, 8.648e-3
-1.126, 8.722e-3
-1.127, 8.812e-3
-1.128, 8.901e-3
-1.129, 8.978e-3
-1.130, 9.031e-3
-1.131, 9.074e-3
-1.132, 9.126e-3
-1.133, 9.203e-3
-1.134, 9.296e-3
-1.135, 9.382e-3
-1.136, 9.453e-3
-1.137, 9.499e-3
-1.138, 9.545e-3
-1.139, 9.607e-3
-1.140, 9.687e-3
-1.141, 9.783e-3
-1.142, 9.863e-3
-1.143, 9.919e-3
-1.144, 9.959e-3
-1.145, 1.001e-2
-1.146, 1.008e-2
-1.147, 1.016e-2
-1.148, 1.025e-2
-1.149, 1.033e-2
-1.150, 1.038e-2
-1.151, 1.042e-2
-1.152, 1.048e-2
-1.153, 1.056e-2
-1.154, 1.065e-2
-1.155, 1.073e-2
-1.156, 1.080e-2
-1.157, 1.084e-2
-1.158, 1.089e-2
-1.159, 1.094e-2
-1.160, 1.102e-2
-1.161, 1.111e-2
-1.162, 1.119e-2
-1.163, 1.125e-2
-1.164, 1.129e-2
-1.165, 1.133e-2
-1.166, 1.140e-2
-1.167, 1.149e-2
-1.168, 1.158e-2
-1.169, 1.165e-2
-1.170, 1.170e-2
-1.171, 1.174e-2
-1.172, 1.179e-2
-1.173, 1.186e-2
-1.174, 1.195e-2
-1.175, 1.204e-2
-1.176, 1.210e-2
-1.177, 1.215e-2
-1.178, 1.219e-2
-1.179, 1.225e-2
-1.180, 1.232e-2
-1.181, 1.241e-2
-1.182, 1.249e-2
-1.183, 1.254e-2
-1.184, 1.257e-2
-1.185, 1.262e-2
-1.186, 1.268e-2
-1.187, 1.276e-2
-1.188, 1.284e-2
-1.189, 1.290e-2
-1.190, 1.295e-2
-1.191, 1.298e-2
-1.192, 1.304e-2
-1.193, 1.312e-2
-1.194, 1.321e-2
-1.195, 1.331e-2
-1.196, 1.337e-2
-1.197, 1.341e-2
-1.198, 1.344e-2
-1.199, 1.349e-2
-1.200, 1.355e-2
-1.201, 1.363e-2
-1.202, 1.370e-2
-1.203, 1.374e-2
-1.204, 1.377e-2
-1.205, 1.380e-2
-1.206, 1.385e-2
-1.207, 1.392e-2
-1.208, 1.400e-2
-1.209, 1.406e-2
-1.210, 1.410e-2
-1.211, 1.413e-2
-1.212, 1.418e-2
-1.213, 1.425e-2
-1.214, 1.433e-2
-1.215, 1.441e-2
-1.216, 1.447e-2
-1.217, 1.450e-2
-1.218, 1.452e-2
-1.219, 1.456e-2
-1.220, 1.463e-2
-1.221, 1.470e-2
-1.222, 1.477e-2
-1.223, 1.481e-2
-1.224, 1.483e-2
-1.225, 1.487e-2
-1.226, 1.492e-2
-1.227, 1.500e-2
-1.228, 1.508e-2
-1.229, 1.514e-2
-1.230, 1.518e-2
-1.231, 1.520e-2
-1.232, 1.524e-2
-1.233, 1.530e-2
-1.234, 1.538e-2
-1.235, 1.545e-2
-1.236, 1.550e-2
-1.237, 1.553e-2
-1.238, 1.555e-2
-1.239, 1.560e-2
-1.240, 1.567e-2
-1.241, 1.574e-2
-1.242, 1.580e-2
-1.243, 1.585e-2
-1.244, 1.587e-2
-1.245, 1.589e-2
-1.246, 1.594e-2
-1.247, 1.600e-2
-1.248, 1.606e-2
-1.249, 1.612e-2
-1.250, 1.614e-2
-1.251, 1.615e-2
-1.252, 1.618e-2
-1.253, 1.622e-2
-1.254, 1.629e-2
-1.255, 1.634e-2
-1.256, 1.638e-2
-1.257, 1.640e-2
-1.258, 1.642e-2
-1.259, 1.645e-2
-1.260, 1.650e-2
-1.261, 1.656e-2
-1.262, 1.661e-2
-1.263, 1.663e-2
-1.264, 1.664e-2
-1.265, 1.666e-2
-1.266, 1.669e-2
-1.267, 1.674e-2
-1.268, 1.680e-2
-1.269, 1.684e-2
-1.270, 1.685e-2
-1.271, 1.686e-2
-1.272, 1.687e-2
-1.273, 1.691e-2
-1.274, 1.697e-2
-1.275, 1.702e-2
-1.276, 1.705e-2
-1.277, 1.705e-2
-1.278, 1.705e-2
-1.279, 1.707e-2
-1.280, 1.711e-2
-1.281, 1.717e-2
-1.282, 1.720e-2
-1.283, 1.721e-2
-1.284, 1.722e-2
-1.285, 1.723e-2
-1.286, 1.725e-2
-1.287, 1.731e-2
-1.288, 1.735e-2
-1.289, 1.739e-2
-1.290, 1.739e-2
-1.291, 1.739e-2
-1.292, 1.740e-2
-1.293, 1.742e-2
-1.294, 1.747e-2
-1.295, 1.750e-2
-1.296, 1.752e-2
-1.297, 1.752e-2
-1.298, 1.751e-2
-1.299, 1.752e-2
-1.300, 1.756e-2
-1.301, 1.759e-2
-1.302, 1.761e-2
-1.303, 1.761e-2
-1.304, 1.758e-2
-1.305, 1.755e-2
-1.306, 1.755e-2
-1.307, 1.758e-2
-1.308, 1.762e-2
-1.309, 1.763e-2
-1.310, 1.762e-2
-1.311, 1.758e-2
-1.312, 1.756e-2
-1.313, 1.755e-2
-1.314, 1.756e-2
-1.315, 1.757e-2
-1.316, 1.756e-2
-1.317, 1.753e-2
-1.318, 1.750e-2
-1.319, 1.748e-2
-1.320, 1.748e-2
-1.321, 1.750e-2
-1.322, 1.751e-2
-1.323, 1.749e-2
-1.324, 1.747e-2
-1.325, 1.744e-2
-1.326, 1.744e-2
-1.327, 1.745e-2
-1.328, 1.748e-2
-1.329, 1.749e-2
-1.330, 1.748e-2
-1.331, 1.747e-2
-1.332, 1.745e-2
-1.333, 1.746e-2
-1.334, 1.748e-2
-1.335, 1.751e-2
-1.336, 1.750e-2
-1.337, 1.748e-2
-1.338, 1.744e-2
-1.339, 1.742e-2
-1.340, 1.743e-2
-1.341, 1.746e-2
-1.342, 1.747e-2
-1.343, 1.745e-2
-1.344, 1.742e-2
-1.345, 1.740e-2
-1.346, 1.740e-2
-1.347, 1.742e-2
-1.348, 1.744e-2
-1.349, 1.744e-2
-1.350, 1.742e-2
-1.351, 1.738e-2
-1.352, 1.736e-2
-1.353, 1.736e-2
-1.354, 1.737e-2
-1.355, 1.739e-2
-1.356, 1.739e-2
-1.357, 1.737e-2
-1.358, 1.734e-2
-1.359, 1.733e-2
-1.360, 1.734e-2
-1.361, 1.736e-2
-1.362, 1.737e-2
-1.363, 1.736e-2
-1.364, 1.733e-2
-1.365, 1.730e-2
-1.366, 1.730e-2
-1.367, 1.731e-2
-1.368, 1.731e-2
-1.369, 1.731e-2
-1.370, 1.730e-2
-1.371, 1.727e-2
-1.372, 1.726e-2
-1.373, 1.727e-2
-1.374, 1.730e-2
-1.375, 1.732e-2
-1.376, 1.731e-2
-1.377, 1.728e-2
-1.378, 1.725e-2
-1.379, 1.723e-2
-1.380, 1.723e-2
-1.381, 1.726e-2
-1.382, 1.727e-2
-1.383, 1.726e-2
-1.384, 1.723e-2
-1.385, 1.721e-2
-1.386, 1.722e-2
-1.387, 1.725e-2
-1.388, 1.727e-2
-1.389, 1.728e-2
-1.390, 1.726e-2
-1.391, 1.724e-2
-1.392, 1.725e-2
-1.393, 1.728e-2
-1.394, 1.733e-2
-1.395, 1.736e-2
-1.396, 1.738e-2
-1.397, 1.737e-2
-1.398, 1.735e-2
-1.399, 1.735e-2
-1.400, 1.722e-2
-1.399, 1.685e-2
-1.398, 1.649e-2
-1.397, 1.612e-2
-1.396, 1.575e-2
-1.395, 1.540e-2
-1.394, 1.510e-2
-1.393, 1.483e-2
-1.392, 1.456e-2
-1.391, 1.430e-2
-1.390, 1.402e-2
-1.389, 1.373e-2
-1.388, 1.345e-2
-1.387, 1.322e-2
-1.386, 1.300e-2
-1.385, 1.279e-2
-1.384, 1.255e-2
-1.383, 1.230e-2
-1.382, 1.205e-2
-1.381, 1.181e-2
-1.380, 1.161e-2
-1.379, 1.144e-2
-1.378, 1.124e-2
-1.377, 1.102e-2
-1.376, 1.079e-2
-1.375, 1.057e-2
-1.374, 1.038e-2
-1.373, 1.021e-2
-1.372, 1.004e-2
-1.371, 9.848e-3
-1.370, 9.635e-3
-1.369, 9.422e-3
-1.368, 9.228e-3
-1.367, 9.061e-3
-1.366, 8.913e-3
-1.365, 8.765e-3
-1.364, 8.593e-3
-1.363, 8.408e-3
-1.362, 8.223e-3
-1.361, 8.050e-3
-1.360, 7.905e-3
-1.359, 7.773e-3
-1.358, 7.634e-3
-1.357, 7.471e-3
-1.356, 7.292e-3
-1.355, 7.122e-3
-1.354, 6.980e-3
-1.353, 6.851e-3
-1.352, 6.731e-3
-1.351, 6.592e-3
-1.350, 6.435e-3
-1.349, 6.268e-3
-1.348, 6.114e-3
-1.347, 5.991e-3
-1.346, 5.886e-3
-1.345, 5.772e-3
-1.344, 5.642e-3
-1.343, 5.488e-3
-1.342, 5.331e-3
-1.341, 5.192e-3
-1.340, 5.075e-3
-1.339, 4.979e-3
-1.338, 4.868e-3
-1.337, 4.733e-3
-1.336, 4.588e-3
-1.335, 4.446e-3
-1.334, 4.332e-3
-1.333, 4.236e-3
-1.332, 4.147e-3
-1.331, 4.039e-3
-1.330, 3.913e-3
-1.329, 3.774e-3
-1.328, 3.651e-3
-1.327, 3.549e-3
-1.326, 3.466e-3
-1.325, 3.379e-3
-1.324, 3.268e-3
-1.323, 3.142e-3
-1.322, 3.015e-3
-1.321, 2.901e-3
-1.320, 2.815e-3
-1.319, 2.744e-3
-1.318, 2.658e-3
-1.317, 2.550e-3
-1.316, 2.427e-3
-1.315, 2.306e-3
-1.314, 2.214e-3
-1.313, 2.140e-3
-1.312, 2.069e-3
-1.311, 1.986e-3
-1.310, 1.875e-3
-1.309, 1.758e-3
-1.308, 1.653e-3
-1.307, 1.573e-3
-1.306, 1.511e-3
-1.305, 1.443e-3
-1.304, 1.354e-3
-1.303, 1.249e-3
-1.302, 1.141e-3
-1.301, 1.048e-3
-1.300, 9.806e-4
-1.299, 9.251e-4
-1.298, 8.573e-4
-1.297, 7.679e-4
-1.296, 6.630e-4
-1.295, 5.613e-4
-1.294, 4.842e-4
-1.293, 4.287e-4
-1.292, 3.732e-4
-1.291, 3.054e-4
-1.290, 2.129e-4
-1.289, 1.111e-4
-1.288, 2.174e-5
-1.287, -4.301e-5
-1.286, -8.925e-5
-1.285, -1.386e-4
-1.284, -2.157e-4
-1.283, -3.082e-4
-1.282, -4.006e-4
-1.281, -4.777e-4
-1.280, -5.332e-4
-1.279, -5.764e-4
-1.278, -6.288e-4
-1.277, -7.059e-4
-1.276, -8.015e-4
-1.275, -8.909e-4
-1.274, -9.525e-4
-1.273, -9.957e-4
-1.272, -1.033e-3
-1.271, -1.094e-3
-1.270, -1.171e-3
-1.269, -1.264e-3
-1.268, -1.338e-3
-1.267, -1.390e-3
-1.266, -1.427e-3
-1.265, -1.467e-3
-1.264, -1.529e-3
-1.263, -1.612e-3
-1.262, -1.692e-3
-1.261, -1.760e-3
-1.260, -1.807e-3
-1.259, -1.834e-3
-1.258, -1.877e-3
-1.257, -1.942e-3
-1.256, -2.025e-3
-1.255, -2.103e-3
-1.254, -2.158e-3
-1.253, -2.192e-3
-1.252, -2.226e-3
-1.251, -2.272e-3
-1.250, -2.343e-3
-1.249, -2.423e-3
-1.248, -2.494e-3
-1.247, -2.537e-3
-1.246, -2.562e-3
-1.245, -2.593e-3
-1.244, -2.648e-3
-1.243, -2.719e-3
-1.242, -2.796e-3
-1.241, -2.861e-3
-1.240, -2.898e-3
-1.239, -2.926e-3
-1.238, -2.963e-3
-1.237, -3.024e-3
-1.236, -3.101e-3
-1.235, -3.175e-3
-1.234, -3.216e-3
-1.233, -3.237e-3
-1.232, -3.262e-3
-1.231, -3.302e-3
-1.230, -3.360e-3
-1.229, -3.441e-3
-1.228, -3.502e-3
-1.227, -3.539e-3
-1.226, -3.561e-3
-1.225, -3.589e-3
-1.224, -3.641e-3
-1.223, -3.706e-3
-1.222, -3.774e-3
-1.221, -3.823e-3
-1.220, -3.848e-3
-1.219, -3.860e-3
-1.218, -3.885e-3
-1.217, -3.937e-3
-1.216, -4.005e-3
-1.215, -4.070e-3
-1.214, -4.110e-3
-1.213, -4.128e-3
-1.212, -4.147e-3
-1.211, -4.177e-3
-1.210, -4.233e-3
-1.209, -4.301e-3
-1.208, -4.350e-3
-1.207, -4.381e-3
-1.206, -4.399e-3
-1.205, -4.418e-3
-1.204, -4.464e-3
-1.203, -4.523e-3
-1.202, -4.591e-3
-1.201, -4.640e-3
-1.200, -4.662e-3
-1.199, -4.674e-3
-1.198, -4.702e-3
-1.197, -4.748e-3
-1.196, -4.816e-3
-1.195, -4.877e-3
-1.194, -4.914e-3
-1.193, -4.939e-3
-1.192, -4.951e-3
-1.191, -4.985e-3
-1.190, -5.038e-3
-1.189, -5.102e-3
-1.188, -5.155e-3
-1.187, -5.183e-3
-1.186, -5.195e-3
-1.185, -5.216e-3
-1.184, -5.257e-3
-1.183, -5.321e-3
-1.182, -5.383e-3
-1.181, -5.432e-3
-1.180, -5.457e-3
-1.179, -5.466e-3
-1.178, -5.494e-3
-1.177, -5.546e-3
-1.176, -5.608e-3
-1.175, -5.670e-3
-1.174, -5.704e-3
-1.173, -5.722e-3
-1.172, -5.738e-3
-1.171, -5.768e-3
-1.170, -5.824e-3
-1.169, -5.895e-3
-1.168, -5.944e-3
-1.167, -5.975e-3
-1.166, -5.987e-3
-1.165, -6.003e-3
-1.164, -6.043e-3
-1.163, -6.101e-3
-1.162, -6.163e-3
-1.161, -6.212e-3
-1.160, -6.234e-3
-1.159, -6.243e-3
-1.158, -6.271e-3
-1.157, -6.317e-3
-1.156, -6.385e-3
-1.155, -6.440e-3
-1.154, -6.474e-3
-1.153, -6.496e-3
-1.152, -6.505e-3
-1.151, -6.539e-3
-1.150, -6.592e-3
-1.149, -6.656e-3
-1.148, -6.709e-3
-1.147, -6.740e-3
-1.146, -6.758e-3
-1.145, -6.783e-3
-1.144, -6.829e-3
-1.143, -6.891e-3
-1.142, -6.958e-3
-1.141, -7.005e-3
-1.140, -7.026e-3
-1.139, -7.032e-3
-1.138, -7.057e-3
-1.137, -7.103e-3
-1.136, -7.168e-3
-1.135, -7.227e-3
-1.134, -7.261e-3
-1.133, -7.285e-3
-1.132, -7.301e-3
-1.131, -7.335e-3
-1.130, -7.387e-3
-1.129, -7.455e-3
-1.128, -7.504e-3
-1.127, -7.535e-3
-1.126, -7.547e-3
-1.125, -7.563e-3
-1.124, -7.606e-3
-1.123, -7.664e-3
-1.122, -7.729e-3
-1.121, -7.779e-3
-1.120, -7.803e-3
-1.119, -7.816e-3
-1.118, -7.843e-3
-1.117, -7.896e-3
-1.116, -7.964e-3
-1.115, -8.025e-3
-1.114, -8.071e-3
-1.113, -8.096e-3
-1.112, -8.115e-3
-1.111, -8.155e-3
-1.110, -8.213e-3
-1.109, -8.284e-3
-1.108, -8.343e-3
-1.107, -8.377e-3
-1.106, -8.395e-3
-1.105, -8.420e-3
-1.104, -8.463e-3
-1.103, -8.528e-3
-1.102, -8.599e-3
-1.101, -8.645e-3
-1.100, -8.676e-3
-1.099, -8.691e-3
-1.098, -8.719e-3
-1.097, -8.774e-3
-1.096, -8.842e-3
-1.095, -8.910e-3
-1.094, -8.953e-3
-1.093, -8.978e-3
-1.092, -9.003e-3
-1.091, -9.040e-3
-1.090, -9.095e-3
-1.089, -9.175e-3
-1.088, -9.243e-3
-1.087, -9.289e-3
-1.086, -9.320e-3
-1.085, -9.354e-3
-1.084, -9.409e-3
-1.083, -9.487e-3
-1.082, -9.564e-3
-1.081, -9.619e-3
-1.080, -9.647e-3
-1.079, -9.662e-3
-1.078, -9.690e-3
-1.077, -9.739e-3
-1.076, -9.810e-3
-1.075, -9.878e-3
-1.074, -9.918e-3
-1.073, -9.946e-3
-1.072, -9.971e-3
-1.071, -1.001e-2
-1.070, -1.008e-2
-1.069, -1.015e-2
-1.068, -1.022e-2
-1.067, -1.026e-2
-1.066, -1.029e-2
-1.065, -1.033e-2
-1.064, -1.038e-2
-1.063, -1.044e-2
-1.062, -1.050e-2
-1.061, -1.054e-2
-1.060, -1.056e-2
-1.059, -1.057e-2
-1.058, -1.059e-2
-1.057, -1.065e-2
-1.056, -1.072e-2
-1.055, -1.079e-2
-1.054, -1.084e-2
-1.053, -1.087e-2
-1.052, -1.089e-2
-1.051, -1.093e-2
-1.050, -1.099e-2
-1.049, -1.106e-2
-1.048, -1.111e-2
-1.047, -1.115e-2
-1.046, -1.117e-2
-1.045, -1.119e-2
-1.044, -1.123e-2
-1.043, -1.128e-2
-1.042, -1.135e-2
-1.041, -1.140e-2
-1.040, -1.142e-2
-1.039, -1.144e-2
-1.038, -1.147e-2
-1.037, -1.152e-2
-1.036, -1.159e-2
-1.035, -1.165e-2
-1.034, -1.170e-2
-1.033, -1.173e-2
-1.032, -1.175e-2
-1.031, -1.179e-2
-1.030, -1.185e-2
-1.029, -1.193e-2
-1.028, -1.200e-2
-1.027, -1.205e-2
-1.026, -1.207e-2
-1.025, -1.211e-2
-1.024, -1.216e-2
-1.023, -1.224e-2
-1.022, -1.232e-2
-1.021, -1.238e-2
-1.020, -1.242e-2
-1.019, -1.246e-2
-1.018, -1.250e-2
-1.017, -1.257e-2
-1.016, -1.266e-2
-1.015, -1.274e-2
-1.014, -1.279e-2
-1.013, -1.282e-2
-1.012, -1.285e-2
-1.011, -1.290e-2
-1.010, -1.297e-2
-1.009, -1.304e-2
-1.008, -1.310e-2
-1.007, -1.315e-2
-1.006, -1.318e-2
-1.005, -1.320e-2
-1.004, -1.326e-2
-1.003, -1.333e-2
-1.002, -1.341e-2
-1.001, -1.347e-2
