Potential V vs RHE, Current mA cm-2
0.013299999999999867,-0.16071120366466815
0.012299999999999978,-0.269361031494303
0.011299999999999866,-0.3061435252907939
0.010299999999999976,-0.33146685755837807
0.009299999999999864,-0.35594136304604324
0.008299999999999974,-0.3775864459339783
0.007299999999999862,-0.4013535957717109
0.006299999999999972,-0.4194619004099834
0.00529999999999986,-0.43672137826833685
0.0042999999999999705,-0.45666880759643386
0.0032999999999998586,-0.4761918235345713
0.0022999999999999687,-0.4937342436528978
0.0012999999999998568,-0.5078813566515481
0.00029999999999996696,-0.5216040562602391
-0.000700000000000145,-0.5343364579590244
-0.0017000000000000348,-0.5503226956474992
-0.0027000000000001467,-0.5603671458765411
-0.0037000000000000366,-0.5706945383655557
-0.0047000000000001485,-0.5801731040746516
-0.005700000000000038,-0.5896516697837473
-0.00670000000000015,-0.6026670137425056
-0.00770000000000004,-0.6134188196214798
-0.008700000000000152,-0.6192191359509266
-0.009700000000000042,-0.6294050573099549
-0.010700000000000154,-0.6414301033588077
-0.011700000000000044,-0.6506257268079303
-0.012700000000000156,-0.6625093017267967
-0.013700000000000045,-0.6694413870961354
-0.014700000000000157,-0.6793443661951906
-0.015700000000000047,-0.6882570473843403
-0.01670000000000016,-0.6999991511732202
-0.01770000000000005,-0.7157024466017221
-0.01870000000000016,-0.7212198206711957
-0.01970000000000005,-0.7304154441203184
-0.020700000000000163,-0.7452699127689013
-0.021700000000000053,-0.7594170257675517
-0.022700000000000164,-0.7731397253762425
-0.023700000000000054,-0.7813450509154597
-0.024700000000000166,-0.7937945103542721
-0.025700000000000056,-0.809497805782774
-0.026700000000000168,-0.8236449187814244
-0.027700000000000058,-0.8399140987298723
-0.02870000000000017,-0.8537782694685497
-0.02970000000000006,-0.8650959598674699
-0.03070000000000017,-0.8833457356357289
-0.03170000000000006,-0.9008881557540553
-0.03270000000000017,-0.9198452871722468
-0.03370000000000006,-0.9373877072905734
-0.034700000000000175,-0.9504030512493317
-0.035700000000000065,-0.9707748939673883
-0.03670000000000018,-0.9941176304151613
-0.03770000000000007,-1.0134991752233122
-0.03870000000000018,-1.0350027869812608
-0.03970000000000007,-1.0528281493595604
-0.04070000000000018,-1.075746472417374
-0.04170000000000007,-1.1023430448548366
-0.04270000000000018,-1.125827252432596
-0.04370000000000007,-1.1514335269601534
-0.044700000000000184,-1.1744933211479536
-0.045700000000000074,-1.2006654801954568
-0.046700000000000186,-1.2317891287924876
-0.047700000000000076,-1.2606492393097344
-0.04870000000000019,-1.2902167054769134
-0.04970000000000008,-1.3178035758242816
-0.05070000000000019,-1.349068695551299
-0.05170000000000008,-1.385285304827844
-0.05270000000000019,-1.421784856364362
-0.05370000000000008,-1.4585673501608527
-0.05470000000000019,-1.4925204213576138
-0.05570000000000008,-1.5321323377538347
-0.056700000000000195,-1.5745736767497858
-0.057700000000000085,-1.6226738609451972
-0.058700000000000196,-1.6651151999411482
-0.059700000000000086,-1.7118006728366943
-0.0607000000000002,-1.7655597022315657
-0.06170000000000009,-1.823562865526032
-0.0627000000000002,-1.884395451420229
-0.06370000000000009,-1.9423986147146954
-0.0647000000000002,-1.9989870667092968
-0.06570000000000009,-2.0668932091028185
-0.0667000000000002,-2.127725794997015
-0.0677000000000001,-2.1871436695913467
-0.0687000000000002,-2.2409026989862184
-0.0697000000000001,-2.280514615382439
-0.07070000000000021,-2.3130529752793345
-0.0717000000000001,-2.32861479957785
-0.07270000000000021,-2.330029510877715
-0.0737000000000001,-2.3116382639794697
-0.07470000000000021,-2.2748557701829792
-0.0757000000000001,-2.2366585650866226
-0.07670000000000021,-2.199876071290132
-0.0777000000000001,-2.1659230000933714
-0.07870000000000021,-2.1390434853959355
-0.0797000000000001,-2.1093345480987695
-0.08070000000000022,-2.0980168576998492
-0.0817000000000001,-2.0966021463999844
-0.08270000000000022,-2.095187435100119
-0.08370000000000011,-2.10367570289931
-0.08470000000000022,-2.1093345480987695
-0.08570000000000011,-2.1192375271978254
-0.08670000000000022,-2.1404581966958003
-0.08770000000000011,-2.1574347322941807
-0.08870000000000022,-2.177240690492291
-0.08970000000000011,-2.194217226090672
-0.09070000000000022,-2.2140231842887825
-0.09170000000000011,-2.2394879876863527
-0.09270000000000023,-2.2691969249835187
-0.09370000000000012,-2.296076439680954
-0.09470000000000023,-2.3257853769781205
-0.09570000000000012,-2.351250180375691
-0.09670000000000023,-2.385203251572452
-0.09770000000000012,-2.4191563227692128
-0.09870000000000023,-2.4545241052658384
-0.09970000000000012,-2.4884771764625997
-0.10070000000000023,-2.5252596702590906
-0.10170000000000012,-2.5648715866553116
-0.10270000000000024,-2.6087276369511274
-0.10370000000000013,-2.648339553347349
-0.10470000000000024,-2.6907808923433
-0.10570000000000013,-2.7289780974396556
-0.10670000000000024,-2.772834147735472
-0.10770000000000013,-2.823763754530613
-0.10870000000000024,-2.8761080726256196
-0.10970000000000013,-2.919964122921436
-0.11070000000000024,-2.9694790184167124
-0.11170000000000013,-3.0189939139119883
-0.11270000000000002,-3.0713382320069944
-0.11370000000000013,-3.129341395301461
-0.11470000000000002,-3.1802710020966023
-0.11570000000000014,-3.235444742791339
-0.11670000000000003,-3.2934479060858055
-0.11770000000000014,-3.3443775128809468
-0.11870000000000003,-3.403795387475278
-0.11970000000000014,-3.45472499427042
-0.12070000000000003,-3.509898734965156
-0.12170000000000014,-3.576390166058813
-0.12270000000000003,-3.6287344841538194
-0.12370000000000014,-3.686737647448285
-0.12470000000000003,-3.7404966768431565
-0.12570000000000014,-3.7970851288377587
-0.12670000000000003,-3.8635765599314156
-0.12770000000000015,-3.9173355893262864
-0.12870000000000004,-3.965435773521698
-0.12970000000000015,-4.019194802916569
-0.13070000000000004,-4.067294987111981
-0.13170000000000015,-4.122468727806717
-0.13270000000000004,-4.1762277572015885
-0.13370000000000015,-4.220083807497405
-0.13470000000000004,-4.2611104351934905
-0.13570000000000015,-4.297892928989982
-0.13670000000000004,-4.343163690585662
-0.13770000000000016,-4.381360895682018
-0.13870000000000005,-4.4124845442790495
-0.13970000000000016,-4.4379493476766205
-0.14070000000000005,-4.463414151074191
-0.14170000000000016,-4.487464243171897
-0.14270000000000005,-4.511514335269602
-0.14370000000000016,-4.525661448268252
-0.14470000000000005,-4.535564427367307
-0.14570000000000016,-4.546882117766228
-0.14670000000000005,-4.555370385565419
-0.14770000000000016,-4.561029230764878
-0.14870000000000005,-4.5638586533646075
-0.14970000000000017,-4.562443942064744
-0.15070000000000006,-4.565273364664473
-0.15170000000000017,-4.570932209863933
-0.15270000000000006,-4.568102787264204
-0.15370000000000017,-4.561029230764878
-0.15470000000000006,-4.555370385565419
-0.15570000000000017,-4.555370385565419
-0.15670000000000006,-4.559614519465013
-0.15770000000000017,-4.566688075964338
-0.15870000000000006,-4.572346921163798
-0.15970000000000018,-4.5765910550633935
-0.16070000000000007,-4.587908745462314
-0.16170000000000018,-4.610544126260154
-0.16270000000000007,-4.638838352257455
-0.16370000000000018,-4.668547289554621
-0.16470000000000007,-4.695426804252056
-0.16570000000000018,-4.725135741549222
-0.16670000000000007,-4.768991791845038
-0.16770000000000018,-4.810018419541125
-0.16870000000000007,-4.856703892436671
-0.16970000000000018,-4.904804076632082
-0.17070000000000007,-4.9571483947270885
-0.17170000000000019,-5.012322135421825
-0.17270000000000008,-5.071740010016156
-0.1737000000000002,-5.128328462010757
-0.17470000000000008,-5.18774633660509
-0.1757000000000002,-5.242920077299826
-0.17670000000000008,-5.307996797093617
-0.1777000000000002,-5.377317650787004
-0.17870000000000008,-5.438150236681202
-0.1797000000000002,-5.498982822575398
-0.18070000000000008,-5.564059542369189
-0.1817000000000002,-5.624892128263387
-0.18270000000000008,-5.692798270656908
-0.1837000000000002,-5.756460279150835
-0.1847000000000001,-5.815878153745166
-0.1857000000000002,-5.880954873538958
-0.1867000000000001,-5.94320217073302
-0.1877000000000002,-6.011108313126541
-0.1887000000000001,-6.0719408990207375
-0.1897000000000002,-6.134188196214799
-0.1907000000000001,-6.196435493408861
-0.1917000000000001,-6.257268079303058
-0.19269999999999998,-6.323759510396714
-0.1937000000000001,-6.376103828491721
-0.19469999999999998,-6.435521703086052
-0.1957000000000001,-6.489280732480923
-0.19669999999999999,-6.548698607075254
-0.1977000000000001,-6.603872347769991
-0.1987,-6.657631377164862
-0.1997000000000001,-6.7085609839600036
-0.2007,-6.756661168155415
-0.2017000000000001,-6.811834908850152
-0.2027,-6.864179226945158
-0.2037000000000001,-6.9122794111405685
-0.2047,-6.954720750136521
-0.2057000000000001,-6.987259110033416
-0.2067,-7.032529871629097
-0.2077000000000001,-7.073556499325184
-0.2087,-7.118827260920864
-0.2097000000000001,-7.14853619821803
-0.2107,-7.179659846815062
-0.2117000000000001,-7.212198206711958
-0.2127,-7.237663010109527
-0.2137000000000001,-7.267371947406693
-0.2147,-7.2928367508042635
-0.2157000000000001,-7.321130976801564
-0.2167,-7.336692801100081
-0.21770000000000012,-7.355084047998325
-0.2187,-7.366401738397246
-0.21970000000000012,-7.374890006196437
-0.2207,-7.384792985295491
-0.22170000000000012,-7.391866541794816
-0.2227,-7.404598943493602
-0.22370000000000012,-7.403184232193737
-0.2247,-7.398940098294142
-0.22570000000000012,-7.396110675694412
-0.2267,-7.389037119195086
-0.22770000000000012,-7.384792985295491
-0.22870000000000001,-7.376304717496302
-0.22970000000000013,-7.363572315797517
-0.23070000000000002,-7.3508399140987315
-0.23170000000000013,-7.33386337850035
-0.23270000000000002,-7.3197162655017
-0.23370000000000013,-7.304154441203185
-0.23470000000000002,-7.278689637805614
-0.23570000000000013,-7.256054257007774
-0.23670000000000002,-7.236248298809663
-0.2376999999999999,-7.215027629311687
-0.23870000000000002,-7.193806959813711
-0.2396999999999999,-7.16268331121668
-0.24070000000000003,-7.135803796519245
-0.24169999999999991,-7.1145831270212705
-0.24270000000000003,-7.086288901023969
-0.24369999999999992,-7.050921118527342
-0.24470000000000003,-7.019797469930312
-0.24569999999999992,-6.987259110033416
-0.24670000000000003,-6.961794306635846
-0.24769999999999992,-6.933500080638546
-0.24870000000000003,-6.899547009441784
-0.24969999999999992,-6.865593938245023
-0.25070000000000003,-6.828811444448532
-0.2516999999999999,-6.800517218451231
-0.25270000000000004,-6.770808281154065
-0.2536999999999999,-6.742514055156764
-0.25470000000000004,-6.714219829159464
-0.2556999999999999,-6.677437335362973
-0.25670000000000004,-6.6491431093656725
-0.25769999999999993,-6.620848883368372
-0.25870000000000004,-6.589725234771341
-0.25969999999999993,-6.562845720073906
-0.26070000000000004,-6.534551494076605
-0.26169999999999993,-6.509086690679034
-0.26270000000000004,-6.487866021181058
-0.26369999999999993,-6.462401217783487
-0.26470000000000005,-6.434106991786186
-0.26569999999999994,-6.411471610988346
-0.26670000000000005,-6.39590978668983
-0.26769999999999994,-6.371859694592125
-0.26870000000000005,-6.3548831589937445
-0.26969999999999994,-6.332247778195904
-0.27070000000000005,-6.3152712425975235
-0.27169999999999994,-6.299709418299008
-0.27270000000000005,-6.286977016600223
-0.27369999999999994,-6.272829903601573
-0.27470000000000006,-6.250194522803732
-0.27569999999999995,-6.231803275905486
-0.27670000000000006,-6.226144430706027
-0.27769999999999995,-6.219070874206701
-0.27870000000000006,-6.211997317707376
-0.27969999999999995,-6.193606070809131
-0.28070000000000006,-6.17945895781048
-0.28169999999999995,-6.1766295352107505
-0.28270000000000006,-6.169555978711425
-0.28369999999999995,-6.16531184481183
-0.28470000000000006,-6.161067710912235
-0.28569999999999995,-6.1511647318131795
-0.28670000000000007,-6.155408865712774
-0.28769999999999996,-6.152579443113044
-0.28870000000000007,-6.152579443113044
-0.28969999999999996,-6.149750020513314
-0.29070000000000007,-6.142676464013989
-0.29169999999999996,-6.152579443113044
-0.29270000000000007,-6.15682357701264
-0.29369999999999996,-6.1624824222121
-0.2947000000000001,-6.16814126741156
-0.29569999999999996,-6.155408865712774
-0.2967000000000001,-6.1624824222121
-0.29769999999999996,-6.166726556111695
-0.2987000000000001,-6.178044246510615
-0.29969999999999997,-6.183703091710075
-0.3007000000000001,-6.18511780300994
-0.30169999999999997,-6.192191359509266
-0.3027000000000001,-6.199264916008591
-0.30369999999999997,-6.204923761208051
-0.3047000000000001,-6.211997317707376
-0.30569999999999997,-6.213412029007241
-0.3067000000000001,-6.217656162906836
-0.3077,-6.2233150081062965
-0.3087000000000001,-6.231803275905486
-0.3097,-6.2360474098050815
-0.3107000000000001,-6.234632698505217
-0.3117,-6.231803275905486
-0.3127000000000001,-6.231803275905486
-0.3137,-6.234632698505217
-0.3147000000000001,-6.228973853305757
-0.3157,-6.227559142005892
-0.3167000000000001,-6.221900296806432
-0.3177,-6.2162414516069715
-0.3187000000000001,-6.209167895107646
-0.3197,-6.193606070809131
-0.3207000000000001,-6.17945895781048
-0.3217,-6.1709706900112895
-0.3227000000000001,-6.1511647318131795
-0.3237,-6.132773484914934
-0.3247000000000001,-6.110138104117093
-0.3257,-6.083258589419658
-0.3267000000000001,-6.060623208621817
-0.3277,-6.033743693924381
-0.3287000000000001,-6.004034756627216
-0.3297,-5.97149639673032
-0.3307000000000001,-5.933299191633965
-0.3317,-5.896516697837473
-0.3327000000000001,-5.859734204040981
-0.3337,-5.815878153745166
-0.3347000000000001,-5.772022103449349
-0.3357,-5.722507207954074
-0.3367000000000001,-5.678651157658257
-0.3377,-5.6333803960625755
-0.3387000000000001,-5.57820665536784
-0.3397,-5.525862337272833
-0.3407000000000001,-5.470688596578097
-0.3417,-5.4169295671832245
-0.3427000000000001,-5.365999960388084
-0.3437,-5.306582085793753
-0.3447000000000001,-5.247164211199421
-0.3457,-5.189161047904955
-0.3467000000000001,-5.128328462010757
-0.3477,-5.073154721316022
-0.3487000000000001,-5.01656626932142
-0.3497,-4.955733683427223
-0.3507000000000001,-4.894901097533027
-0.3517,-4.83406851163883
-0.3527000000000001,-4.778894770944094
-0.3537,-4.7208916076496275
-0.3547000000000001,-4.66005902175543
-0.3557,-4.6020558584609645
-0.35670000000000013,-4.548296829066093
-0.3577,-4.494537799671222
-0.35870000000000013,-4.442193481576215
-0.3597,-4.384190318281749
-0.36070000000000013,-4.330431288886877
-0.3617,-4.283745815991331
-0.3626999999999999,-4.234230920496055
-0.3637,-4.184716025000778
-0.3646999999999999,-4.136615840805367
-0.3657,-4.088515656609956
-0.3666999999999999,-4.043244895014275
-0.3677,-4.003632978618054
-0.3686999999999999,-3.962606350921967
-0.36970000000000003,-3.9215797232258818
-0.3706999999999999,-3.8777236729300655
-0.37170000000000003,-3.8395264678337093
-0.3726999999999999,-3.8055733966369485
-0.37370000000000003,-3.765961480240728
-0.3746999999999999,-3.733423120343832
-0.37570000000000003,-3.698055337847206
-0.3766999999999999,-3.6655169779503103
-0.37770000000000004,-3.6386374632528744
-0.3786999999999999,-3.606099103355979
-0.37970000000000004,-3.5749754547589476
-0.3806999999999999,-3.546681228761647
-0.38170000000000004,-3.5183870027643462
-0.38269999999999993,-3.4971663332663705
-0.38370000000000004,-3.46887210726907
-0.38469999999999993,-3.4434073038714996
-0.38570000000000004,-3.4207719230736586
-0.38669999999999993,-3.043044006009694
-0.38570000000000004,-2.6794632019443796
-0.38469999999999993,-2.472915352164084
-0.38370000000000004,-2.30597941878001
-0.38269999999999993,-2.1531905983945863
-0.38170000000000004,-2.017378313607542
-0.3806999999999999,-1.897127853119014
-0.37970000000000004,-1.781121526530081
-0.3786999999999999,-1.6764328903400685
-0.37770000000000004,-1.5788178106493809
-0.3766999999999999,-1.4882762874580184
-0.37570000000000003,-1.405232734155941
-0.3746999999999999,-1.3237453632837148
-0.37370000000000003,-1.2477753664809623
-0.3726999999999999,-1.1787374550475485
-0.37170000000000003,-1.1126704373438514
-0.3706999999999999,-1.0550916874393443
-0.36970000000000003,-0.9944005726751344
-0.3686999999999999,-0.9373877072905734
-0.3677,-0.887023985015378
-0.3666999999999999,-0.8390652719499533
-0.3657,-0.7928042124443665
-0.3646999999999999,-0.7492311044085235
-0.3637,-0.7029700449029368
-0.3626999999999999,-0.6643484264166213
-0.3617,-0.6272829903601572
-0.36070000000000013,-0.5924810923834773
-0.3597,-0.5613574437864466
-0.35870000000000013,-0.5251408345099016
-0.3577,-0.4921780612230462
-0.35670000000000013,-0.4627520661858534
-0.3557,-0.4343163690585663
-0.3547000000000001,-0.4080027388810766
-0.3537,-0.38055733966369487
-0.3527000000000001,-0.3535363538362727
-0.3517,-0.3311839152984051
-0.3507000000000001,-0.30925589015049704
-0.3497,-0.288459634042481
-0.3487000000000001,-0.2659657243746269
-0.3477,-0.2429059301868268
-0.3467000000000001,-0.22550498119848683
-0.3457,-0.2078210899501739
-0.3447000000000001,-0.19056161209182043
-0.3437,-0.17245330745354798
-0.3427000000000001,-0.15462794507524852
-0.3417,-0.1387265900647655
-0.3407000000000001,-0.1276352534738236
-0.3397,-0.11139436775137299
-0.3387000000000001,-0.09556374830588323
-0.3377,-0.08076586810929494
-0.3367000000000001,-0.06663290222364322
-0.3357,-0.0577768094864881
-0.3347000000000001,-0.04406825699079589
-0.3337,-0.028789374952253494
-0.3327000000000001,-0.017457537440334552
-0.3317,-0.0060408172504237065
-0.3307000000000001,0.002877522783925485
-0.3297,0.014812027309586936
-0.3287000000000001,0.02819519620631018
-0.3277,0.03833867622634249
-0.3267000000000001,0.048821686958342415
-0.3257,0.057904133503475945
-0.3247000000000001,0.06751002322955955
-0.3237,0.0793228625834326
-0.3227000000000001,0.08892875230951619
-0.3217,0.09748775567369967
-0.3207000000000001,0.10542428606594254
-0.3197,0.11357302315316514
-0.3187000000000001,0.12275449948928924
-0.3177,0.13393071875822302
-0.3167000000000001,0.1397451822006683
-0.3157,0.14812027309586934
-0.3147000000000001,0.15632559863508652
-0.3137,0.16509680869424978
-0.3127000000000001,0.1771218547431026
-0.3117,0.18334658446250876
-0.3107000000000001,0.18815660288204988
-0.3097,0.19890840876102414
-0.3087000000000001,0.20527460961041682
-0.3077,0.2156020020994316
-0.3067000000000001,0.2198461359990267
-0.30569999999999997,0.22522203893851384
-0.3047000000000001,0.23696414272739363
-0.30369999999999997,0.2423400456668808
-0.3027000000000001,0.25295038041586854
-0.30169999999999997,0.25903363900528825
-0.3007000000000001,0.2607312925651262
-0.29969999999999997,0.27049280053419505
-0.2987000000000001,0.27841518381343927
-0.29769999999999996,0.28676198048264295
-0.2967000000000001,0.2938355369819681
-0.29569999999999996,0.2972308441016442
-0.2947000000000001,0.30458734286094236
-0.29369999999999996,0.3110950148403216
-0.29270000000000007,0.3184515135996197
-0.29169999999999996,0.3252421278389719
-0.29070000000000007,0.329203319478594
-0.28969999999999996,0.3352865780680137
-0.28870000000000007,0.34391631699719044
-0.28769999999999996,0.3519801714064211
-0.28670000000000007,0.3574975454758948
-0.28569999999999995,0.36315639067535493
-0.28470000000000006,0.3669761111849905
-0.28369999999999995,0.37631320576409977
-0.28270000000000006,0.38310382000345194
-0.28169999999999995,0.3874894250330335
-0.28070000000000006,0.3941385681423992
-0.27969999999999995,0.3989485865619403
-0.27870000000000006,0.40630508532123855
-0.27769999999999995,0.4149348242504153
-0.27670000000000006,0.4194619004099834
-0.27569999999999995,0.4237060343095785
-0.27470000000000006,0.4306381196789172
-0.27369999999999994,0.43742873391826936
-0.27270000000000005,0.4456340594574866
-0.27169999999999994,0.4490293665771626
-0.27070000000000005,0.45185878917689276
-0.26969999999999994,0.45751763437635284
-0.26870000000000005,0.4641667774857185
-0.26769999999999994,0.4730794586748682
