Potential V vs RHE, Current mA cm-2
0.013299999999999867,2.4842330425630044
0.012299999999999978,1.0446228238203432
0.011299999999999866,-0.2202705493889862
0.010299999999999976,-1.3980177065266295
0.009299999999999864,-2.4446211261667834
0.008299999999999974,-3.403795387475278
0.007299999999999862,-4.23281620919619
0.006299999999999972,-4.974124930325469
0.00529999999999986,-5.585280211867165
0.0042999999999999705,-6.152579443113044
0.0032999999999998586,-6.632166573767292
0.0022999999999999687,-7.155609754717355
0.0012999999999998568,-7.7653503249591855
0.00029999999999996696,-8.332649556205066
-0.000700000000000145,-8.899948787450944
-0.0017000000000000348,-9.467248018696827
-0.0027000000000001467,-9.946835149351072
-0.0037000000000000366,-10.382566229709504
-0.0047000000000001485,-10.731999920776168
-0.005700000000000038,-11.037577561547016
-0.00670000000000015,-11.343155202317865
-0.00770000000000004,-11.691174182084664
-0.008700000000000152,-12.084463923447142
-0.009700000000000042,-12.520195003805576
-0.010700000000000154,-12.99978213445982
-0.011700000000000044,-13.436927926118118
-0.012700000000000156,-13.828802956180734
-0.013700000000000045,-14.13438059695158
-0.014700000000000157,-14.401761032626075
-0.015700000000000047,-14.61396772760583
-0.01670000000000016,-14.868615761581536
-0.01770000000000005,-15.179852247551842
-0.01870000000000016,-15.533530072518102
-0.01970000000000005,-15.91550212348166
-0.020700000000000163,-16.354062626439823
-0.021700000000000053,-16.750181790402035
-0.022700000000000164,-17.103859615368293
-0.023700000000000054,-17.358507649344002
-0.024700000000000166,-17.627302796318357
-0.025700000000000056,-17.839509491298113
-0.026700000000000168,-18.06586329927652
-0.027700000000000058,-18.362952672248177
-0.02870000000000017,-18.716630497214435
-0.02970000000000006,-19.112749661176647
-0.03070000000000017,-19.49472171214021
-0.03170000000000006,-19.93328221509837
-0.03270000000000017,-20.286960040064624
-0.03370000000000006,-20.541608074040333
-0.034700000000000175,-20.810403221014692
-0.035700000000000065,-21.065051254990397
-0.03670000000000018,-21.333846401964752
-0.03770000000000007,-21.58849443594046
-0.03870000000000018,-21.98461359990267
-0.03970000000000007,-22.38073276386488
-0.04070000000000018,-22.819293266823045
-0.04170000000000007,-23.24370665678255
-0.04270000000000018,-23.639825820744765
-0.04370000000000007,-23.951062306715073
-0.044700000000000184,-24.20571034069078
-0.045700000000000074,-24.432064148669184
-0.046700000000000186,-24.686712182644893
-0.047700000000000076,-24.997948668615198
-0.04870000000000019,-25.337479380582806
-0.04970000000000008,-25.77603988354097
-0.05070000000000019,-26.257041725495082
-0.05170000000000008,-26.738043567449193
-0.05270000000000019,-27.134162731411404
-0.05370000000000008,-27.487840556377662
-0.05470000000000019,-27.78492992934932
-0.05570000000000008,-28.011283737327723
-0.056700000000000195,-28.265931771303435
-0.057700000000000085,-28.577168257273744
-0.058700000000000196,-28.959140308237306
-0.059700000000000086,-29.39770081119546
-0.0607000000000002,-29.836261314153624
-0.06170000000000009,-30.359704495103685
-0.0627000000000002,-30.79826499806185
-0.06370000000000009,-31.137795710029454
-0.0647000000000002,-31.40659085700382
-0.06570000000000009,-31.661238890979522
-0.0667000000000002,-31.930034037953877
-0.0677000000000001,-32.283711862920136
-0.0687000000000002,-32.66568391388369
-0.0697000000000001,-33.10424441684186
-0.07070000000000021,-33.58524625879597
-0.0717000000000001,-34.02380676175414
-0.07270000000000021,-34.50480860370825
-0.0737000000000001,-34.85848642867451
-0.07470000000000021,-35.11313446265021
-0.0757000000000001,-35.42437094862052
-0.07670000000000021,-35.679018982596226
-0.0777000000000001,-35.99025546856653
-0.07870000000000021,-36.37222751953009
-0.0797000000000001,-36.768346683492304
-0.08070000000000022,-37.249348525446415
-0.0817000000000001,-37.687909028404576
-0.08270000000000022,-38.08402819236679
-0.08370000000000011,-38.42355890433439
-0.08470000000000022,-38.692354051308754
-0.08570000000000011,-38.94700208528445
-0.08670000000000022,-39.21579723225882
-0.08770000000000011,-39.51288660523048
-0.08870000000000022,-39.86656443019674
-0.08970000000000011,-40.30512493315489
-0.09070000000000022,-40.78612677510901
-0.09170000000000011,-41.22468727806717
-0.09270000000000023,-41.606659329030734
-0.09370000000000012,-41.96033715399699
-0.09470000000000023,-42.229132300971344
-0.09570000000000012,-42.4413389959511
-0.09670000000000023,-42.71013414292546
-0.09770000000000012,-43.007223515897124
-0.09870000000000023,-43.36090134086337
-0.09970000000000012,-43.79946184382153
-0.10070000000000023,-44.181433894785094
-0.10170000000000012,-44.619994397743255
-0.10270000000000024,-44.97367222270952
-0.10370000000000013,-45.32735004767578
-0.10470000000000024,-45.53955674265553
-0.10570000000000013,-45.79420477663124
-0.10670000000000024,-46.02055858460964
-0.10770000000000013,-46.27520661858535
-0.10870000000000024,-46.628884443551605
-0.10970000000000013,-47.02500360751382
-0.11070000000000024,-47.40697565847737
-0.11170000000000013,-47.84553616143554
-0.11270000000000002,-48.1992139864018
-0.11370000000000013,-48.51045047237211
-0.11470000000000002,-48.72265716735186
-0.11570000000000014,-48.93486386233162
-0.11670000000000003,-49.16121767031002
-0.11770000000000014,-49.373424365289786
-0.11870000000000003,-49.72710219025603
-0.11970000000000014,-50.0807800152223
-0.12070000000000003,-50.46275206618586
-0.12170000000000014,-50.85887123014807
-0.12270000000000003,-51.21254905511432
-0.12370000000000014,-51.509638428085985
-0.12470000000000003,-51.73599223606439
-0.12570000000000014,-51.948198931044146
-0.12670000000000003,-52.17455273902255
-0.12770000000000015,-52.386759434002315
-0.12870000000000004,-52.69799591997262
-0.12970000000000015,-52.995085292944275
-0.13070000000000004,-53.39120445690648
-0.13170000000000015,-53.7873236208687
-0.13270000000000004,-54.1268543328363
-0.13370000000000015,-54.39564947981066
-0.13470000000000004,-54.60785617479041
-0.13570000000000015,-54.73518019177827
-0.13670000000000004,-54.919092660760725
-0.13770000000000016,-55.088858016744524
-0.13870000000000005,-55.442535841710786
-0.13970000000000016,-55.73962521468245
-0.14070000000000005,-56.13574437864466
-0.14170000000000016,-56.53186354260687
-0.14270000000000005,-56.88554136757313
-0.14370000000000016,-57.14018940154883
-0.14470000000000005,-57.30995475753264
-0.14570000000000016,-57.45142588751914
-0.14670000000000005,-57.62119124350295
-0.14770000000000016,-57.8333979384827
-0.14870000000000005,-58.10219308545706
-0.14970000000000017,-58.39928245842871
-0.15070000000000006,-58.71051894439902
-0.15170000000000017,-59.02175543036933
-0.15270000000000006,-59.19152078635314
-0.15370000000000017,-59.36128614233694
-0.15470000000000006,-59.44616882032884
-0.15570000000000017,-59.587639950315335
-0.15670000000000006,-59.757405306299155
-0.15770000000000017,-59.9696120012789
-0.15870000000000006,-60.32328982624517
-0.15970000000000018,-60.63452631221547
-0.16070000000000007,-60.93161568518713
-0.16170000000000018,-61.28529351015339
-0.16270000000000007,-61.53994154412909
-0.16370000000000018,-61.72385401311155
-0.16470000000000007,-61.80873669110345
-0.16570000000000018,-61.851178030099405
-0.16670000000000007,-61.936060708091304
-0.16770000000000018,-62.02094338608321
-0.16870000000000007,-62.16241451606972
-0.16970000000000018,-62.41706255004542
-0.17070000000000007,-62.72829903601572
-0.17170000000000019,-63.06782974798333
-0.17270000000000008,-63.37906623395363
-0.1737000000000002,-63.54883158993744
-0.17470000000000008,-63.732744058919906
-0.1757000000000002,-63.81762673691181
-0.17670000000000008,-63.902509414903705
-0.1777000000000002,-64.0722747708875
-0.17870000000000008,-64.29862857886593
-0.1797000000000002,-64.55327661284163
-0.18070000000000008,-64.86451309881193
-0.1817000000000002,-65.0767197937917
-0.18270000000000008,-65.2464851497755
-0.1837000000000002,-65.34551494076604
-0.1847000000000001,-65.43039761875795
-0.1857000000000002,-65.5577216357458
-0.1867000000000001,-65.64260431373769
-0.1877000000000002,-65.86895812171612
-0.1887000000000001,-66.03872347769992
-0.1897000000000002,-66.34995996367022
-0.1907000000000001,-66.64704933664189
-0.1917000000000001,-66.9582858226122
-0.19269999999999998,-67.25537519558385
-0.1937000000000001,-67.48172900356225
-0.19469999999999998,-67.65149435954605
-0.1957000000000001,-67.73637703753796
-0.19669999999999999,-67.7788183765339
-0.1977000000000001,-67.82125971552985
-0.1987,-67.9202895065204
-0.1997000000000001,-68.0051721845123
-0.2007,-68.21737887949207
-0.2017000000000001,-68.48617402646643
-0.2027,-68.69838072144618
-0.2037000000000001,-68.91058741642594
-0.2047,-69.05205854641244
-0.2057000000000001,-69.1793825634003
-0.2067,-69.26426524139221
-0.2077000000000001,-69.30670658038814
-0.2087,-69.39158925838004
-0.2097000000000001,-69.57550172736251
-0.2107,-69.70282574435035
-0.2117000000000001,-69.87259110033416
-0.2127,-70.09894490831257
-0.2137000000000001,-70.22626892530042
-0.2147,-70.26871026429637
-0.2157000000000001,-70.18382758630447
-0.2167,-70.26871026429637
-0.21770000000000012,-70.39603428128423
-0.2187,-70.62238808926263
-0.21970000000000012,-70.87703612323833
-0.2207,-71.10338993121674
-0.22170000000000012,-71.35803796519245
-0.2227,-71.6268331121668
-0.22370000000000012,-71.7965984681506
-0.2247,-71.83903980714656
-0.22570000000000012,-71.8814811461425
-0.2267,-71.92392248513846
-0.22770000000000012,-72.00880516313036
-0.22870000000000001,-72.15027629311687
-0.22970000000000013,-72.36248298809663
-0.23070000000000002,-72.57468968307639
-0.23170000000000013,-72.84348483005074
-0.23270000000000002,-73.01325018603454
-0.23370000000000013,-73.15472131602105
-0.23470000000000002,-73.197162655017
-0.23570000000000013,-73.2820453330089
-0.23670000000000002,-73.32448667200485
-0.2376999999999999,-73.40936934999675
-0.23870000000000002,-73.57913470598055
-0.2396999999999999,-73.80548851395896
-0.24070000000000003,-74.0176952089387
-0.24169999999999991,-74.24404901691713
-0.24270000000000003,-74.37137303390499
-0.24369999999999992,-74.45625571189689
-0.24470000000000003,-74.54113838988879
-0.24569999999999992,-74.58357972888473
-0.24670000000000003,-74.62602106788069
-0.24769999999999992,-74.72505085887124
-0.24870000000000003,-74.93725755385098
-0.24969999999999992,-75.1070229098348
-0.25070000000000003,-75.33337671781321
-0.2516999999999999,-75.50314207379701
-0.25270000000000004,-75.6729074297808
-0.2536999999999999,-75.81437855976732
-0.25470000000000004,-75.85681989876326
-0.2556999999999999,-75.8992612377592
-0.25670000000000004,-75.94170257675518
-0.25769999999999993,-76.06902659374302
-0.25870000000000004,-76.29538040172143
-0.25969999999999993,-76.50758709670117
-0.26070000000000004,-76.71979379168094
-0.26169999999999993,-76.94614759965934
-0.26270000000000004,-77.11591295564315
-0.26369999999999993,-77.20079563363505
-0.26470000000000005,-77.243236972631
-0.26569999999999994,-77.243236972631
-0.26670000000000005,-77.28567831162695
-0.26769999999999994,-77.34226676362155
-0.26870000000000005,-77.46959078060941
-0.26969999999999994,-77.59691479759726
-0.27070000000000005,-77.7242388145851
-0.27169999999999994,-77.90815128356756
-0.27270000000000005,-78.03547530055542
-0.27369999999999994,-78.12035797854733
-0.27470000000000006,-78.16279931754329
-0.27569999999999995,-78.20524065653922
-0.27670000000000006,-78.20524065653922
-0.27769999999999995,-78.20524065653922
-0.27870000000000006,-78.29012333453113
-0.27969999999999995,-78.43159446451764
-0.28070000000000006,-78.60135982050144
-0.28169999999999995,-78.8135665154812
-0.28270000000000006,-78.99747898446365
-0.28369999999999995,-79.08236166245555
-0.28470000000000006,-79.1248030014515
-0.28569999999999995,-79.08236166245555
-0.28670000000000007,-79.0399203234596
-0.28769999999999996,-79.0399203234596
-0.28870000000000007,-79.1248030014515
-0.28969999999999996,-79.25212701843935
-0.29070000000000007,-79.47848082641775
-0.29169999999999996,-79.69068752139752
-0.29270000000000007,-79.81801153838538
-0.29369999999999996,-79.86045287738132
-0.2947000000000001,-79.86045287738132
-0.29569999999999996,-79.81801153838538
-0.2967000000000001,-79.7755701993894
-0.29769999999999996,-79.64824618240156
-0.2987000000000001,-79.73312886039348
-0.29969999999999997,-79.90289421637728
-0.3007000000000001,-80.08680668535972
-0.30169999999999997,-80.21413070234757
-0.3027000000000001,-80.25657204134353
-0.30369999999999997,-80.25657204134353
-0.3047000000000001,-80.21413070234757
-0.30569999999999997,-80.17168936335163
-0.3067000000000001,-80.17168936335163
-0.3077,-80.25657204134353
-0.3087000000000001,-80.38389605833139
-0.3097,-80.56780852731384
-0.3107000000000001,-80.73757388329766
-0.3117,-80.90733923928146
-0.3127000000000001,-80.99222191727335
-0.3137,-80.99222191727335
-0.3147000000000001,-80.9497805782774
-0.3157,-80.86489790028548
-0.3167000000000001,-80.82245656128954
-0.3177,-80.82245656128954
-0.3187000000000001,-80.90733923928146
-0.3197,-81.04881036926795
-0.3207000000000001,-81.21857572525175
-0.3217,-81.38834108123557
-0.3227000000000001,-81.47322375922747
-0.3237,-81.51566509822342
-0.3247000000000001,-81.51566509822342
-0.3257,-81.43078242023151
-0.3267000000000001,-81.38834108123557
-0.3277,-81.38834108123557
-0.3287000000000001,-81.47322375922747
-0.3297,-81.57225355021802
-0.3307000000000001,-81.69957756720586
-0.3317,-81.82690158419373
-0.3327000000000001,-81.86934292318966
-0.3337,-81.86934292318966
-0.3347000000000001,-81.86934292318966
-0.3357,-81.78446024519776
-0.3367000000000001,-81.69957756720586
-0.3377,-81.65713622820991
-0.3387000000000001,-81.65713622820991
-0.3397,-81.78446024519776
-0.3407000000000001,-81.86934292318966
-0.3417,-82.03910827917348
-0.3427000000000001,-82.13813807016405
-0.3437,-82.18057940915998
-0.3447000000000001,-82.13813807016405
-0.3457,-82.09569673116808
-0.3467000000000001,-81.99666694017753
-0.3477,-81.99666694017753
-0.3487000000000001,-82.03910827917348
-0.3497,-82.09569673116808
-0.3507000000000001,-82.26546208715187
-0.3517,-82.35034476514379
-0.3527000000000001,-82.39278610413973
-0.3537,-82.35034476514379
-0.3547000000000001,-82.30790342614785
-0.3557,-82.22302074815593
-0.35670000000000013,-82.13813807016405
-0.3577,-82.09569673116808
-0.35870000000000013,-82.18057940915998
-0.3597,-82.30790342614785
-0.36070000000000013,-82.43522744313569
-0.3617,-82.56255146012353
-0.3626999999999999,-82.61913991211814
-0.3637,-82.56255146012353
-0.3646999999999999,-82.47766878213164
-0.3657,-82.39278610413973
-0.3666999999999999,-82.30790342614785
-0.3677,-82.26546208715187
-0.3686999999999999,-82.30790342614785
-0.36970000000000003,-82.43522744313569
-0.3706999999999999,-82.56255146012353
-0.37170000000000003,-82.70402259011003
-0.3726999999999999,-82.746463929106
-0.37370000000000003,-82.746463929106
-0.3746999999999999,-82.70402259011003
-0.37570000000000003,-82.61913991211814
-0.3766999999999999,-82.52011012112759
-0.37770000000000004,-82.43522744313569
-0.3786999999999999,-82.43522744313569
-0.37970000000000004,-82.52011012112759
-0.3806999999999999,-82.61913991211814
-0.38170000000000004,-82.70402259011003
-0.38269999999999993,-82.78890526810196
-0.38370000000000004,-82.78890526810196
-0.38469999999999993,-82.746463929106
-0.38570000000000004,-82.6615812511141
-0.38669999999999993,-82.61913991211814
-0.38770000000000004,-82.56255146012353
-0.38869999999999993,-82.61913991211814
-0.38970000000000005,-82.70402259011003
-0.39069999999999994,-82.8313466070979
-0.39170000000000005,-82.95867062408576
-0.39269999999999994,-83.0011119630817
-0.39370000000000005,-83.0011119630817
-0.39469999999999994,-82.9162292850898
-0.39570000000000005,-82.8313466070979
-0.39669999999999994,-82.746463929106
-0.39770000000000005,-82.70402259011003
-0.39869999999999994,-82.746463929106
-0.39970000000000006,-82.8313466070979
-0.40069999999999995,-82.95867062408576
-0.40170000000000006,-83.08599464107361
-0.40269999999999995,-83.08599464107361
-0.40370000000000006,-83.08599464107361
-0.40469999999999995,-83.0011119630817
-0.40570000000000006,-82.9162292850898
-0.40669999999999995,-82.78890526810196
-0.40770000000000006,-82.746463929106
-0.40869999999999995,-82.78890526810196
-0.40970000000000006,-82.87378794609386
-0.41069999999999995,-83.04355330207765
-0.41170000000000007,-83.18502443206415
-0.41269999999999996,-83.26990711005605
-0.41370000000000007,-83.26990711005605
-0.41469999999999996,-83.22746577106011
-0.41570000000000007,-83.08599464107361
-0.41669999999999996,-83.0011119630817
-0.41770000000000007,-82.9162292850898
-0.41869999999999996,-82.9162292850898
-0.4197000000000001,-83.04355330207765
-0.42069999999999996,-83.26990711005605
-0.4217000000000001,-83.43967246603985
-0.42269999999999996,-83.56699648302772
-0.4237000000000001,-83.60943782202366
-0.42469999999999997,-83.56699648302772
-0.4257000000000001,-83.52455514403178
-0.42669999999999997,-83.43967246603985
-0.4277000000000001,-83.43967246603985
-0.42869999999999997,-83.48211380503581
-0.4297000000000001,-83.66602627401826
-0.43069999999999997,-83.83579163000208
-0.4317000000000001,-83.92067430799398
-0.4327,-84.00555698598588
-0.4337000000000001,-84.00555698598588
-0.4347,-83.96311564698992
-0.4357000000000001,-83.96311564698992
-0.4367,-83.92067430799398
-0.4377000000000001,-83.96311564698992
-0.4387,-84.09043966397778
-0.4397000000000001,-84.23191079396429
-0.4407,-84.40167614994809
-0.4417000000000001,-84.52900016693594
-0.4427,-84.6563241839238
-0.4437000000000001,-84.7129126359184
-0.4447,-84.6563241839238
-0.4457000000000001,-84.61388284492786
-0.4467,-84.61388284492786
-0.4477000000000001,-84.61388284492786
-0.4487,-84.75535397491434
-0.4497000000000001,-84.96756066989411
-0.4507,-85.17976736487385
-0.4517000000000001,-85.40612117285227
-0.4527,-85.53344518984011
-0.4537000000000001,-85.61832786783202
-0.4547,-85.66076920682796
-0.4557000000000001,-85.70321054582392
-0.4567,-85.80224033681448
-0.4577000000000001,-85.88712301480638
-0.4587,-86.01444703179425
-0.4597000000000001,-86.18421238777805
-0.4607,-86.45300753475239
-0.4617000000000001,-86.6227728907362
-0.4627,-86.84912669871461
-0.4637000000000001,-86.97645071570246
-0.4647,-87.10377473269031
-0.4657000000000001,-87.27354008867411
-0.4667,-87.33012854066871
-0.4677000000000001,-87.45745255765657
-0.4687,-87.62721791364037
-0.4697000000000001,-87.89601306061473
-0.4707,-88.23554377258235
-0.4717000000000001,-88.54678025855264
-0.4727,-88.80142829252836
-0.4737000000000001,-88.9853407615108
-0.4747,-89.15510611749461
-0.4757000000000001,-89.32487147347842
-0.4767,-89.50878394246087
-0.4777000000000001,-89.76343197643658
-0.4787,-90.15955114039879
-0.4797000000000001,-90.59811164335694
-0.4807,-91.07911348531105
-0.48170000000000013,-91.51767398826922
-0.4827,-91.94208737822873
-0.48370000000000013,-92.29576520319499
-0.4847,-92.64944302816124
-0.48570000000000013,-92.98897374012887
-0.4867,-92.08355850821525
-0.48570000000000013,-89.42390126446898
-0.4847,-87.18865741068221
-0.48370000000000013,-85.36367983385631
-0.4827,-83.79335029100612
-0.48170000000000013,-82.35034476514379
-0.4807,-80.9497805782774
-0.4797000000000001,-79.60580484340561
-0.4787,-78.29012333453113
-0.4777000000000001,-76.98858893865528
-0.4767,-75.77193722077136
-0.4757000000000001,-74.58357972888473
-0.4747,-73.53669336698461
-0.4737000000000001,-72.57468968307639
-0.4727,-71.6268331121668
-0.4717000000000001,-70.79215344524643
-0.4707,-69.87259110033416
-0.4697000000000001,-68.96717586842054
-0.4687,-68.0051721845123
-0.4677000000000001,-67.04316850060408
-0.4667,-66.12360615569182
-0.4657000000000001,-65.2464851497755
-0.4647,-64.46839393484973
-0.4637000000000001,-63.77518539791585
-0.4627,-63.06782974798333
-0.4617000000000001,-62.41706255004542
-0.4607,-61.7662953521075
-0.4597000000000001,-61.01649836317903
-0.4587,-60.23840714825326
