Dec. 27, 2024   04:05:49
Cyclic Voltammetry
File: c:/users/guazh/data/banditlqround7_x0exp136_r20/2024-12-24-exp754\exp754-2024-12-27t03_54_26-h2koh\exp754_cv_sr_600mvs_efin_-1500mv.bin
Data Source:  Experiment
Instrument Model:  CHI760E
Header: CV ran at 600 mVs
Note: 

Init E (V) = -1
High E (V) = -1
Low E (V) = -1.5
Final E (V) = -1
Init P/N = N
Scan Rate (V/s) = 0.6
Segment = 3
Sample Interval (V) = 0.001
Quiet Time (sec) = 2
Sensitivity (A/V) = 0.01
Comp R (ohm) = 1.3

Results:

Channel 1:
Segment 1:

Segment 2:

Segment 3:

Potential/V, Current/A

-1.000, -1.756e-4
-1.001, -7.384e-5
-1.002, 1.557e-5
-1.003, 9.882e-5
-1.004, 1.728e-4
-1.005, 2.406e-4
-1.006, 2.992e-4
-1.007, 3.516e-4
-1.008, 3.948e-4
-1.009, 4.349e-4
-1.010, 4.688e-4
-1.011, 5.058e-4
-1.012, 5.489e-4
-1.013, 5.890e-4
-1.014, 6.291e-4
-1.015, 6.692e-4
-1.016, 7.031e-4
-1.017, 7.339e-4
-1.018, 7.586e-4
-1.019, 7.802e-4
-1.020, 8.018e-4
-1.021, 8.264e-4
-1.022, 8.542e-4
-1.023, 8.850e-4
-1.024, 9.189e-4
-1.025, 9.498e-4
-1.026, 9.775e-4
-1.027, 9.991e-4
-1.028, 1.018e-3
-1.029, 1.033e-3
-1.030, 1.051e-3
-1.031, 1.073e-3
-1.032, 1.098e-3
-1.033, 1.125e-3
-1.034, 1.156e-3
-1.035, 1.184e-3
-1.036, 1.209e-3
-1.037, 1.227e-3
-1.038, 1.246e-3
-1.039, 1.261e-3
-1.040, 1.277e-3
-1.041, 1.298e-3
-1.042, 1.323e-3
-1.043, 1.351e-3
-1.044, 1.378e-3
-1.045, 1.409e-3
-1.046, 1.434e-3
-1.047, 1.452e-3
-1.048, 1.471e-3
-1.049, 1.489e-3
-1.050, 1.508e-3
-1.051, 1.526e-3
-1.052, 1.554e-3
-1.053, 1.582e-3
-1.054, 1.613e-3
-1.055, 1.643e-3
-1.056, 1.671e-3
-1.057, 1.693e-3
-1.058, 1.711e-3
-1.059, 1.727e-3
-1.060, 1.745e-3
-1.061, 1.767e-3
-1.062, 1.791e-3
-1.063, 1.822e-3
-1.064, 1.856e-3
-1.065, 1.890e-3
-1.066, 1.918e-3
-1.067, 1.943e-3
-1.068, 1.964e-3
-1.069, 1.980e-3
-1.070, 1.998e-3
-1.071, 2.020e-3
-1.072, 2.047e-3
-1.073, 2.078e-3
-1.074, 2.109e-3
-1.075, 2.146e-3
-1.076, 2.177e-3
-1.077, 2.201e-3
-1.078, 2.220e-3
-1.079, 2.238e-3
-1.080, 2.257e-3
-1.081, 2.282e-3
-1.082, 2.309e-3
-1.083, 2.340e-3
-1.084, 2.374e-3
-1.085, 2.405e-3
-1.086, 2.439e-3
-1.087, 2.464e-3
-1.088, 2.482e-3
-1.089, 2.504e-3
-1.090, 2.522e-3
-1.091, 2.544e-3
-1.092, 2.571e-3
-1.093, 2.599e-3
-1.094, 2.633e-3
-1.095, 2.664e-3
-1.096, 2.692e-3
-1.097, 2.716e-3
-1.098, 2.735e-3
-1.099, 2.753e-3
-1.100, 2.772e-3
-1.101, 2.793e-3
-1.102, 2.818e-3
-1.103, 2.849e-3
-1.104, 2.883e-3
-1.105, 2.914e-3
-1.106, 2.941e-3
-1.107, 2.966e-3
-1.108, 2.985e-3
-1.109, 3.000e-3
-1.110, 3.019e-3
-1.111, 3.040e-3
-1.112, 3.065e-3
-1.113, 3.096e-3
-1.114, 3.123e-3
-1.115, 3.154e-3
-1.116, 3.179e-3
-1.117, 3.204e-3
-1.118, 3.219e-3
-1.119, 3.237e-3
-1.120, 3.253e-3
-1.121, 3.271e-3
-1.122, 3.296e-3
-1.123, 3.324e-3
-1.124, 3.351e-3
-1.125, 3.382e-3
-1.126, 3.407e-3
-1.127, 3.429e-3
-1.128, 3.444e-3
-1.129, 3.459e-3
-1.130, 3.475e-3
-1.131, 3.490e-3
-1.132, 3.515e-3
-1.133, 3.540e-3
-1.134, 3.567e-3
-1.135, 3.595e-3
-1.136, 3.620e-3
-1.137, 3.641e-3
-1.138, 3.657e-3
-1.139, 3.672e-3
-1.140, 3.688e-3
-1.141, 3.703e-3
-1.142, 3.725e-3
-1.143, 3.746e-3
-1.144, 3.774e-3
-1.145, 3.802e-3
-1.146, 3.826e-3
-1.147, 3.845e-3
-1.148, 3.860e-3
-1.149, 3.869e-3
-1.150, 3.882e-3
-1.151, 3.894e-3
-1.152, 3.919e-3
-1.153, 3.940e-3
-1.154, 3.968e-3
-1.155, 3.996e-3
-1.156, 4.021e-3
-1.157, 4.039e-3
-1.158, 4.051e-3
-1.159, 4.061e-3
-1.160, 4.073e-3
-1.161, 4.088e-3
-1.162, 4.107e-3
-1.163, 4.128e-3
-1.164, 4.150e-3
-1.165, 4.172e-3
-1.166, 4.184e-3
-1.167, 4.196e-3
-1.168, 4.202e-3
-1.169, 4.212e-3
-1.170, 4.224e-3
-1.171, 4.239e-3
-1.172, 4.264e-3
-1.173, 4.286e-3
-1.174, 4.307e-3
-1.175, 4.332e-3
-1.176, 4.350e-3
-1.177, 4.363e-3
-1.178, 4.369e-3
-1.179, 4.372e-3
-1.180, 4.378e-3
-1.181, 4.384e-3
-1.182, 4.394e-3
-1.183, 4.412e-3
-1.184, 4.434e-3
-1.185, 4.458e-3
-1.186, 4.480e-3
-1.187, 4.492e-3
-1.188, 4.505e-3
-1.189, 4.511e-3
-1.190, 4.517e-3
-1.191, 4.529e-3
-1.192, 4.545e-3
-1.193, 4.563e-3
-1.194, 4.585e-3
-1.195, 4.600e-3
-1.196, 4.612e-3
-1.197, 4.619e-3
-1.198, 4.625e-3
-1.199, 4.634e-3
-1.200, 4.640e-3
-1.201, 4.656e-3
-1.202, 4.668e-3
-1.203, 4.690e-3
-1.204, 4.711e-3
-1.205, 4.733e-3
-1.206, 4.754e-3
-1.207, 4.770e-3
-1.208, 4.782e-3
-1.209, 4.788e-3
-1.210, 4.791e-3
-1.211, 4.794e-3
-1.212, 4.801e-3
-1.213, 4.807e-3
-1.214, 4.822e-3
-1.215, 4.841e-3
-1.216, 4.856e-3
-1.217, 4.871e-3
-1.218, 4.881e-3
-1.219, 4.890e-3
-1.220, 4.896e-3
-1.221, 4.899e-3
-1.222, 4.905e-3
-1.223, 4.918e-3
-1.224, 4.927e-3
-1.225, 4.939e-3
-1.226, 4.955e-3
-1.227, 4.964e-3
-1.228, 4.967e-3
-1.229, 4.961e-3
-1.230, 4.967e-3
-1.231, 4.976e-3
-1.232, 4.992e-3
-1.233, 5.010e-3
-1.234, 5.026e-3
-1.235, 5.044e-3
-1.236, 5.063e-3
-1.237, 5.075e-3
-1.238, 5.078e-3
-1.239, 5.081e-3
-1.240, 5.084e-3
-1.241, 5.090e-3
-1.242, 5.100e-3
-1.243, 5.115e-3
-1.244, 5.130e-3
-1.245, 5.149e-3
-1.246, 5.161e-3
-1.247, 5.171e-3
-1.248, 5.174e-3
-1.249, 5.180e-3
-1.250, 5.183e-3
-1.251, 5.189e-3
-1.252, 5.201e-3
-1.253, 5.217e-3
-1.254, 5.232e-3
-1.255, 5.248e-3
-1.256, 5.257e-3
-1.257, 5.263e-3
-1.258, 5.269e-3
-1.259, 5.272e-3
-1.260, 5.275e-3
-1.261, 5.282e-3
-1.262, 5.297e-3
-1.263, 5.309e-3
-1.264, 5.325e-3
-1.265, 5.337e-3
-1.266, 5.349e-3
-1.267, 5.359e-3
-1.268, 5.362e-3
-1.269, 5.365e-3
-1.270, 5.368e-3
-1.271, 5.377e-3
-1.272, 5.393e-3
-1.273, 5.408e-3
-1.274, 5.423e-3
-1.275, 5.439e-3
-1.276, 5.451e-3
-1.277, 5.457e-3
-1.278, 5.460e-3
-1.279, 5.460e-3
-1.280, 5.463e-3
-1.281, 5.467e-3
-1.282, 5.476e-3
-1.283, 5.485e-3
-1.284, 5.494e-3
-1.285, 5.507e-3
-1.286, 5.516e-3
-1.287, 5.522e-3
-1.288, 5.525e-3
-1.289, 5.528e-3
-1.290, 5.528e-3
-1.291, 5.528e-3
-1.292, 5.534e-3
-1.293, 5.544e-3
-1.294, 5.556e-3
-1.295, 5.571e-3
-1.296, 5.584e-3
-1.297, 5.590e-3
-1.298, 5.593e-3
-1.299, 5.590e-3
-1.300, 5.587e-3
-1.301, 5.587e-3
-1.302, 5.593e-3
-1.303, 5.602e-3
-1.304, 5.618e-3
-1.305, 5.633e-3
-1.306, 5.642e-3
-1.307, 5.645e-3
-1.308, 5.645e-3
-1.309, 5.642e-3
-1.310, 5.639e-3
-1.311, 5.630e-3
-1.312, 5.636e-3
-1.313, 5.648e-3
-1.314, 5.661e-3
-1.315, 5.670e-3
-1.316, 5.673e-3
-1.317, 5.673e-3
-1.318, 5.670e-3
-1.319, 5.667e-3
-1.320, 5.667e-3
-1.321, 5.673e-3
-1.322, 5.682e-3
-1.323, 5.695e-3
-1.324, 5.707e-3
-1.325, 5.719e-3
-1.326, 5.725e-3
-1.327, 5.725e-3
-1.328, 5.722e-3
-1.329, 5.716e-3
-1.330, 5.713e-3
-1.331, 5.713e-3
-1.332, 5.719e-3
-1.333, 5.729e-3
-1.334, 5.741e-3
-1.335, 5.753e-3
-1.336, 5.759e-3
-1.337, 5.762e-3
-1.338, 5.762e-3
-1.339, 5.756e-3
-1.340, 5.753e-3
-1.341, 5.753e-3
-1.342, 5.759e-3
-1.343, 5.766e-3
-1.344, 5.775e-3
-1.345, 5.784e-3
-1.346, 5.787e-3
-1.347, 5.787e-3
-1.348, 5.787e-3
-1.349, 5.781e-3
-1.350, 5.775e-3
-1.351, 5.772e-3
-1.352, 5.772e-3
-1.353, 5.781e-3
-1.354, 5.787e-3
-1.355, 5.799e-3
-1.356, 5.806e-3
-1.357, 5.809e-3
-1.358, 5.806e-3
-1.359, 5.803e-3
-1.360, 5.796e-3
-1.361, 5.796e-3
-1.362, 5.799e-3
-1.363, 5.803e-3
-1.364, 5.815e-3
-1.365, 5.821e-3
-1.366, 5.824e-3
-1.367, 5.821e-3
-1.368, 5.818e-3
-1.369, 5.812e-3
-1.370, 5.806e-3
-1.371, 5.803e-3
-1.372, 5.809e-3
-1.373, 5.818e-3
-1.374, 5.827e-3
-1.375, 5.836e-3
-1.376, 5.840e-3
-1.377, 5.836e-3
-1.378, 5.830e-3
-1.379, 5.824e-3
-1.380, 5.818e-3
-1.381, 5.815e-3
-1.382, 5.818e-3
-1.383, 5.827e-3
-1.384, 5.836e-3
-1.385, 5.846e-3
-1.386, 5.849e-3
-1.387, 5.849e-3
-1.388, 5.846e-3
-1.389, 5.840e-3
-1.390, 5.833e-3
-1.391, 5.827e-3
-1.392, 5.827e-3
-1.393, 5.833e-3
-1.394, 5.840e-3
-1.395, 5.846e-3
-1.396, 5.852e-3
-1.397, 5.852e-3
-1.398, 5.849e-3
-1.399, 5.843e-3
-1.400, 5.840e-3
-1.401, 5.836e-3
-1.402, 5.840e-3
-1.403, 5.846e-3
-1.404, 5.855e-3
-1.405, 5.864e-3
-1.406, 5.867e-3
-1.407, 5.867e-3
-1.408, 5.861e-3
-1.409, 5.855e-3
-1.410, 5.849e-3
-1.411, 5.846e-3
-1.412, 5.849e-3
-1.413, 5.855e-3
-1.414, 5.864e-3
-1.415, 5.873e-3
-1.416, 5.873e-3
-1.417, 5.873e-3
-1.418, 5.867e-3
-1.419, 5.861e-3
-1.420, 5.852e-3
-1.421, 5.849e-3
-1.422, 5.852e-3
-1.423, 5.858e-3
-1.424, 5.870e-3
-1.425, 5.880e-3
-1.426, 5.886e-3
-1.427, 5.886e-3
-1.428, 5.883e-3
-1.429, 5.873e-3
-1.430, 5.867e-3
-1.431, 5.861e-3
-1.432, 5.861e-3
-1.433, 5.870e-3
-1.434, 5.886e-3
-1.435, 5.898e-3
-1.436, 5.907e-3
-1.437, 5.910e-3
-1.438, 5.907e-3
-1.439, 5.904e-3
-1.440, 5.898e-3
-1.441, 5.898e-3
-1.442, 5.901e-3
-1.443, 5.914e-3
-1.444, 5.926e-3
-1.445, 5.932e-3
-1.446, 5.938e-3
-1.447, 5.938e-3
-1.448, 5.935e-3
-1.449, 5.935e-3
-1.450, 5.932e-3
-1.451, 5.935e-3
-1.452, 5.944e-3
-1.453, 5.954e-3
-1.454, 5.966e-3
-1.455, 5.975e-3
-1.456, 5.984e-3
-1.457, 5.988e-3
-1.458, 5.984e-3
-1.459, 5.981e-3
-1.460, 5.981e-3
-1.461, 5.981e-3
-1.462, 5.991e-3
-1.463, 6.006e-3
-1.464, 6.021e-3
-1.465, 6.037e-3
-1.466, 6.046e-3
-1.467, 6.052e-3
-1.468, 6.055e-3
-1.469, 6.058e-3
-1.470, 6.065e-3
-1.471, 6.071e-3
-1.472, 6.080e-3
-1.473, 6.092e-3
-1.474, 6.111e-3
-1.475, 6.123e-3
-1.476, 6.139e-3
-1.477, 6.148e-3
-1.478, 6.157e-3
-1.479, 6.169e-3
-1.480, 6.173e-3
-1.481, 6.182e-3
-1.482, 6.194e-3
-1.483, 6.213e-3
-1.484, 6.237e-3
-1.485, 6.259e-3
-1.486, 6.277e-3
-1.487, 6.290e-3
-1.488, 6.302e-3
-1.489, 6.314e-3
-1.490, 6.327e-3
-1.491, 6.345e-3
-1.492, 6.373e-3
-1.493, 6.404e-3
-1.494, 6.438e-3
-1.495, 6.469e-3
-1.496, 6.499e-3
-1.497, 6.524e-3
-1.498, 6.549e-3
-1.499, 6.573e-3
-1.500, 6.509e-3
-1.499, 6.321e-3
-1.498, 6.163e-3
-1.497, 6.034e-3
-1.496, 5.923e-3
-1.495, 5.821e-3
-1.494, 5.722e-3
-1.493, 5.627e-3
-1.492, 5.534e-3
-1.491, 5.442e-3
-1.490, 5.356e-3
-1.489, 5.272e-3
-1.488, 5.198e-3
-1.487, 5.130e-3
-1.486, 5.063e-3
-1.485, 5.004e-3
-1.484, 4.939e-3
-1.483, 4.875e-3
-1.482, 4.807e-3
-1.481, 4.739e-3
-1.480, 4.674e-3
-1.479, 4.612e-3
-1.478, 4.557e-3
-1.477, 4.508e-3
-1.476, 4.458e-3
-1.475, 4.412e-3
-1.474, 4.366e-3
-1.473, 4.313e-3
-1.472, 4.258e-3
-1.471, 4.202e-3
-1.470, 4.147e-3
-1.469, 4.091e-3
-1.468, 4.045e-3
-1.467, 4.002e-3
-1.466, 3.962e-3
-1.465, 3.922e-3
-1.464, 3.876e-3
-1.463, 3.829e-3
-1.462, 3.777e-3
-1.461, 3.725e-3
-1.460, 3.672e-3
-1.459, 3.623e-3
-1.458, 3.577e-3
-1.457, 3.536e-3
-1.456, 3.496e-3
-1.455, 3.456e-3
-1.454, 3.413e-3
-1.453, 3.367e-3
-1.452, 3.314e-3
-1.451, 3.265e-3
-1.450, 3.216e-3
-1.449, 3.167e-3
-1.448, 3.126e-3
-1.447, 3.086e-3
-1.446, 3.049e-3
-1.445, 3.012e-3
-1.444, 2.972e-3
-1.443, 2.929e-3
-1.442, 2.877e-3
-1.441, 2.824e-3
-1.440, 2.772e-3
-1.439, 2.723e-3
-1.438, 2.682e-3
-1.437, 2.645e-3
-1.436, 2.608e-3
-1.435, 2.571e-3
-1.434, 2.531e-3
-1.433, 2.485e-3
-1.432, 2.439e-3
-1.431, 2.390e-3
-1.430, 2.343e-3
-1.429, 2.297e-3
-1.428, 2.257e-3
-1.427, 2.220e-3
-1.426, 2.186e-3
-1.425, 2.149e-3
-1.424, 2.112e-3
-1.423, 2.069e-3
-1.422, 2.026e-3
-1.421, 1.980e-3
-1.420, 1.933e-3
-1.419, 1.890e-3
-1.418, 1.850e-3
-1.417, 1.816e-3
-1.416, 1.785e-3
-1.415, 1.751e-3
-1.414, 1.717e-3
-1.413, 1.677e-3
-1.412, 1.631e-3
-1.411, 1.588e-3
-1.410, 1.545e-3
-1.409, 1.502e-3
-1.408, 1.468e-3
-1.407, 1.437e-3
-1.406, 1.406e-3
-1.405, 1.375e-3
-1.404, 1.341e-3
-1.403, 1.304e-3
-1.402, 1.261e-3
-1.401, 1.218e-3
-1.400, 1.178e-3
-1.399, 1.141e-3
-1.398, 1.110e-3
-1.397, 1.079e-3
-1.396, 1.051e-3
-1.395, 1.024e-3
-1.394, 9.960e-4
-1.393, 9.590e-4
-1.392, 9.220e-4
-1.391, 8.850e-4
-1.390, 8.449e-4
-1.389, 8.079e-4
-1.388, 7.802e-4
-1.387, 7.524e-4
-1.386, 7.278e-4
-1.385, 7.031e-4
-1.384, 6.784e-4
-1.383, 6.445e-4
-1.382, 6.075e-4
-1.381, 5.736e-4
-1.380, 5.366e-4
-1.379, 5.058e-4
-1.378, 4.780e-4
-1.377, 4.565e-4
-1.376, 4.349e-4
-1.375, 4.133e-4
-1.374, 3.886e-4
-1.373, 3.578e-4
-1.372, 3.270e-4
-1.371, 2.931e-4
-1.370, 2.622e-4
-1.369, 2.314e-4
-1.368, 2.098e-4
-1.367, 1.882e-4
-1.366, 1.697e-4
-1.365, 1.512e-4
-1.364, 1.296e-4
-1.363, 1.019e-4
-1.362, 7.415e-5
-1.361, 4.332e-5
-1.360, 1.249e-5
-1.359, -1.526e-5
-1.358, -3.376e-5
-1.357, -5.226e-5
-1.356, -6.767e-5
-1.355, -8.617e-5
-1.354, -1.047e-4
-1.353, -1.293e-4
-1.352, -1.571e-4
-1.351, -1.848e-4
-1.350, -2.126e-4
-1.349, -2.342e-4
-1.348, -2.557e-4
-1.347, -2.681e-4
-1.346, -2.804e-4
-1.345, -2.958e-4
-1.344, -3.143e-4
-1.343, -3.359e-4
-1.342, -3.606e-4
-1.341, -3.883e-4
-1.340, -4.130e-4
-1.339, -4.346e-4
-1.338, -4.500e-4
-1.337, -4.654e-4
-1.336, -4.746e-4
-1.335, -4.870e-4
-1.334, -5.024e-4
-1.333, -5.240e-4
-1.332, -5.486e-4
-1.331, -5.702e-4
-1.330, -5.949e-4
-1.329, -6.165e-4
-1.328, -6.319e-4
-1.327, -6.411e-4
-1.326, -6.504e-4
-1.325, -6.627e-4
-1.324, -6.781e-4
-1.323, -6.935e-4
-1.322, -7.151e-4
-1.321, -7.398e-4
-1.320, -7.583e-4
-1.319, -7.799e-4
-1.318, -7.922e-4
-1.317, -8.045e-4
-1.316, -8.138e-4
-1.315, -8.230e-4
-1.314, -8.323e-4
-1.313, -8.508e-4
-1.312, -8.724e-4
-1.311, -8.939e-4
-1.310, -9.155e-4
-1.309, -9.340e-4
-1.308, -9.464e-4
-1.307, -9.556e-4
-1.306, -9.618e-4
-1.305, -9.710e-4
-1.304, -9.803e-4
-1.303, -9.957e-4
-1.302, -1.017e-3
-1.301, -1.039e-3
-1.300, -1.057e-3
-1.299, -1.076e-3
-1.298, -1.088e-3
-1.297, -1.097e-3
-1.296, -1.104e-3
-1.295, -1.110e-3
-1.294, -1.119e-3
-1.293, -1.138e-3
-1.292, -1.156e-3
-1.291, -1.175e-3
-1.290, -1.196e-3
-1.289, -1.215e-3
-1.288, -1.224e-3
-1.287, -1.233e-3
-1.286, -1.239e-3
-1.285, -1.245e-3
-1.284, -1.258e-3
-1.283, -1.273e-3
-1.282, -1.292e-3
-1.281, -1.310e-3
-1.280, -1.332e-3
-1.279, -1.347e-3
-1.278, -1.359e-3
-1.277, -1.366e-3
-1.276, -1.372e-3
-1.275, -1.378e-3
-1.274, -1.387e-3
-1.273, -1.406e-3
-1.272, -1.424e-3
-1.271, -1.446e-3
-1.270, -1.464e-3
-1.269, -1.480e-3
-1.268, -1.495e-3
-1.267, -1.501e-3
-1.266, -1.507e-3
-1.265, -1.514e-3
-1.264, -1.523e-3
-1.263, -1.541e-3
-1.262, -1.560e-3
-1.261, -1.581e-3
-1.260, -1.600e-3
-1.259, -1.618e-3
-1.258, -1.628e-3
-1.257, -1.637e-3
-1.256, -1.646e-3
-1.255, -1.652e-3
-1.254, -1.665e-3
-1.253, -1.680e-3
-1.252, -1.699e-3
-1.251, -1.720e-3
-1.250, -1.739e-3
-1.249, -1.757e-3
-1.248, -1.770e-3
-1.247, -1.782e-3
-1.246, -1.788e-3
-1.245, -1.797e-3
-1.244, -1.810e-3
-1.243, -1.822e-3
-1.242, -1.840e-3
-1.241, -1.862e-3
-1.240, -1.884e-3
-1.239, -1.905e-3
-1.238, -1.918e-3
-1.237, -1.930e-3
-1.236, -1.939e-3
-1.235, -1.948e-3
-1.234, -1.958e-3
-1.233, -1.976e-3
-1.232, -1.995e-3
-1.231, -2.019e-3
-1.230, -2.044e-3
-1.229, -2.066e-3
-1.228, -2.081e-3
-1.227, -2.090e-3
-1.226, -2.099e-3
-1.225, -2.109e-3
-1.224, -2.124e-3
-1.223, -2.143e-3
-1.222, -2.164e-3
-1.221, -2.189e-3
-1.220, -2.214e-3
-1.219, -2.232e-3
-1.218, -2.251e-3
-1.217, -2.263e-3
-1.216, -2.272e-3
-1.215, -2.284e-3
-1.214, -2.300e-3
-1.213, -2.318e-3
-1.212, -2.343e-3
-1.211, -2.368e-3
-1.210, -2.392e-3
-1.209, -2.417e-3
-1.208, -2.432e-3
-1.207, -2.448e-3
-1.206, -2.460e-3
-1.205, -2.472e-3
-1.204, -2.488e-3
-1.203, -2.509e-3
-1.202, -2.534e-3
-1.201, -2.559e-3
-1.200, -2.587e-3
-1.199, -2.608e-3
-1.198, -2.630e-3
-1.197, -2.642e-3
-1.196, -2.654e-3
-1.195, -2.670e-3
-1.194, -2.685e-3
-1.193, -2.707e-3
-1.192, -2.731e-3
-1.191, -2.759e-3
-1.190, -2.787e-3
-1.189, -2.809e-3
-1.188, -2.830e-3
-1.187, -2.842e-3
-1.186, -2.858e-3
-1.185, -2.870e-3
-1.184, -2.889e-3
-1.183, -2.910e-3
-1.182, -2.938e-3
-1.181, -2.963e-3
-1.180, -2.990e-3
-1.179, -3.015e-3
-1.178, -3.034e-3
-1.177, -3.049e-3
-1.176, -3.064e-3
-1.175, -3.080e-3
-1.174, -3.095e-3
-1.173, -3.117e-3
-1.172, -3.142e-3
-1.171, -3.169e-3
-1.170, -3.197e-3
-1.169, -3.219e-3
-1.168, -3.240e-3
-1.167, -3.256e-3
-1.166, -3.268e-3
-1.165, -3.280e-3
-1.164, -3.296e-3
-1.163, -3.317e-3
-1.162, -3.342e-3
-1.161, -3.370e-3
-1.160, -3.394e-3
-1.159, -3.419e-3
-1.158, -3.438e-3
-1.157, -3.453e-3
-1.156, -3.462e-3
-1.155, -3.475e-3
-1.154, -3.493e-3
-1.153, -3.515e-3
-1.152, -3.536e-3
-1.151, -3.564e-3
-1.150, -3.589e-3
-1.149, -3.613e-3
-1.148, -3.635e-3
-1.147, -3.647e-3
-1.146, -3.659e-3
-1.145, -3.672e-3
-1.144, -3.684e-3
-1.143, -3.706e-3
-1.142, -3.727e-3
-1.141, -3.752e-3
-1.140, -3.780e-3
-1.139, -3.804e-3
-1.138, -3.823e-3
-1.137, -3.835e-3
-1.136, -3.848e-3
-1.135, -3.857e-3
-1.134, -3.872e-3
-1.133, -3.891e-3
-1.132, -3.915e-3
-1.131, -3.943e-3
-1.130, -3.965e-3
-1.129, -3.983e-3
-1.128, -3.996e-3
-1.127, -4.008e-3
-1.126, -4.014e-3
-1.125, -4.026e-3
-1.124, -4.048e-3
-1.123, -4.073e-3
-1.122, -4.097e-3
-1.121, -4.122e-3
-1.120, -4.144e-3
-1.119, -4.165e-3
-1.118, -4.181e-3
-1.117, -4.196e-3
-1.116, -4.211e-3
-1.115, -4.221e-3
-1.114, -4.233e-3
-1.113, -4.248e-3
-1.112, -4.267e-3
-1.111, -4.292e-3
-1.110, -4.319e-3
-1.109, -4.347e-3
-1.108, -4.369e-3
-1.107, -4.387e-3
-1.106, -4.399e-3
-1.105, -4.409e-3
-1.104, -4.418e-3
-1.103, -4.430e-3
-1.102, -4.443e-3
-1.101, -4.461e-3
-1.100, -4.480e-3
-1.099, -4.492e-3
-1.098, -4.501e-3
-1.097, -4.510e-3
-1.096, -4.514e-3
-1.095, -4.529e-3
-1.094, -4.541e-3
-1.093, -4.560e-3
-1.092, -4.578e-3
-1.091, -4.600e-3
-1.090, -4.621e-3
-1.089, -4.637e-3
-1.088, -4.646e-3
-1.087, -4.652e-3
-1.086, -4.662e-3
-1.085, -4.671e-3
-1.084, -4.683e-3
-1.083, -4.695e-3
-1.082, -4.708e-3
-1.081, -4.723e-3
-1.080, -4.729e-3
-1.079, -4.739e-3
-1.078, -4.748e-3
-1.077, -4.754e-3
-1.076, -4.757e-3
-1.075, -4.760e-3
-1.074, -4.769e-3
-1.073, -4.785e-3
-1.072, -4.803e-3
-1.071, -4.825e-3
-1.070, -4.843e-3
-1.069, -4.856e-3
-1.068, -4.868e-3
-1.067, -4.877e-3
-1.066, -4.880e-3
-1.065, -4.883e-3
-1.064, -4.890e-3
-1.063, -4.902e-3
-1.062, -4.920e-3
-1.061, -4.939e-3
-1.060, -4.961e-3
-1.059, -4.973e-3
-1.058, -4.982e-3
-1.057, -4.991e-3
-1.056, -4.994e-3
-1.055, -4.998e-3
-1.054, -5.004e-3
-1.053, -5.016e-3
-1.052, -5.035e-3
-1.051, -5.053e-3
-1.050, -5.068e-3
-1.049, -5.084e-3
-1.048, -5.090e-3
-1.047, -5.093e-3
-1.046, -5.096e-3
-1.045, -5.096e-3
-1.044, -5.102e-3
-1.043, -5.118e-3
-1.042, -5.136e-3
-1.041, -5.155e-3
-1.040, -5.170e-3
-1.039, -5.186e-3
-1.038, -5.195e-3
-1.037, -5.195e-3
-1.036, -5.195e-3
-1.035, -5.195e-3
-1.034, -5.198e-3
-1.033, -5.210e-3
-1.032, -5.226e-3
-1.031, -5.244e-3
-1.030, -5.263e-3
-1.029, -5.275e-3
-1.028, -5.278e-3
-1.027, -5.278e-3
-1.026, -5.278e-3
-1.025, -5.278e-3
-1.024, -5.284e-3
-1.023, -5.290e-3
-1.022, -5.303e-3
-1.021, -5.318e-3
-1.020, -5.334e-3
-1.019, -5.346e-3
-1.018, -5.355e-3
-1.017, -5.358e-3
-1.016, -5.358e-3
-1.015, -5.361e-3
-1.014, -5.364e-3
-1.013, -5.368e-3
-1.012, -5.380e-3
-1.011, -5.389e-3
-1.010, -5.401e-3
-1.009, -5.408e-3
-1.008, -5.411e-3
-1.007, -5.411e-3
-1.006, -5.411e-3
-1.005, -5.411e-3
-1.004, -5.414e-3
-1.003, -5.423e-3
-1.002, -5.435e-3
-1.001, -5.448e-3
