Potential V vs RHE, Current mA cm-2
0.013299999999999867,0.3467457395969205
0.012299999999999978,-1.0054353208140816
0.011299999999999866,-2.095187435100119
0.010299999999999976,-3.0119203574126634
0.009299999999999864,-3.840941179133574
0.008299999999999974,-4.582249900262854
0.007299999999999862,-5.323558621392133
0.006299999999999972,-6.021011292225596
0.00529999999999986,-6.6760226240631075
0.0042999999999999705,-7.28576319430494
0.0032999999999998586,-7.809206375255003
0.0022999999999999687,-8.288793505909249
0.0012999999999998568,-8.68208324727173
0.00029999999999996696,-9.073958277334345
-0.000700000000000145,-9.511104068992642
-0.0017000000000000348,-9.946835149351072
-0.0027000000000001467,-10.382566229709504
-0.0037000000000000366,-10.819712021367803
-0.0047000000000001485,-11.1677310011346
-0.005700000000000038,-11.473308641905447
-0.00670000000000015,-11.778886282676295
-0.00770000000000004,-12.040607873151327
-0.008700000000000152,-12.302329463626359
-0.009700000000000042,-12.651763154693022
-0.010700000000000154,-13.043638184755638
-0.011700000000000044,-13.3930718758223
-0.012700000000000156,-13.698649516593148
-0.013700000000000045,-13.916515056772363
-0.014700000000000157,-14.13438059695158
-0.015700000000000047,-14.345172580631472
-0.01670000000000016,-14.57152638860988
-0.01770000000000005,-14.868615761581536
-0.01870000000000016,-15.179852247551842
-0.01970000000000005,-15.533530072518102
-0.020700000000000163,-15.78817810649381
-0.021700000000000053,-16.056973253468165
-0.022700000000000164,-16.269179948447924
-0.023700000000000054,-16.438945304431726
-0.024700000000000166,-16.665299112410132
-0.025700000000000056,-16.919947146385837
-0.026700000000000168,-17.188742293360193
-0.027700000000000058,-17.48583166633185
-0.02870000000000017,-17.797068152302163
-0.02970000000000006,-18.06586329927652
-0.03070000000000017,-18.27806999425627
-0.03170000000000006,-18.44783535024008
-0.03270000000000017,-18.674189158218486
-0.03370000000000006,-18.88639585319824
-0.034700000000000175,-19.197632339168546
-0.035700000000000065,-19.49472171214021
-0.03670000000000018,-19.805958198110513
-0.03770000000000007,-20.10304757108217
-0.03870000000000018,-20.329401379060574
-0.03970000000000007,-20.541608074040333
-0.04070000000000018,-20.72552054302279
-0.04170000000000007,-20.93772723800254
-0.04270000000000018,-21.2065223849769
-0.04370000000000007,-21.503611757948562
-0.044700000000000184,-21.814848243918867
-0.045700000000000074,-22.069496277894572
-0.046700000000000186,-22.38073276386488
-0.047700000000000076,-22.550498119848687
-0.04870000000000019,-22.72026347583249
-0.04970000000000008,-22.946617283810895
-0.05070000000000019,-23.15882397879065
-0.05170000000000008,-23.47006046476096
-0.05270000000000019,-23.767149837732617
-0.05370000000000008,-24.035944984706973
-0.05470000000000019,-24.24815167968673
-0.05570000000000008,-24.474505487665134
-0.056700000000000195,-24.64427084364894
-0.057700000000000085,-24.814036199632742
-0.058700000000000196,-24.997948668615198
-0.059700000000000086,-25.295038041586857
-0.0607000000000002,-25.563833188561212
-0.06170000000000009,-25.86092256153287
-0.0627000000000002,-26.087276369511276
-0.06370000000000009,-26.257041725495082
-0.0647000000000002,-26.440954194477534
-0.06570000000000009,-26.568278211465387
-0.0667000000000002,-26.738043567449193
-0.0677000000000001,-26.9643973754276
-0.0687000000000002,-27.219045409403304
-0.0697000000000001,-27.43125210438306
-0.07070000000000021,-27.65760591236147
-0.0717000000000001,-27.827371268345274
-0.07270000000000021,-27.954695285333123
-0.0737000000000001,-28.05372507632368
-0.07470000000000021,-28.18104909331153
-0.0757000000000001,-28.350814449295335
-0.07670000000000021,-28.53472691827779
-0.0777000000000001,-28.746933613257543
-0.07870000000000021,-28.959140308237306
-0.0797000000000001,-29.100611438223805
-0.08070000000000022,-29.18549411621571
-0.0817000000000001,-29.27037679420761
-0.08270000000000022,-29.31281813320356
-0.08370000000000011,-29.39770081119546
-0.08470000000000022,-29.525024828183312
-0.08570000000000011,-29.708937297165768
-0.08670000000000022,-29.878702653149578
-0.08770000000000011,-30.00602667013743
-0.08870000000000022,-30.10505646112798
-0.08970000000000011,-30.10505646112798
-0.09070000000000022,-30.10505646112798
-0.09170000000000011,-30.10505646112798
-0.09270000000000023,-30.189939139119886
-0.09370000000000012,-30.274821817111786
-0.09470000000000023,-30.402145834099635
-0.09570000000000012,-30.487028512091538
-0.09670000000000023,-30.529469851087494
-0.09770000000000012,-30.487028512091538
-0.09870000000000023,-30.444587173095588
-0.09970000000000012,-30.402145834099635
-0.10070000000000023,-30.402145834099635
-0.10170000000000012,-30.444587173095588
-0.10270000000000024,-30.487028512091538
-0.10370000000000013,-30.529469851087494
-0.10470000000000024,-30.529469851087494
-0.10570000000000013,-30.444587173095588
-0.10670000000000024,-30.359704495103685
-0.10770000000000013,-30.274821817111786
-0.10870000000000024,-30.189939139119886
-0.10970000000000013,-30.189939139119886
-0.11070000000000024,-30.189939139119886
-0.11170000000000013,-30.147497800123933
-0.11270000000000002,-30.10505646112798
-0.11370000000000013,-30.00602667013743
-0.11470000000000002,-29.836261314153624
-0.11570000000000014,-29.708937297165768
-0.11670000000000003,-29.525024828183312
-0.11770000000000014,-29.440142150191413
-0.11870000000000003,-29.35525947219951
-0.11970000000000014,-29.31281813320356
-0.12070000000000003,-29.18549411621571
-0.12170000000000014,-29.058170099227848
-0.12270000000000003,-28.8742576302454
-0.12370000000000014,-28.662050935265643
-0.12470000000000003,-28.435697127287238
-0.12570000000000014,-28.265931771303435
-0.12670000000000003,-28.13860775431558
-0.12770000000000015,-28.011283737327723
-0.12870000000000004,-27.869812607341224
-0.12970000000000015,-27.700047251357418
-0.13070000000000004,-27.43125210438306
-0.13170000000000015,-27.176604070407354
-0.13270000000000004,-26.907808923433
-0.13370000000000015,-26.65316088945729
-0.13470000000000004,-26.483395533473487
-0.13570000000000015,-26.29948306449103
-0.13670000000000004,-26.17215904750318
-0.13770000000000016,-25.959952352523427
-0.13870000000000005,-25.691157205549064
-0.13970000000000016,-25.43650917157336
-0.14070000000000005,-25.0828313466071
-0.14170000000000016,-24.814036199632742
-0.14270000000000005,-24.601829504652986
-0.14370000000000016,-24.389622809673234
-0.14470000000000005,-24.20571034069078
-0.14570000000000016,-24.035944984706973
-0.14670000000000005,-23.767149837732617
-0.14770000000000016,-23.47006046476096
-0.14870000000000005,-23.15882397879065
-0.14970000000000017,-22.904175944814945
-0.15070000000000006,-22.63538079784059
-0.15170000000000017,-22.42317410286083
-0.15270000000000006,-22.295850085872978
-0.15370000000000017,-22.111937616890522
-0.15470000000000006,-21.899730921910766
-0.15570000000000017,-21.67337711393236
-0.15670000000000006,-21.376287740960702
-0.15770000000000017,-21.065051254990397
-0.15870000000000006,-20.85284456001064
-0.15970000000000018,-20.683079204026836
-0.16070000000000007,-20.541608074040333
-0.16170000000000018,-20.371842718056527
-0.16270000000000007,-20.244518701068674
-0.16370000000000018,-20.01816489309027
-0.16470000000000007,-19.805958198110513
-0.16570000000000018,-19.537163051136158
-0.16670000000000007,-19.3249563561564
-0.16770000000000018,-19.112749661176647
-0.16870000000000007,-19.01371987018609
-0.16970000000000018,-18.88639585319824
-0.17070000000000007,-18.759071836210385
-0.17170000000000019,-18.631747819222536
-0.17270000000000008,-18.40539401124413
-0.1737000000000002,-18.15074597726842
-0.17470000000000008,-17.966833508285966
-0.1757000000000002,-17.797068152302163
-0.17670000000000008,-17.71218547431026
-0.1777000000000002,-17.627302796318357
-0.17870000000000008,-17.542420118326454
-0.1797000000000002,-17.40094898833995
-0.18070000000000008,-17.231183632356142
-0.1817000000000002,-17.018976937376394
-0.18270000000000008,-16.835064468393938
-0.1837000000000002,-16.70774045140608
-0.1847000000000001,-16.580416434418233
-0.1857000000000002,-16.53797509542228
-0.1867000000000001,-16.495533756426326
-0.1877000000000002,-16.354062626439823
-0.1887000000000001,-16.22673860945197
-0.1897000000000002,-16.056973253468165
-0.1907000000000001,-15.87306078448571
-0.1917000000000001,-15.74573676749786
-0.19269999999999998,-15.660854089505953
-0.1937000000000001,-15.575971411514052
-0.19469999999999998,-15.575971411514052
-0.1957000000000001,-15.491088733522153
-0.19669999999999999,-15.3920589425316
-0.1977000000000001,-15.222293586547794
-0.1987,-15.05252823056399
-0.1997000000000001,-14.925204213576137
-0.2007,-14.826174422585586
-0.2017000000000001,-14.783733083589633
-0.2027,-14.741291744593681
-0.2037000000000001,-14.69885040559773
-0.2047,-14.65640906660178
-0.2057000000000001,-14.529085049613924
-0.2067,-14.401761032626075
-0.2077000000000001,-14.217848563643619
-0.2087,-14.13438059695158
-0.2097000000000001,-14.090524546655764
-0.2107,-14.090524546655764
-0.2117000000000001,-14.090524546655764
-0.2127,-14.046668496359947
-0.2137000000000001,-13.916515056772363
-0.2147,-13.784946905884919
-0.2157000000000001,-13.698649516593148
-0.2167,-13.567081365705702
-0.21770000000000012,-13.523225315409885
-0.2187,-13.47936926511407
-0.21970000000000012,-13.523225315409885
-0.2207,-13.47936926511407
-0.22170000000000012,-13.3930718758223
-0.2227,-13.30535977523067
-0.22370000000000012,-13.13135028534727
-0.2247,-13.043638184755638
-0.22570000000000012,-12.955926084164007
-0.2267,-12.955926084164007
-0.22770000000000012,-12.99978213445982
-0.22870000000000001,-12.955926084164007
-0.22970000000000013,-12.913484745168056
-0.23070000000000002,-12.825772644576423
-0.23170000000000013,-12.73806054398479
-0.23270000000000002,-12.607907104397206
-0.23370000000000013,-12.520195003805576
-0.23470000000000002,-12.520195003805576
-0.23570000000000013,-12.520195003805576
-0.23670000000000002,-12.56405105410139
-0.2376999999999999,-12.520195003805576
-0.23870000000000002,-12.476338953509758
-0.2396999999999999,-12.346185513922174
-0.24070000000000003,-12.258473413330542
-0.24169999999999991,-12.170761312738911
-0.24270000000000003,-12.170761312738911
-0.24369999999999992,-12.170761312738911
-0.24470000000000003,-12.214617363034726
-0.24569999999999992,-12.214617363034726
-0.24670000000000003,-12.170761312738911
-0.24769999999999992,-12.084463923447142
-0.24870000000000003,-11.952895772559694
-0.24969999999999992,-11.909039722263879
-0.25070000000000003,-11.86659838326793
-0.2516999999999999,-11.909039722263879
-0.25270000000000004,-11.909039722263879
-0.2536999999999999,-11.909039722263879
-0.25470000000000004,-11.909039722263879
-0.2556999999999999,-11.86659838326793
-0.25670000000000004,-11.778886282676295
-0.25769999999999993,-11.647318131788847
-0.25870000000000004,-11.647318131788847
-0.25969999999999993,-11.647318131788847
-0.26070000000000004,-11.691174182084664
-0.26169999999999993,-11.73503023238048
-0.26270000000000004,-11.73503023238048
-0.26369999999999993,-11.691174182084664
-0.26470000000000005,-11.604876792792895
-0.26569999999999994,-11.56102074249708
-0.26670000000000005,-11.473308641905447
-0.26769999999999994,-11.517164692201263
-0.26870000000000005,-11.56102074249708
-0.26969999999999994,-11.604876792792895
-0.27070000000000005,-11.604876792792895
-0.27169999999999994,-11.604876792792895
-0.27270000000000005,-11.517164692201263
-0.27369999999999994,-11.473308641905447
-0.27470000000000006,-11.42945259160963
-0.27569999999999995,-11.42945259160963
-0.27670000000000006,-11.473308641905447
-0.27769999999999995,-11.517164692201263
-0.27870000000000006,-11.56102074249708
-0.27969999999999995,-11.56102074249708
-0.28070000000000006,-11.56102074249708
-0.28169999999999995,-11.473308641905447
-0.28270000000000006,-11.42945259160963
-0.28369999999999995,-11.42945259160963
-0.28470000000000006,-11.473308641905447
-0.28569999999999995,-11.517164692201263
-0.28670000000000007,-11.604876792792895
-0.28769999999999996,-11.647318131788847
-0.28870000000000007,-11.604876792792895
-0.28969999999999996,-11.604876792792895
-0.29070000000000007,-11.517164692201263
-0.29169999999999996,-11.517164692201263
-0.29270000000000007,-11.56102074249708
-0.29369999999999996,-11.647318131788847
-0.2947000000000001,-11.691174182084664
-0.29569999999999996,-11.778886282676295
-0.2967000000000001,-11.778886282676295
-0.29769999999999996,-11.778886282676295
-0.2987000000000001,-11.73503023238048
-0.29969999999999997,-11.691174182084664
-0.3007000000000001,-11.73503023238048
-0.30169999999999997,-11.82274233297211
-0.3027000000000001,-11.909039722263879
-0.30369999999999997,-11.996751822855511
-0.3047000000000001,-12.040607873151327
-0.30569999999999997,-12.040607873151327
-0.3067000000000001,-12.040607873151327
-0.3077,-11.996751822855511
-0.3087000000000001,-12.040607873151327
-0.3097,-12.084463923447142
-0.3107000000000001,-12.214617363034726
-0.3117,-12.302329463626359
-0.3127000000000001,-12.390041564217992
-0.3137,-12.390041564217992
-0.3147000000000001,-12.390041564217992
-0.3157,-12.390041564217992
-0.3167000000000001,-12.390041564217992
-0.3177,-12.476338953509758
-0.3187000000000001,-12.607907104397206
-0.3197,-12.73806054398479
-0.3207000000000001,-12.825772644576423
-0.3217,-12.913484745168056
-0.3227000000000001,-12.913484745168056
-0.3237,-12.913484745168056
-0.3247000000000001,-12.955926084164007
-0.3257,-12.99978213445982
-0.3267000000000001,-13.13135028534727
-0.3277,-13.261503724934855
-0.3287000000000001,-13.3930718758223
-0.3297,-13.47936926511407
-0.3307000000000001,-13.523225315409885
-0.3317,-13.567081365705702
-0.3327000000000001,-13.610937416001518
-0.3337,-13.654793466297335
-0.3347000000000001,-13.784946905884919
-0.3357,-13.960371107068182
-0.3367000000000001,-14.090524546655764
-0.3377,-14.217848563643619
-0.3387000000000001,-14.30273124163552
-0.3397,-14.345172580631472
-0.3407000000000001,-14.401761032626075
-0.3417,-14.486643710617974
-0.3427000000000001,-14.61396772760583
-0.3437,-14.783733083589633
-0.3447000000000001,-14.967645552572087
-0.3457,-15.137410908555893
-0.3467000000000001,-15.264734925543747
-0.3477,-15.349617603535648
-0.3487000000000001,-15.3920589425316
-0.3497,-15.491088733522153
-0.3507000000000001,-15.618412750510005
-0.3517,-15.78817810649381
-0.3527000000000001,-16.014531914472215
-0.3537,-16.22673860945197
-0.3547000000000001,-16.354062626439823
-0.3557,-16.438945304431726
-0.35670000000000013,-16.580416434418233
-0.3577,-16.665299112410132
-0.35870000000000013,-16.792623129397985
-0.3597,-17.018976937376394
-0.36070000000000013,-17.231183632356142
-0.3617,-17.4433903273359
-0.3626999999999999,-17.627302796318357
-0.3637,-17.797068152302163
-0.3646999999999999,-17.924392169290012
-0.3657,-18.009274847281915
-0.3666999999999999,-18.19318731626437
-0.3677,-18.40539401124413
-0.3686999999999999,-18.631747819222536
-0.36970000000000003,-18.88639585319824
-0.3706999999999999,-19.112749661176647
-0.37170000000000003,-19.3249563561564
-0.3726999999999999,-19.49472171214021
-0.37370000000000003,-19.636192842126707
-0.3746999999999999,-19.805958198110513
-0.37570000000000003,-19.97572355409432
-0.3766999999999999,-20.244518701068674
-0.37770000000000004,-20.541608074040333
-0.3786999999999999,-20.810403221014692
-0.37970000000000004,-21.065051254990397
-0.3806999999999999,-21.248963723972853
-0.38170000000000004,-21.461170418952605
-0.38269999999999993,-21.63093577493641
-0.38370000000000004,-21.857289582914817
-0.38469999999999993,-22.15437895588647
-0.38570000000000004,-22.46561544185678
-0.38669999999999993,-21.772406904922917
-0.38570000000000004,-19.636192842126707
-0.38469999999999993,-18.06586329927652
-0.38370000000000004,-16.919947146385837
-0.38269999999999993,-15.91550212348166
-0.38170000000000004,-15.137410908555893
-0.3806999999999999,-14.529085049613924
-0.37970000000000004,-14.002812446064135
-0.3786999999999999,-13.567081365705702
-0.37770000000000004,-13.13135028534727
-0.3766999999999999,-12.694204493688973
-0.37570000000000003,-12.214617363034726
-0.3746999999999999,-11.73503023238048
-0.37370000000000003,-11.343155202317865
-0.3726999999999999,-10.949865460955383
-0.37170000000000003,-10.644287820184536
-0.3706999999999999,-10.340124890713554
-0.36970000000000003,-10.034547249942705
-0.3686999999999999,-9.728969609171857
-0.3677,-9.335679867809377
-0.3666999999999999,-8.987660888042578
-0.3657,-8.594371146680096
-0.3646999999999999,-8.288793505909249
-0.3637,-8.027071915434218
-0.3626999999999999,-7.809206375255003
-0.3617,-7.591340835075788
-0.36070000000000013,-7.329619244600755
-0.3597,-7.024041603829907
-0.35870000000000013,-6.719878674358924
-0.3577,-6.37044498329226
-0.35670000000000013,-6.108723392817228
-0.3557,-5.847001802342197
-0.3547000000000001,-5.672992312458796
-0.3537,-5.497568111275533
-0.3527000000000001,-5.323558621392133
-0.3517,-5.0618370309171015
-0.3507000000000001,-4.800115440442069
-0.3497,-4.494537799671222
-0.3487000000000001,-4.23281620919619
-0.3477,-4.014950669016974
-0.3467000000000001,-3.884797229429391
-0.3457,-3.7093730282461257
-0.3447000000000001,-3.579219588658543
-0.3437,-3.403795387475278
-0.3427000000000001,-3.1420737970002466
-0.3417,-2.924208256821031
-0.3407000000000001,-2.662486666345999
-0.3397,-2.4884771764625997
-0.3387000000000001,-2.3569090255751513
-0.3377,-2.226755585987568
-0.3367000000000001,-2.1390434853959355
-0.3357,-1.9650339955125358
-0.3347000000000001,-1.7910245056291363
-0.3337,-1.5717442541500557
-0.3327000000000001,-1.3543031273607997
-0.3317,-1.1798692240874404
-0.3307000000000001,-1.0490084288499246
-0.3297,-0.9617207416482519
-0.3287000000000001,-0.8745745255765657
-0.3277,-0.7872868383748929
-0.3267000000000001,-0.6564260431373771
-0.3257,-0.48199213986401795
-0.3247000000000001,-0.26384365742482935
-0.3237,-0.08943804837746762
-0.3227000000000001,0.04140859974704963
-0.3217,0.12863969849672777
-0.3207000000000001,0.12863969849672777
-0.3197,0.21588494435940458
-0.3187000000000001,0.3467457395969205
-0.3177,0.4776065348344364
-0.3167000000000001,0.6520404381077953
-0.3157,0.8264743413811545
-0.3147000000000001,0.9137620285828272
-0.3137,1.0010497157844997
-0.3127000000000001,1.0446228238203432
-0.3117,1.0446228238203432
-0.3107000000000001,1.175483619057859
-0.3097,1.2626298351295453
-0.3087000000000001,1.4373466806628774
-0.3077,1.5675001202504606
-0.3067000000000001,1.655212220842093
-0.30569999999999997,1.7429243214337253
-0.3047000000000001,1.7867803717295414
-0.30369999999999997,1.7867803717295414
-0.3027000000000001,1.8292217107254924
-0.30169999999999997,1.9169338113171246
-0.3007000000000001,2.048501962204573
-0.29969999999999997,2.178655401792157
-0.2987000000000001,2.30880884137974
-0.29769999999999996,2.352664891675556
-0.2967000000000001,2.396520941971372
-0.29569999999999996,2.396520941971372
-0.2947000000000001,2.396520941971372
-0.29369999999999996,2.4842330425630044
-0.29270000000000007,2.5705304318547717
-0.29169999999999996,2.70209858274222
-0.29070000000000007,2.7898106833338523
-0.28969999999999996,2.8761080726256196
-0.28870000000000007,2.919964122921436
-0.28769999999999996,2.8761080726256196
-0.28670000000000007,2.919964122921436
-0.28569999999999995,2.919964122921436
-0.28470000000000006,3.0076762235130676
-0.28369999999999995,3.1378296631006513
-0.28270000000000006,3.2693978139880997
-0.28169999999999995,3.313253864283916
-0.28070000000000006,3.355695203279867
-0.27969999999999995,3.355695203279867
-0.27870000000000006,3.313253864283916
-0.27769999999999995,3.355695203279867
-0.27670000000000006,3.3995512535756833
-0.27569999999999995,3.4872633541673155
-0.27470000000000006,3.6174167937548987
-0.27369999999999994,3.7051288943465317
-0.27270000000000005,3.748984944642347
-0.27169999999999994,3.748984944642347
-0.27070000000000005,3.748984944642347
-0.26969999999999994,3.7051288943465317
-0.26870000000000005,3.748984944642347
