Dec. 24, 2024   23:44:41
Cyclic Voltammetry
File: c:/users/guazh/data/banditlqround7_x0exp136_r20/2024-12-24-exp732\exp732-2024-12-24t23_27_50-arkoh\exp732_cv_sr_900mvs_efin_-1700mv.bin
Data Source:  Experiment
Instrument Model:  CHI760E
Header: CV ran at 900 mVs
Note: 

Init E (V) = -1
High E (V) = -1
Low E (V) = -1.7
Final E (V) = -1
Init P/N = N
Scan Rate (V/s) = 0.9
Segment = 3
Sample Interval (V) = 0.001
Quiet Time (sec) = 2
Sensitivity (A/V) = 0.01
Comp R (ohm) = 1.4

Results:

Channel 1:
Segment 1:
Ep = -1.307V
ip = 6.087e-5A
Ah = 4.772e-6C

Segment 2:
Ep = -1.084V
ip = -1.387e-5A
Ah = -5.352e-7C

Segment 3:

Potential/V, Current/A

-1.000, 1.865e-5
-1.001, 2.790e-5
-1.002, 2.790e-5
-1.003, 2.790e-5
-1.004, 3.099e-5
-1.005, 3.407e-5
-1.006, 3.407e-5
-1.007, 3.407e-5
-1.008, 3.407e-5
-1.009, 3.407e-5
-1.010, 3.407e-5
-1.011, 3.407e-5
-1.012, 3.715e-5
-1.013, 3.407e-5
-1.014, 3.715e-5
-1.015, 3.715e-5
-1.016, 3.715e-5
-1.017, 3.715e-5
-1.018, 3.715e-5
-1.019, 3.715e-5
-1.020, 3.715e-5
-1.021, 3.715e-5
-1.022, 4.024e-5
-1.023, 4.024e-5
-1.024, 4.024e-5
-1.025, 4.024e-5
-1.026, 4.024e-5
-1.027, 4.024e-5
-1.028, 4.024e-5
-1.029, 4.024e-5
-1.030, 4.024e-5
-1.031, 4.024e-5
-1.032, 4.024e-5
-1.033, 4.024e-5
-1.034, 4.332e-5
-1.035, 4.024e-5
-1.036, 4.024e-5
-1.037, 4.332e-5
-1.038, 4.332e-5
-1.039, 4.332e-5
-1.040, 4.332e-5
-1.041, 4.332e-5
-1.042, 4.332e-5
-1.043, 4.332e-5
-1.044, 4.332e-5
-1.045, 4.332e-5
-1.046, 4.332e-5
-1.047, 4.332e-5
-1.048, 4.332e-5
-1.049, 4.332e-5
-1.050, 4.640e-5
-1.051, 4.640e-5
-1.052, 4.640e-5
-1.053, 4.640e-5
-1.054, 4.640e-5
-1.055, 4.640e-5
-1.056, 4.640e-5
-1.057, 4.640e-5
-1.058, 4.640e-5
-1.059, 4.640e-5
-1.060, 4.640e-5
-1.061, 4.640e-5
-1.062, 4.640e-5
-1.063, 4.640e-5
-1.064, 4.949e-5
-1.065, 4.949e-5
-1.066, 4.949e-5
-1.067, 4.949e-5
-1.068, 4.949e-5
-1.069, 4.949e-5
-1.070, 4.949e-5
-1.071, 4.949e-5
-1.072, 4.949e-5
-1.073, 4.949e-5
-1.074, 4.949e-5
-1.075, 4.949e-5
-1.076, 4.949e-5
-1.077, 4.949e-5
-1.078, 5.257e-5
-1.079, 4.949e-5
-1.080, 5.257e-5
-1.081, 5.257e-5
-1.082, 5.257e-5
-1.083, 5.257e-5
-1.084, 5.257e-5
-1.085, 5.257e-5
-1.086, 5.257e-5
-1.087, 5.257e-5
-1.088, 5.257e-5
-1.089, 5.257e-5
-1.090, 5.257e-5
-1.091, 5.257e-5
-1.092, 5.257e-5
-1.093, 5.257e-5
-1.094, 5.257e-5
-1.095, 5.565e-5
-1.096, 5.257e-5
-1.097, 5.565e-5
-1.098, 5.565e-5
-1.099, 5.257e-5
-1.100, 5.565e-5
-1.101, 5.257e-5
-1.102, 5.565e-5
-1.103, 5.565e-5
-1.104, 5.565e-5
-1.105, 5.257e-5
-1.106, 5.257e-5
-1.107, 5.565e-5
-1.108, 5.565e-5
-1.109, 5.565e-5
-1.110, 5.565e-5
-1.111, 5.565e-5
-1.112, 5.565e-5
-1.113, 5.565e-5
-1.114, 5.565e-5
-1.115, 5.565e-5
-1.116, 5.565e-5
-1.117, 5.565e-5
-1.118, 5.565e-5
-1.119, 5.565e-5
-1.120, 5.565e-5
-1.121, 5.565e-5
-1.122, 5.565e-5
-1.123, 5.565e-5
-1.124, 5.565e-5
-1.125, 5.873e-5
-1.126, 5.873e-5
-1.127, 5.873e-5
-1.128, 5.873e-5
-1.129, 5.873e-5
-1.130, 5.873e-5
-1.131, 5.565e-5
-1.132, 5.873e-5
-1.133, 5.873e-5
-1.134, 5.565e-5
-1.135, 5.873e-5
-1.136, 5.565e-5
-1.137, 5.873e-5
-1.138, 5.565e-5
-1.139, 5.873e-5
-1.140, 5.873e-5
-1.141, 5.873e-5
-1.142, 6.182e-5
-1.143, 6.182e-5
-1.144, 5.873e-5
-1.145, 5.873e-5
-1.146, 6.182e-5
-1.147, 5.873e-5
-1.148, 5.873e-5
-1.149, 6.182e-5
-1.150, 5.873e-5
-1.151, 6.182e-5
-1.152, 5.873e-5
-1.153, 6.182e-5
-1.154, 6.182e-5
-1.155, 6.182e-5
-1.156, 6.182e-5
-1.157, 6.182e-5
-1.158, 6.182e-5
-1.159, 6.182e-5
-1.160, 6.182e-5
-1.161, 6.182e-5
-1.162, 6.182e-5
-1.163, 6.182e-5
-1.164, 6.182e-5
-1.165, 6.182e-5
-1.166, 6.490e-5
-1.167, 6.182e-5
-1.168, 6.182e-5
-1.169, 6.490e-5
-1.170, 6.490e-5
-1.171, 6.490e-5
-1.172, 6.490e-5
-1.173, 6.798e-5
-1.174, 6.490e-5
-1.175, 6.490e-5
-1.176, 6.490e-5
-1.177, 6.798e-5
-1.178, 6.798e-5
-1.179, 6.798e-5
-1.180, 6.798e-5
-1.181, 6.490e-5
-1.182, 6.798e-5
-1.183, 6.798e-5
-1.184, 6.798e-5
-1.185, 6.798e-5
-1.186, 7.107e-5
-1.187, 7.107e-5
-1.188, 7.107e-5
-1.189, 7.107e-5
-1.190, 7.107e-5
-1.191, 7.107e-5
-1.192, 7.107e-5
-1.193, 7.107e-5
-1.194, 7.107e-5
-1.195, 7.107e-5
-1.196, 7.415e-5
-1.197, 7.415e-5
-1.198, 7.415e-5
-1.199, 7.415e-5
-1.200, 7.415e-5
-1.201, 7.723e-5
-1.202, 7.723e-5
-1.203, 7.723e-5
-1.204, 7.415e-5
-1.205, 7.723e-5
-1.206, 7.723e-5
-1.207, 7.723e-5
-1.208, 7.723e-5
-1.209, 7.723e-5
-1.210, 8.032e-5
-1.211, 7.723e-5
-1.212, 8.032e-5
-1.213, 8.032e-5
-1.214, 8.032e-5
-1.215, 8.340e-5
-1.216, 8.340e-5
-1.217, 8.340e-5
-1.218, 8.340e-5
-1.219, 8.340e-5
-1.220, 8.340e-5
-1.221, 8.648e-5
-1.222, 8.648e-5
-1.223, 8.648e-5
-1.224, 8.648e-5
-1.225, 8.648e-5
-1.226, 8.648e-5
-1.227, 8.648e-5
-1.228, 8.648e-5
-1.229, 8.957e-5
-1.230, 8.957e-5
-1.231, 8.957e-5
-1.232, 8.957e-5
-1.233, 9.265e-5
-1.234, 9.265e-5
-1.235, 9.265e-5
-1.236, 9.265e-5
-1.237, 9.265e-5
-1.238, 9.265e-5
-1.239, 9.265e-5
-1.240, 9.265e-5
-1.241, 9.265e-5
-1.242, 9.573e-5
-1.243, 9.573e-5
-1.244, 9.573e-5
-1.245, 9.882e-5
-1.246, 9.573e-5
-1.247, 9.882e-5
-1.248, 9.882e-5
-1.249, 9.882e-5
-1.250, 1.019e-4
-1.251, 9.882e-5
-1.252, 1.019e-4
-1.253, 1.019e-4
-1.254, 1.019e-4
-1.255, 1.019e-4
-1.256, 1.019e-4
-1.257, 1.019e-4
-1.258, 1.019e-4
-1.259, 1.050e-4
-1.260, 1.050e-4
-1.261, 1.050e-4
-1.262, 1.081e-4
-1.263, 1.081e-4
-1.264, 1.081e-4
-1.265, 1.081e-4
-1.266, 1.081e-4
-1.267, 1.081e-4
-1.268, 1.081e-4
-1.269, 1.111e-4
-1.270, 1.111e-4
-1.271, 1.111e-4
-1.272, 1.111e-4
-1.273, 1.111e-4
-1.274, 1.142e-4
-1.275, 1.142e-4
-1.276, 1.142e-4
-1.277, 1.173e-4
-1.278, 1.173e-4
-1.279, 1.173e-4
-1.280, 1.173e-4
-1.281, 1.173e-4
-1.282, 1.173e-4
-1.283, 1.173e-4
-1.284, 1.173e-4
-1.285, 1.204e-4
-1.286, 1.204e-4
-1.287, 1.204e-4
-1.288, 1.204e-4
-1.289, 1.235e-4
-1.290, 1.235e-4
-1.291, 1.235e-4
-1.292, 1.235e-4
-1.293, 1.266e-4
-1.294, 1.235e-4
-1.295, 1.266e-4
-1.296, 1.266e-4
-1.297, 1.266e-4
-1.298, 1.266e-4
-1.299, 1.266e-4
-1.300, 1.266e-4
-1.301, 1.266e-4
-1.302, 1.266e-4
-1.303, 1.296e-4
-1.304, 1.296e-4
-1.305, 1.296e-4
-1.306, 1.296e-4
-1.307, 1.327e-4
-1.308, 1.327e-4
-1.309, 1.296e-4
-1.310, 1.327e-4
-1.311, 1.296e-4
-1.312, 1.296e-4
-1.313, 1.296e-4
-1.314, 1.327e-4
-1.315, 1.327e-4
-1.316, 1.296e-4
-1.317, 1.296e-4
-1.318, 1.296e-4
-1.319, 1.296e-4
-1.320, 1.327e-4
-1.321, 1.327e-4
-1.322, 1.296e-4
-1.323, 1.327e-4
-1.324, 1.296e-4
-1.325, 1.296e-4
-1.326, 1.296e-4
-1.327, 1.296e-4
-1.328, 1.266e-4
-1.329, 1.296e-4
-1.330, 1.266e-4
-1.331, 1.266e-4
-1.332, 1.266e-4
-1.333, 1.266e-4
-1.334, 1.266e-4
-1.335, 1.266e-4
-1.336, 1.266e-4
-1.337, 1.235e-4
-1.338, 1.266e-4
-1.339, 1.235e-4
-1.340, 1.235e-4
-1.341, 1.235e-4
-1.342, 1.235e-4
-1.343, 1.204e-4
-1.344, 1.204e-4
-1.345, 1.204e-4
-1.346, 1.204e-4
-1.347, 1.204e-4
-1.348, 1.204e-4
-1.349, 1.204e-4
-1.350, 1.204e-4
-1.351, 1.204e-4
-1.352, 1.173e-4
-1.353, 1.173e-4
-1.354, 1.173e-4
-1.355, 1.173e-4
-1.356, 1.173e-4
-1.357, 1.173e-4
-1.358, 1.173e-4
-1.359, 1.173e-4
-1.360, 1.142e-4
-1.361, 1.173e-4
-1.362, 1.142e-4
-1.363, 1.142e-4
-1.364, 1.142e-4
-1.365, 1.142e-4
-1.366, 1.142e-4
-1.367, 1.142e-4
-1.368, 1.142e-4
-1.369, 1.142e-4
-1.370, 1.142e-4
-1.371, 1.142e-4
-1.372, 1.142e-4
-1.373, 1.142e-4
-1.374, 1.111e-4
-1.375, 1.142e-4
-1.376, 1.111e-4
-1.377, 1.111e-4
-1.378, 1.111e-4
-1.379, 1.142e-4
-1.380, 1.142e-4
-1.381, 1.142e-4
-1.382, 1.142e-4
-1.383, 1.142e-4
-1.384, 1.142e-4
-1.385, 1.142e-4
-1.386, 1.142e-4
-1.387, 1.142e-4
-1.388, 1.142e-4
-1.389, 1.142e-4
-1.390, 1.142e-4
-1.391, 1.142e-4
-1.392, 1.142e-4
-1.393, 1.142e-4
-1.394, 1.142e-4
-1.395, 1.173e-4
-1.396, 1.173e-4
-1.397, 1.173e-4
-1.398, 1.173e-4
-1.399, 1.204e-4
-1.400, 1.173e-4
-1.401, 1.204e-4
-1.402, 1.204e-4
-1.403, 1.204e-4
-1.404, 1.204e-4
-1.405, 1.204e-4
-1.406, 1.204e-4
-1.407, 1.235e-4
-1.408, 1.235e-4
-1.409, 1.235e-4
-1.410, 1.266e-4
-1.411, 1.266e-4
-1.412, 1.266e-4
-1.413, 1.296e-4
-1.414, 1.296e-4
-1.415, 1.296e-4
-1.416, 1.296e-4
-1.417, 1.327e-4
-1.418, 1.327e-4
-1.419, 1.327e-4
-1.420, 1.358e-4
-1.421, 1.358e-4
-1.422, 1.358e-4
-1.423, 1.389e-4
-1.424, 1.389e-4
-1.425, 1.420e-4
-1.426, 1.420e-4
-1.427, 1.451e-4
-1.428, 1.481e-4
-1.429, 1.451e-4
-1.430, 1.481e-4
-1.431, 1.512e-4
-1.432, 1.512e-4
-1.433, 1.512e-4
-1.434, 1.543e-4
-1.435, 1.543e-4
-1.436, 1.543e-4
-1.437, 1.574e-4
-1.438, 1.574e-4
-1.439, 1.605e-4
-1.440, 1.605e-4
-1.441, 1.636e-4
-1.442, 1.666e-4
-1.443, 1.666e-4
-1.444, 1.697e-4
-1.445, 1.697e-4
-1.446, 1.728e-4
-1.447, 1.728e-4
-1.448, 1.759e-4
-1.449, 1.759e-4
-1.450, 1.790e-4
-1.451, 1.821e-4
-1.452, 1.821e-4
-1.453, 1.851e-4
-1.454, 1.882e-4
-1.455, 1.913e-4
-1.456, 1.913e-4
-1.457, 1.975e-4
-1.458, 1.975e-4
-1.459, 2.006e-4
-1.460, 2.036e-4
-1.461, 2.067e-4
-1.462, 2.098e-4
-1.463, 2.098e-4
-1.464, 2.129e-4
-1.465, 2.160e-4
-1.466, 2.191e-4
-1.467, 2.221e-4
-1.468, 2.252e-4
-1.469, 2.283e-4
-1.470, 2.314e-4
-1.471, 2.376e-4
-1.472, 2.406e-4
-1.473, 2.437e-4
-1.474, 2.468e-4
-1.475, 2.499e-4
-1.476, 2.561e-4
-1.477, 2.591e-4
-1.478, 2.622e-4
-1.479, 2.684e-4
-1.480, 2.715e-4
-1.481, 2.776e-4
-1.482, 2.807e-4
-1.483, 2.869e-4
-1.484, 2.931e-4
-1.485, 2.992e-4
-1.486, 3.023e-4
-1.487, 3.115e-4
-1.488, 3.146e-4
-1.489, 3.208e-4
-1.490, 3.300e-4
-1.491, 3.331e-4
-1.492, 3.424e-4
-1.493, 3.485e-4
-1.494, 3.547e-4
-1.495, 3.640e-4
-1.496, 3.701e-4
-1.497, 3.794e-4
-1.498, 3.855e-4
-1.499, 3.948e-4
-1.500, 4.040e-4
-1.501, 4.133e-4
-1.502, 4.225e-4
-1.503, 4.349e-4
-1.504, 4.441e-4
-1.505, 4.534e-4
-1.506, 4.657e-4
-1.507, 4.780e-4
-1.508, 4.873e-4
-1.509, 4.996e-4
-1.510, 5.120e-4
-1.511, 5.243e-4
-1.512, 5.366e-4
-1.513, 5.489e-4
-1.514, 5.644e-4
-1.515, 5.798e-4
-1.516, 5.952e-4
-1.517, 6.106e-4
-1.518, 6.260e-4
-1.519, 6.414e-4
-1.520, 6.569e-4
-1.521, 6.754e-4
-1.522, 6.939e-4
-1.523, 7.093e-4
-1.524, 7.278e-4
-1.525, 7.494e-4
-1.526, 7.679e-4
-1.527, 7.863e-4
-1.528, 8.048e-4
-1.529, 8.264e-4
-1.530, 8.511e-4
-1.531, 8.696e-4
-1.532, 8.943e-4
-1.533, 9.189e-4
-1.534, 9.405e-4
-1.535, 9.652e-4
-1.536, 9.898e-4
-1.537, 1.014e-3
-1.538, 1.036e-3
-1.539, 1.064e-3
-1.540, 1.088e-3
-1.541, 1.116e-3
-1.542, 1.141e-3
-1.543, 1.169e-3
-1.544, 1.196e-3
-1.545, 1.221e-3
-1.546, 1.252e-3
-1.547, 1.280e-3
-1.548, 1.310e-3
-1.549, 1.338e-3
-1.550, 1.369e-3
-1.551, 1.400e-3
-1.552, 1.428e-3
-1.553, 1.458e-3
-1.554, 1.489e-3
-1.555, 1.520e-3
-1.556, 1.551e-3
-1.557, 1.582e-3
-1.558, 1.616e-3
-1.559, 1.647e-3
-1.560, 1.680e-3
-1.561, 1.714e-3
-1.562, 1.748e-3
-1.563, 1.785e-3
-1.564, 1.819e-3
-1.565, 1.853e-3
-1.566, 1.887e-3
-1.567, 1.921e-3
-1.568, 1.958e-3
-1.569, 1.995e-3
-1.570, 2.029e-3
-1.571, 2.063e-3
-1.572, 2.100e-3
-1.573, 2.137e-3
-1.574, 2.174e-3
-1.575, 2.214e-3
-1.576, 2.254e-3
-1.577, 2.294e-3
-1.578, 2.334e-3
-1.579, 2.377e-3
-1.580, 2.417e-3
-1.581, 2.460e-3
-1.582, 2.501e-3
-1.583, 2.541e-3
-1.584, 2.584e-3
-1.585, 2.624e-3
-1.586, 2.667e-3
-1.587, 2.707e-3
-1.588, 2.750e-3
-1.589, 2.793e-3
-1.590, 2.840e-3
-1.591, 2.883e-3
-1.592, 2.929e-3
-1.593, 2.975e-3
-1.594, 3.019e-3
-1.595, 3.065e-3
-1.596, 3.111e-3
-1.597, 3.157e-3
-1.598, 3.200e-3
-1.599, 3.247e-3
-1.600, 3.293e-3
-1.601, 3.339e-3
-1.602, 3.385e-3
-1.603, 3.429e-3
-1.604, 3.478e-3
-1.605, 3.524e-3
-1.606, 3.577e-3
-1.607, 3.623e-3
-1.608, 3.675e-3
-1.609, 3.725e-3
-1.610, 3.774e-3
-1.611, 3.826e-3
-1.612, 3.876e-3
-1.613, 3.928e-3
-1.614, 3.980e-3
-1.615, 4.030e-3
-1.616, 4.082e-3
-1.617, 4.135e-3
-1.618, 4.187e-3
-1.619, 4.243e-3
-1.620, 4.298e-3
-1.621, 4.350e-3
-1.622, 4.406e-3
-1.623, 4.464e-3
-1.624, 4.520e-3
-1.625, 4.575e-3
-1.626, 4.634e-3
-1.627, 4.690e-3
-1.628, 4.745e-3
-1.629, 4.801e-3
-1.630, 4.856e-3
-1.631, 4.912e-3
-1.632, 4.970e-3
-1.633, 5.026e-3
-1.634, 5.087e-3
-1.635, 5.146e-3
-1.636, 5.208e-3
-1.637, 5.269e-3
-1.638, 5.331e-3
-1.639, 5.393e-3
-1.640, 5.454e-3
-1.641, 5.516e-3
-1.642, 5.574e-3
-1.643, 5.633e-3
-1.644, 5.692e-3
-1.645, 5.747e-3
-1.646, 5.806e-3
-1.647, 5.867e-3
-1.648, 5.929e-3
-1.649, 5.988e-3
-1.650, 6.049e-3
-1.651, 6.111e-3
-1.652, 6.173e-3
-1.653, 6.234e-3
-1.654, 6.296e-3
-1.655, 6.354e-3
-1.656, 6.413e-3
-1.657, 6.472e-3
-1.658, 6.530e-3
-1.659, 6.592e-3
-1.660, 6.650e-3
-1.661, 6.709e-3
-1.662, 6.774e-3
-1.663, 6.835e-3
-1.664, 6.900e-3
-1.665, 6.965e-3
-1.666, 7.033e-3
-1.667, 7.097e-3
-1.668, 7.165e-3
-1.669, 7.230e-3
-1.670, 7.292e-3
-1.671, 7.356e-3
-1.672, 7.418e-3
-1.673, 7.480e-3
-1.674, 7.541e-3
-1.675, 7.603e-3
-1.676, 7.665e-3
-1.677, 7.730e-3
-1.678, 7.797e-3
-1.679, 7.865e-3
-1.680, 7.936e-3
-1.681, 8.010e-3
-1.682, 8.081e-3
-1.683, 8.155e-3
-1.684, 8.232e-3
-1.685, 8.306e-3
-1.686, 8.383e-3
-1.687, 8.463e-3
-1.688, 8.540e-3
-1.689, 8.617e-3
-1.690, 8.698e-3
-1.691, 8.772e-3
-1.692, 8.849e-3
-1.693, 8.923e-3
-1.694, 8.997e-3
-1.695, 9.071e-3
-1.696, 9.138e-3
-1.697, 9.212e-3
-1.698, 9.283e-3
-1.699, 9.351e-3
-1.700, 9.367e-3
-1.699, 9.290e-3
-1.698, 9.209e-3
-1.697, 9.129e-3
-1.696, 9.049e-3
-1.695, 8.969e-3
-1.694, 8.889e-3
-1.693, 8.812e-3
-1.692, 8.732e-3
-1.691, 8.658e-3
-1.690, 8.584e-3
-1.689, 8.510e-3
-1.688, 8.436e-3
-1.687, 8.368e-3
-1.686, 8.294e-3
-1.685, 8.223e-3
-1.684, 8.152e-3
-1.683, 8.081e-3
-1.682, 8.010e-3
-1.681, 7.939e-3
-1.680, 7.871e-3
-1.679, 7.797e-3
-1.678, 7.730e-3
-1.677, 7.659e-3
-1.676, 7.588e-3
-1.675, 7.523e-3
-1.674, 7.455e-3
-1.673, 7.390e-3
-1.672, 7.326e-3
-1.671, 7.261e-3
-1.670, 7.196e-3
-1.669, 7.131e-3
-1.668, 7.067e-3
-1.667, 7.002e-3
-1.666, 6.934e-3
-1.665, 6.869e-3
-1.664, 6.801e-3
-1.663, 6.734e-3
-1.662, 6.669e-3
-1.661, 6.604e-3
-1.660, 6.543e-3
-1.659, 6.481e-3
-1.658, 6.419e-3
-1.657, 6.358e-3
-1.656, 6.296e-3
-1.655, 6.231e-3
-1.654, 6.169e-3
-1.653, 6.105e-3
-1.652, 6.040e-3
-1.651, 5.978e-3
-1.650, 5.917e-3
-1.649, 5.855e-3
-1.648, 5.790e-3
-1.647, 5.732e-3
-1.646, 5.670e-3
-1.645, 5.608e-3
-1.644, 5.550e-3
-1.643, 5.491e-3
-1.642, 5.433e-3
-1.641, 5.371e-3
-1.640, 5.312e-3
-1.639, 5.251e-3
-1.638, 5.189e-3
-1.637, 5.130e-3
-1.636, 5.072e-3
-1.635, 5.016e-3
-1.634, 4.955e-3
-1.633, 4.899e-3
-1.632, 4.841e-3
-1.631, 4.782e-3
-1.630, 4.727e-3
-1.629, 4.671e-3
-1.628, 4.616e-3
-1.627, 4.563e-3
-1.626, 4.511e-3
-1.625, 4.455e-3
-1.624, 4.403e-3
-1.623, 4.354e-3
-1.622, 4.301e-3
-1.621, 4.249e-3
-1.620, 4.193e-3
-1.619, 4.141e-3
-1.618, 4.088e-3
-1.617, 4.036e-3
-1.616, 3.984e-3
-1.615, 3.934e-3
-1.614, 3.888e-3
-1.613, 3.839e-3
-1.612, 3.789e-3
-1.611, 3.743e-3
-1.610, 3.697e-3
-1.609, 3.647e-3
-1.608, 3.601e-3
-1.607, 3.552e-3
-1.606, 3.503e-3
-1.605, 3.456e-3
-1.604, 3.407e-3
-1.603, 3.358e-3
-1.602, 3.311e-3
-1.601, 3.265e-3
-1.600, 3.222e-3
-1.599, 3.179e-3
-1.598, 3.133e-3
-1.597, 3.089e-3
-1.596, 3.046e-3
-1.595, 3.003e-3
-1.594, 2.960e-3
-1.593, 2.914e-3
-1.592, 2.871e-3
-1.591, 2.827e-3
-1.590, 2.787e-3
-1.589, 2.747e-3
-1.588, 2.707e-3
-1.587, 2.664e-3
-1.586, 2.627e-3
-1.585, 2.587e-3
-1.584, 2.550e-3
-1.583, 2.513e-3
-1.582, 2.473e-3
-1.581, 2.436e-3
-1.580, 2.399e-3
-1.579, 2.362e-3
-1.578, 2.325e-3
-1.577, 2.288e-3
-1.576, 2.248e-3
-1.575, 2.214e-3
-1.574, 2.180e-3
-1.573, 2.143e-3
-1.572, 2.109e-3
-1.571, 2.075e-3
-1.570, 2.041e-3
-1.569, 2.007e-3
-1.568, 1.976e-3
-1.567, 1.946e-3
-1.566, 1.912e-3
-1.565, 1.884e-3
-1.564, 1.850e-3
-1.563, 1.822e-3
-1.562, 1.788e-3
-1.561, 1.758e-3
-1.560, 1.727e-3
-1.559, 1.696e-3
-1.558, 1.668e-3
-1.557, 1.634e-3
-1.556, 1.606e-3
-1.555, 1.579e-3
-1.554, 1.551e-3
-1.553, 1.523e-3
-1.552, 1.495e-3
-1.551, 1.471e-3
-1.550, 1.443e-3
-1.549, 1.418e-3
-1.548, 1.391e-3
-1.547, 1.366e-3
-1.546, 1.338e-3
-1.545, 1.314e-3
-1.544, 1.289e-3
-1.543, 1.264e-3
-1.542, 1.240e-3
-1.541, 1.215e-3
-1.540, 1.193e-3
-1.539, 1.172e-3
-1.538, 1.150e-3
-1.537, 1.129e-3
-1.536, 1.107e-3
-1.535, 1.085e-3
-1.534, 1.064e-3
-1.533, 1.045e-3
-1.532, 1.024e-3
-1.531, 1.002e-3
-1.530, 9.837e-4
-1.529, 9.621e-4
-1.528, 9.405e-4
-1.527, 9.251e-4
-1.526, 9.035e-4
-1.525, 8.881e-4
-1.524, 8.696e-4
-1.523, 8.511e-4
-1.522, 8.326e-4
-1.521, 8.172e-4
-1.520, 7.987e-4
-1.519, 7.802e-4
-1.518, 7.648e-4
-1.517, 7.494e-4
-1.516, 7.339e-4
-1.515, 7.185e-4
-1.514, 7.031e-4
-1.513, 6.877e-4
-1.512, 6.723e-4
-1.511, 6.599e-4
-1.510, 6.445e-4
-1.509, 6.322e-4
-1.508, 6.199e-4
-1.507, 6.075e-4
-1.506, 5.921e-4
-1.505, 5.798e-4
-1.504, 5.674e-4
-1.503, 5.551e-4
-1.502, 5.428e-4
-1.501, 5.305e-4
-1.500, 5.181e-4
-1.499, 5.058e-4
-1.498, 4.935e-4
-1.497, 4.842e-4
-1.496, 4.719e-4
-1.495, 4.626e-4
-1.494, 4.503e-4
-1.493, 4.410e-4
-1.492, 4.318e-4
-1.491, 4.225e-4
-1.490, 4.133e-4
-1.489, 4.040e-4
-1.488, 3.948e-4
-1.487, 3.855e-4
-1.486, 3.763e-4
-1.485, 3.670e-4
-1.484, 3.578e-4
-1.483, 3.485e-4
-1.482, 3.393e-4
-1.481, 3.331e-4
-1.480, 3.239e-4
-1.479, 3.177e-4
-1.478, 3.085e-4
-1.477, 3.023e-4
-1.476, 2.961e-4
-1.475, 2.869e-4
-1.474, 2.807e-4
-1.473, 2.746e-4
-1.472, 2.684e-4
-1.471, 2.622e-4
-1.470, 2.530e-4
-1.469, 2.468e-4
-1.468, 2.406e-4
-1.467, 2.345e-4
-1.466, 2.283e-4
-1.465, 2.252e-4
-1.464, 2.191e-4
-1.463, 2.129e-4
-1.462, 2.098e-4
-1.461, 2.006e-4
-1.460, 1.975e-4
-1.459, 1.913e-4
-1.458, 1.882e-4
-1.457, 1.821e-4
-1.456, 1.759e-4
-1.455, 1.728e-4
-1.454, 1.666e-4
-1.453, 1.636e-4
-1.452, 1.574e-4
-1.451, 1.543e-4
-1.450, 1.512e-4
-1.449, 1.451e-4
-1.448, 1.420e-4
-1.447, 1.389e-4
-1.446, 1.358e-4
-1.445, 1.296e-4
-1.444, 1.266e-4
-1.443, 1.235e-4
-1.442, 1.204e-4
-1.441, 1.173e-4
-1.440, 1.142e-4
-1.439, 1.111e-4
-1.438, 1.050e-4
-1.437, 1.050e-4
-1.436, 9.882e-5
-1.435, 9.882e-5
-1.434, 9.573e-5
-1.433, 9.265e-5
-1.432, 8.957e-5
-1.431, 8.648e-5
-1.430, 8.648e-5
-1.429, 8.032e-5
-1.428, 7.723e-5
-1.427, 7.723e-5
-1.426, 7.415e-5
-1.425, 7.107e-5
-1.424, 6.798e-5
-1.423, 6.490e-5
-1.422, 6.490e-5
-1.421, 6.182e-5
-1.420, 5.873e-5
-1.419, 5.873e-5
-1.418, 5.565e-5
-1.417, 5.565e-5
-1.416, 5.257e-5
-1.415, 4.949e-5
-1.414, 4.640e-5
-1.413, 4.640e-5
-1.412, 4.332e-5
-1.411, 4.332e-5
-1.410, 4.024e-5
-1.409, 4.024e-5
-1.408, 3.715e-5
-1.407, 3.407e-5
-1.406, 3.407e-5
-1.405, 3.099e-5
-1.404, 3.099e-5
-1.403, 2.790e-5
-1.402, 2.790e-5
-1.401, 2.790e-5
-1.400, 2.482e-5
-1.399, 2.174e-5
-1.398, 2.174e-5
-1.397, 2.174e-5
-1.396, 1.865e-5
-1.395, 1.865e-5
-1.394, 1.557e-5
-1.393, 1.557e-5
-1.392, 1.249e-5
-1.391, 1.249e-5
-1.390, 1.249e-5
-1.389, 1.249e-5
-1.388, 9.405e-6
-1.387, 9.405e-6
-1.386, 6.322e-6
-1.385, 6.322e-6
-1.384, 3.239e-6
-1.383, 3.239e-6
-1.382, 3.239e-6
-1.381, 1.559e-7
-1.380, 1.559e-7
-1.379, 1.559e-7
-1.378, 1.559e-7
-1.377, -2.927e-6
-1.376, -2.927e-6
-1.375, -2.927e-6
-1.374, -2.927e-6
-1.373, -2.927e-6
-1.372, -6.010e-6
-1.371, -9.093e-6
-1.370, -9.093e-6
-1.369, -9.093e-6
-1.368, -9.093e-6
-1.367, -1.218e-5
-1.366, -1.218e-5
-1.365, -1.218e-5
-1.364, -1.218e-5
-1.363, -1.526e-5
-1.362, -1.526e-5
-1.361, -1.526e-5
-1.360, -1.526e-5
-1.359, -1.526e-5
-1.358, -1.834e-5
-1.357, -1.834e-5
-1.356, -1.834e-5
-1.355, -1.834e-5
-1.354, -2.143e-5
-1.353, -2.143e-5
-1.352, -2.143e-5
-1.351, -2.143e-5
-1.350, -2.451e-5
-1.349, -2.451e-5
-1.348, -2.451e-5
-1.347, -2.451e-5
-1.346, -2.451e-5
-1.345, -2.759e-5
-1.344, -2.759e-5
-1.343, -2.451e-5
-1.342, -2.759e-5
-1.341, -2.759e-5
-1.340, -3.068e-5
-1.339, -3.068e-5
-1.338, -3.068e-5
-1.337, -3.068e-5
-1.336, -3.068e-5
-1.335, -3.376e-5
-1.334, -3.376e-5
-1.333, -3.376e-5
-1.332, -3.376e-5
-1.331, -3.376e-5
-1.330, -3.376e-5
-1.329, -3.376e-5
-1.328, -3.376e-5
-1.327, -3.376e-5
-1.326, -3.684e-5
-1.325, -3.684e-5
-1.324, -3.684e-5
-1.323, -3.992e-5
-1.322, -3.992e-5
-1.321, -3.992e-5
-1.320, -3.992e-5
-1.319, -3.992e-5
-1.318, -4.301e-5
-1.317, -4.301e-5
-1.316, -4.301e-5
-1.315, -4.301e-5
-1.314, -4.301e-5
-1.313, -4.301e-5
-1.312, -4.301e-5
-1.311, -4.301e-5
-1.310, -4.609e-5
-1.309, -4.609e-5
-1.308, -4.917e-5
-1.307, -4.917e-5
-1.306, -4.609e-5
-1.305, -4.917e-5
-1.304, -4.917e-5
-1.303, -4.917e-5
-1.302, -4.917e-5
-1.301, -4.917e-5
-1.300, -4.917e-5
-1.299, -4.917e-5
-1.298, -4.917e-5
-1.297, -4.917e-5
-1.296, -4.917e-5
-1.295, -5.226e-5
-1.294, -5.534e-5
-1.293, -5.534e-5
-1.292, -5.534e-5
-1.291, -5.534e-5
-1.290, -5.534e-5
-1.289, -5.534e-5
-1.288, -5.534e-5
-1.287, -5.534e-5
-1.286, -5.842e-5
-1.285, -5.842e-5
-1.284, -5.842e-5
-1.283, -5.842e-5
-1.282, -5.842e-5
-1.281, -5.842e-5
-1.280, -5.842e-5
-1.279, -6.151e-5
-1.278, -6.151e-5
-1.277, -6.151e-5
-1.276, -6.151e-5
-1.275, -6.151e-5
-1.274, -6.151e-5
-1.273, -6.151e-5
-1.272, -6.459e-5
-1.271, -6.151e-5
-1.270, -6.151e-5
-1.269, -6.151e-5
-1.268, -6.459e-5
-1.267, -6.459e-5
-1.266, -6.459e-5
-1.265, -6.459e-5
-1.264, -6.459e-5
-1.263, -6.767e-5
-1.262, -6.767e-5
-1.261, -6.767e-5
-1.260, -6.767e-5
-1.259, -6.767e-5
-1.258, -6.767e-5
-1.257, -6.767e-5
-1.256, -6.767e-5
-1.255, -6.767e-5
-1.254, -6.767e-5
-1.253, -6.767e-5
-1.252, -7.076e-5
-1.251, -7.076e-5
-1.250, -7.076e-5
-1.249, -7.076e-5
-1.248, -7.076e-5
-1.247, -7.384e-5
-1.246, -7.384e-5
-1.245, -7.384e-5
-1.244, -7.384e-5
-1.243, -7.384e-5
-1.242, -7.692e-5
-1.241, -7.384e-5
-1.240, -7.384e-5
-1.239, -7.692e-5
-1.238, -7.384e-5
-1.237, -7.384e-5
-1.236, -7.384e-5
-1.235, -7.692e-5
-1.234, -7.692e-5
-1.233, -7.692e-5
-1.232, -7.692e-5
-1.231, -7.692e-5
-1.230, -8.000e-5
-1.229, -8.000e-5
-1.228, -8.000e-5
-1.227, -8.000e-5
-1.226, -8.000e-5
-1.225, -8.000e-5
-1.224, -8.000e-5
-1.223, -8.000e-5
-1.222, -8.000e-5
-1.221, -8.000e-5
-1.220, -8.000e-5
-1.219, -8.309e-5
-1.218, -8.309e-5
-1.217, -8.309e-5
-1.216, -8.309e-5
-1.215, -8.309e-5
-1.214, -8.617e-5
-1.213, -8.309e-5
-1.212, -8.617e-5
-1.211, -8.309e-5
-1.210, -8.309e-5
-1.209, -8.617e-5
-1.208, -8.309e-5
-1.207, -8.309e-5
-1.206, -8.617e-5
-1.205, -8.617e-5
-1.204, -8.617e-5
-1.203, -8.617e-5
-1.202, -8.617e-5
-1.201, -8.617e-5
-1.200, -8.925e-5
-1.199, -8.617e-5
-1.198, -8.617e-5
-1.197, -8.617e-5
-1.196, -8.617e-5
-1.195, -8.617e-5
-1.194, -8.617e-5
-1.193, -8.617e-5
-1.192, -8.617e-5
-1.191, -8.617e-5
-1.190, -8.617e-5
-1.189, -8.925e-5
-1.188, -8.925e-5
-1.187, -8.617e-5
-1.186, -8.617e-5
-1.185, -8.617e-5
-1.184, -8.617e-5
-1.183, -8.925e-5
-1.182, -8.925e-5
-1.181, -8.617e-5
-1.180, -8.925e-5
-1.179, -8.925e-5
-1.178, -8.617e-5
-1.177, -8.617e-5
-1.176, -8.617e-5
-1.175, -8.617e-5
-1.174, -8.925e-5
-1.173, -8.925e-5
-1.172, -8.925e-5
-1.171, -8.925e-5
-1.170, -8.925e-5
-1.169, -8.925e-5
-1.168, -8.925e-5
-1.167, -8.925e-5
-1.166, -8.925e-5
-1.165, -8.925e-5
-1.164, -8.925e-5
-1.163, -8.925e-5
-1.162, -8.925e-5
-1.161, -8.925e-5
-1.160, -8.925e-5
-1.159, -8.925e-5
-1.158, -8.925e-5
-1.157, -8.925e-5
-1.156, -8.925e-5
-1.155, -9.234e-5
-1.154, -8.925e-5
-1.153, -9.234e-5
-1.152, -9.234e-5
-1.151, -9.234e-5
-1.150, -8.925e-5
-1.149, -8.925e-5
-1.148, -8.925e-5
-1.147, -8.925e-5
-1.146, -9.234e-5
-1.145, -8.925e-5
-1.144, -9.234e-5
-1.143, -9.234e-5
-1.142, -9.234e-5
-1.141, -9.234e-5
-1.140, -9.234e-5
-1.139, -9.234e-5
-1.138, -9.542e-5
-1.137, -9.234e-5
-1.136, -9.234e-5
-1.135, -9.542e-5
-1.134, -9.234e-5
-1.133, -9.234e-5
-1.132, -9.234e-5
-1.131, -9.234e-5
-1.130, -9.542e-5
-1.129, -9.542e-5
-1.128, -9.542e-5
-1.127, -9.542e-5
-1.126, -9.850e-5
-1.125, -9.542e-5
-1.124, -9.542e-5
-1.123, -9.542e-5
-1.122, -9.850e-5
-1.121, -9.850e-5
-1.120, -9.542e-5
-1.119, -9.542e-5
-1.118, -9.850e-5
-1.117, -9.542e-5
-1.116, -9.850e-5
-1.115, -9.850e-5
-1.114, -9.850e-5
-1.113, -9.850e-5
-1.112, -9.850e-5
-1.111, -9.850e-5
-1.110, -1.016e-4
-1.109, -9.850e-5
-1.108, -1.016e-4
-1.107, -1.016e-4
-1.106, -1.016e-4
-1.105, -1.016e-4
-1.104, -1.016e-4
-1.103, -9.850e-5
-1.102, -1.016e-4
-1.101, -1.016e-4
-1.100, -1.016e-4
-1.099, -1.016e-4
-1.098, -1.016e-4
-1.097, -1.016e-4
-1.096, -1.047e-4
-1.095, -1.047e-4
-1.094, -1.047e-4
-1.093, -1.047e-4
-1.092, -1.047e-4
-1.091, -1.047e-4
-1.090, -1.047e-4
-1.089, -1.047e-4
-1.088, -1.047e-4
-1.087, -1.016e-4
-1.086, -1.047e-4
-1.085, -1.047e-4
-1.084, -1.078e-4
-1.083, -1.047e-4
-1.082, -1.047e-4
-1.081, -1.078e-4
-1.080, -1.078e-4
-1.079, -1.078e-4
-1.078, -1.078e-4
-1.077, -1.078e-4
-1.076, -1.047e-4
-1.075, -1.078e-4
-1.074, -1.078e-4
-1.073, -1.078e-4
-1.072, -1.047e-4
-1.071, -1.047e-4
-1.070, -1.078e-4
-1.069, -1.078e-4
-1.068, -1.078e-4
-1.067, -1.078e-4
-1.066, -1.078e-4
-1.065, -1.078e-4
-1.064, -1.078e-4
-1.063, -1.078e-4
-1.062, -1.078e-4
-1.061, -1.078e-4
-1.060, -1.078e-4
-1.059, -1.078e-4
-1.058, -1.047e-4
-1.057, -1.047e-4
-1.056, -1.078e-4
-1.055, -1.047e-4
-1.054, -1.078e-4
-1.053, -1.047e-4
-1.052, -1.078e-4
-1.051, -1.078e-4
-1.050, -1.078e-4
-1.049, -1.078e-4
-1.048, -1.047e-4
-1.047, -1.078e-4
-1.046, -1.078e-4
-1.045, -1.047e-4
-1.044, -1.047e-4
-1.043, -1.047e-4
-1.042, -1.047e-4
-1.041, -1.047e-4
-1.040, -1.047e-4
-1.039, -1.047e-4
-1.038, -1.047e-4
-1.037, -1.047e-4
-1.036, -1.047e-4
-1.035, -1.047e-4
-1.034, -1.047e-4
-1.033, -1.047e-4
-1.032, -1.047e-4
-1.031, -1.047e-4
-1.030, -1.047e-4
-1.029, -1.016e-4
-1.028, -1.016e-4
-1.027, -1.016e-4
-1.026, -1.016e-4
-1.025, -1.016e-4
-1.024, -1.016e-4
-1.023, -1.016e-4
-1.022, -1.016e-4
-1.021, -1.016e-4
-1.020, -1.016e-4
-1.019, -1.016e-4
-1.018, -1.016e-4
-1.017, -1.016e-4
-1.016, -1.016e-4
-1.015, -1.016e-4
-1.014, -1.016e-4
-1.013, -9.850e-5
-1.012, -9.850e-5
-1.011, -9.850e-5
-1.010, -9.850e-5
-1.009, -9.850e-5
-1.008, -9.850e-5
-1.007, -9.850e-5
-1.006, -9.850e-5
-1.005, -9.850e-5
-1.004, -9.850e-5
-1.003, -9.850e-5
-1.002, -9.850e-5
-1.001, -9.850e-5
