Dec. 18, 2024   01:51:06
Linear Sweep Voltammetry
File: c:/users/guazh/data/banditlqround7_x0exp667_r5/2024-12-16-exp686\pre-regen-2024-12-18t01_47_57-lsvinphos\pre-regen_lsv_50mvs_efin_-1900mv.bin
Data Source:  Experiment
Instrument Model:  CHI760E
Header: LSV ran at 50 mVs with Efin at -1900mV
Note: 

Init E (V) = -0.6
Final E (V) = -1.9
Scan Rate (V/s) = 0.05
Sample Interval (V) = 0.001
Quiet Time (sec) = 2
Sensitivity (A/V) = 1e-4
Comp R (ohm) = 7.9

Results:

Channel 1:
Ep = -1.513V
ip = 4.099e-4A
Ah = 8.210e-4C

Potential/V, Current/A

-0.600, -2.501e-6
-0.601, -2.223e-6
-0.602, -2.032e-6
-0.603, -1.883e-6
-0.604, -1.754e-6
-0.605, -1.642e-6
-0.606, -1.535e-6
-0.607, -1.435e-6
-0.608, -1.336e-6
-0.609, -1.243e-6
-0.610, -1.154e-6
-0.611, -1.069e-6
-0.612, -9.864e-7
-0.613, -9.036e-7
-0.614, -8.196e-7
-0.615, -7.423e-7
-0.616, -6.705e-7
-0.617, -5.988e-7
-0.618, -5.276e-7
-0.619, -4.542e-7
-0.620, -3.854e-7
-0.621, -3.201e-7
-0.622, -2.569e-7
-0.623, -1.939e-7
-0.624, -1.262e-7
-0.625, -6.277e-8
-0.626, -5.742e-9
-0.627, 5.533e-8
-0.628, 1.166e-7
-0.629, 1.778e-7
-0.630, 2.381e-7
-0.631, 2.948e-7
-0.632, 3.516e-7
-0.633, 4.088e-7
-0.634, 4.678e-7
-0.635, 5.234e-7
-0.636, 5.757e-7
-0.637, 6.249e-7
-0.638, 6.802e-7
-0.639, 7.344e-7
-0.640, 7.868e-7
-0.641, 8.369e-7
-0.642, 8.849e-7
-0.643, 9.381e-7
-0.644, 9.916e-7
-0.645, 1.042e-6
-0.646, 1.089e-6
-0.647, 1.134e-6
-0.648, 1.184e-6
-0.649, 1.237e-6
-0.650, 1.283e-6
-0.651, 1.330e-6
-0.652, 1.375e-6
-0.653, 1.424e-6
-0.654, 1.474e-6
-0.655, 1.521e-6
-0.656, 1.567e-6
-0.657, 1.612e-6
-0.658, 1.657e-6
-0.659, 1.707e-6
-0.660, 1.753e-6
-0.661, 1.796e-6
-0.662, 1.840e-6
-0.663, 1.885e-6
-0.664, 1.936e-6
-0.665, 1.980e-6
-0.666, 2.028e-6
-0.667, 2.071e-6
-0.668, 2.116e-6
-0.669, 2.162e-6
-0.670, 2.206e-6
-0.671, 2.245e-6
-0.672, 2.288e-6
-0.673, 2.332e-6
-0.674, 2.381e-6
-0.675, 2.426e-6
-0.676, 2.467e-6
-0.677, 2.508e-6
-0.678, 2.555e-6
-0.679, 2.603e-6
-0.680, 2.647e-6
-0.681, 2.690e-6
-0.682, 2.730e-6
-0.683, 2.776e-6
-0.684, 2.825e-6
-0.685, 2.868e-6
-0.686, 2.911e-6
-0.687, 2.952e-6
-0.688, 2.998e-6
-0.689, 3.047e-6
-0.690, 3.092e-6
-0.691, 3.135e-6
-0.692, 3.178e-6
-0.693, 3.223e-6
-0.694, 3.272e-6
-0.695, 3.315e-6
-0.696, 3.359e-6
-0.697, 3.404e-6
-0.698, 3.449e-6
-0.699, 3.498e-6
-0.700, 3.542e-6
-0.701, 3.585e-6
-0.702, 3.630e-6
-0.703, 3.675e-6
-0.704, 3.726e-6
-0.705, 3.772e-6
-0.706, 3.815e-6
-0.707, 3.861e-6
-0.708, 3.907e-6
-0.709, 3.957e-6
-0.710, 4.004e-6
-0.711, 4.047e-6
-0.712, 4.091e-6
-0.713, 4.141e-6
-0.714, 4.188e-6
-0.715, 4.234e-6
-0.716, 4.277e-6
-0.717, 4.323e-6
-0.718, 4.371e-6
-0.719, 4.422e-6
-0.720, 4.470e-6
-0.721, 4.518e-6
-0.722, 4.563e-6
-0.723, 4.613e-6
-0.724, 4.663e-6
-0.725, 4.712e-6
-0.726, 4.759e-6
-0.727, 4.804e-6
-0.728, 4.854e-6
-0.729, 4.906e-6
-0.730, 4.955e-6
-0.731, 5.003e-6
-0.732, 5.051e-6
-0.733, 5.102e-6
-0.734, 5.155e-6
-0.735, 5.203e-6
-0.736, 5.253e-6
-0.737, 5.302e-6
-0.738, 5.352e-6
-0.739, 5.407e-6
-0.740, 5.457e-6
-0.741, 5.507e-6
-0.742, 5.558e-6
-0.743, 5.610e-6
-0.744, 5.665e-6
-0.745, 5.716e-6
-0.746, 5.764e-6
-0.747, 5.819e-6
-0.748, 5.871e-6
-0.749, 5.923e-6
-0.750, 5.976e-6
-0.751, 6.025e-6
-0.752, 6.077e-6
-0.753, 6.133e-6
-0.754, 6.187e-6
-0.755, 6.240e-6
-0.756, 6.293e-6
-0.757, 6.344e-6
-0.758, 6.401e-6
-0.759, 6.459e-6
-0.760, 6.515e-6
-0.761, 6.569e-6
-0.762, 6.622e-6
-0.763, 6.681e-6
-0.764, 6.740e-6
-0.765, 6.797e-6
-0.766, 6.853e-6
-0.767, 6.905e-6
-0.768, 6.968e-6
-0.769, 7.031e-6
-0.770, 7.087e-6
-0.771, 7.142e-6
-0.772, 7.198e-6
-0.773, 7.256e-6
-0.774, 7.319e-6
-0.775, 7.375e-6
-0.776, 7.431e-6
-0.777, 7.489e-6
-0.778, 7.548e-6
-0.779, 7.613e-6
-0.780, 7.671e-6
-0.781, 7.731e-6
-0.782, 7.788e-6
-0.783, 7.849e-6
-0.784, 7.915e-6
-0.785, 7.976e-6
-0.786, 8.032e-6
-0.787, 8.092e-6
-0.788, 8.154e-6
-0.789, 8.222e-6
-0.790, 8.286e-6
-0.791, 8.344e-6
-0.792, 8.403e-6
-0.793, 8.468e-6
-0.794, 8.535e-6
-0.795, 8.596e-6
-0.796, 8.653e-6
-0.797, 8.713e-6
-0.798, 8.777e-6
-0.799, 8.844e-6
-0.800, 8.905e-6
-0.801, 8.968e-6
-0.802, 9.026e-6
-0.803, 9.093e-6
-0.804, 9.158e-6
-0.805, 9.223e-6
-0.806, 9.288e-6
-0.807, 9.349e-6
-0.808, 9.411e-6
-0.809, 9.479e-6
-0.810, 9.545e-6
-0.811, 9.606e-6
-0.812, 9.668e-6
-0.813, 9.736e-6
-0.814, 9.805e-6
-0.815, 9.871e-6
-0.816, 9.933e-6
-0.817, 9.998e-6
-0.818, 1.006e-5
-0.819, 1.014e-5
-0.820, 1.021e-5
-0.821, 1.027e-5
-0.822, 1.033e-5
-0.823, 1.040e-5
-0.824, 1.047e-5
-0.825, 1.054e-5
-0.826, 1.060e-5
-0.827, 1.067e-5
-0.828, 1.074e-5
-0.829, 1.081e-5
-0.830, 1.088e-5
-0.831, 1.095e-5
-0.832, 1.101e-5
-0.833, 1.108e-5
-0.834, 1.115e-5
-0.835, 1.123e-5
-0.836, 1.129e-5
-0.837, 1.136e-5
-0.838, 1.144e-5
-0.839, 1.151e-5
-0.840, 1.158e-5
-0.841, 1.165e-5
-0.842, 1.172e-5
-0.843, 1.180e-5
-0.844, 1.187e-5
-0.845, 1.194e-5
-0.846, 1.201e-5
-0.847, 1.207e-5
-0.848, 1.214e-5
-0.849, 1.222e-5
-0.850, 1.229e-5
-0.851, 1.237e-5
-0.852, 1.244e-5
-0.853, 1.252e-5
-0.854, 1.260e-5
-0.855, 1.267e-5
-0.856, 1.275e-5
-0.857, 1.282e-5
-0.858, 1.290e-5
-0.859, 1.298e-5
-0.860, 1.306e-5
-0.861, 1.313e-5
-0.862, 1.321e-5
-0.863, 1.329e-5
-0.864, 1.337e-5
-0.865, 1.345e-5
-0.866, 1.353e-5
-0.867, 1.361e-5
-0.868, 1.369e-5
-0.869, 1.377e-5
-0.870, 1.386e-5
-0.871, 1.394e-5
-0.872, 1.402e-5
-0.873, 1.410e-5
-0.874, 1.418e-5
-0.875, 1.427e-5
-0.876, 1.435e-5
-0.877, 1.443e-5
-0.878, 1.452e-5
-0.879, 1.461e-5
-0.880, 1.469e-5
-0.881, 1.478e-5
-0.882, 1.486e-5
-0.883, 1.495e-5
-0.884, 1.504e-5
-0.885, 1.513e-5
-0.886, 1.522e-5
-0.887, 1.530e-5
-0.888, 1.539e-5
-0.889, 1.549e-5
-0.890, 1.557e-5
-0.891, 1.566e-5
-0.892, 1.575e-5
-0.893, 1.584e-5
-0.894, 1.594e-5
-0.895, 1.604e-5
-0.896, 1.613e-5
-0.897, 1.622e-5
-0.898, 1.632e-5
-0.899, 1.642e-5
-0.900, 1.651e-5
-0.901, 1.660e-5
-0.902, 1.670e-5
-0.903, 1.680e-5
-0.904, 1.690e-5
-0.905, 1.700e-5
-0.906, 1.709e-5
-0.907, 1.719e-5
-0.908, 1.729e-5
-0.909, 1.740e-5
-0.910, 1.750e-5
-0.911, 1.760e-5
-0.912, 1.770e-5
-0.913, 1.780e-5
-0.914, 1.791e-5
-0.915, 1.801e-5
-0.916, 1.811e-5
-0.917, 1.821e-5
-0.918, 1.832e-5
-0.919, 1.843e-5
-0.920, 1.854e-5
-0.921, 1.865e-5
-0.922, 1.875e-5
-0.923, 1.887e-5
-0.924, 1.898e-5
-0.925, 1.909e-5
-0.926, 1.920e-5
-0.927, 1.931e-5
-0.928, 1.942e-5
-0.929, 1.954e-5
-0.930, 1.965e-5
-0.931, 1.977e-5
-0.932, 1.988e-5
-0.933, 2.000e-5
-0.934, 2.012e-5
-0.935, 2.024e-5
-0.936, 2.035e-5
-0.937, 2.047e-5
-0.938, 2.060e-5
-0.939, 2.072e-5
-0.940, 2.084e-5
-0.941, 2.096e-5
-0.942, 2.109e-5
-0.943, 2.122e-5
-0.944, 2.135e-5
-0.945, 2.147e-5
-0.946, 2.160e-5
-0.947, 2.173e-5
-0.948, 2.186e-5
-0.949, 2.199e-5
-0.950, 2.212e-5
-0.951, 2.225e-5
-0.952, 2.238e-5
-0.953, 2.252e-5
-0.954, 2.266e-5
-0.955, 2.280e-5
-0.956, 2.293e-5
-0.957, 2.307e-5
-0.958, 2.321e-5
-0.959, 2.336e-5
-0.960, 2.350e-5
-0.961, 2.364e-5
-0.962, 2.378e-5
-0.963, 2.393e-5
-0.964, 2.409e-5
-0.965, 2.424e-5
-0.966, 2.438e-5
-0.967, 2.453e-5
-0.968, 2.468e-5
-0.969, 2.484e-5
-0.970, 2.499e-5
-0.971, 2.514e-5
-0.972, 2.530e-5
-0.973, 2.546e-5
-0.974, 2.562e-5
-0.975, 2.578e-5
-0.976, 2.593e-5
-0.977, 2.609e-5
-0.978, 2.625e-5
-0.979, 2.643e-5
-0.980, 2.659e-5
-0.981, 2.675e-5
-0.982, 2.692e-5
-0.983, 2.709e-5
-0.984, 2.726e-5
-0.985, 2.743e-5
-0.986, 2.760e-5
-0.987, 2.777e-5
-0.988, 2.794e-5
-0.989, 2.811e-5
-0.990, 2.829e-5
-0.991, 2.846e-5
-0.992, 2.864e-5
-0.993, 2.883e-5
-0.994, 2.901e-5
-0.995, 2.920e-5
-0.996, 2.938e-5
-0.997, 2.956e-5
-0.998, 2.976e-5
-0.999, 2.994e-5
-1.000, 3.013e-5
-1.001, 3.032e-5
-1.002, 3.051e-5
-1.003, 3.071e-5
-1.004, 3.091e-5
-1.005, 3.110e-5
-1.006, 3.130e-5
-1.007, 3.149e-5
-1.008, 3.170e-5
-1.009, 3.191e-5
-1.010, 3.211e-5
-1.011, 3.232e-5
-1.012, 3.252e-5
-1.013, 3.273e-5
-1.014, 3.294e-5
-1.015, 3.315e-5
-1.016, 3.336e-5
-1.017, 3.357e-5
-1.018, 3.378e-5
-1.019, 3.400e-5
-1.020, 3.422e-5
-1.021, 3.444e-5
-1.022, 3.465e-5
-1.023, 3.488e-5
-1.024, 3.511e-5
-1.025, 3.534e-5
-1.026, 3.555e-5
-1.027, 3.578e-5
-1.028, 3.600e-5
-1.029, 3.624e-5
-1.030, 3.646e-5
-1.031, 3.669e-5
-1.032, 3.692e-5
-1.033, 3.716e-5
-1.034, 3.740e-5
-1.035, 3.763e-5
-1.036, 3.786e-5
-1.037, 3.810e-5
-1.038, 3.835e-5
-1.039, 3.859e-5
-1.040, 3.883e-5
-1.041, 3.907e-5
-1.042, 3.931e-5
-1.043, 3.956e-5
-1.044, 3.981e-5
-1.045, 4.006e-5
-1.046, 4.030e-5
-1.047, 4.055e-5
-1.048, 4.081e-5
-1.049, 4.106e-5
-1.050, 4.131e-5
-1.051, 4.156e-5
-1.052, 4.180e-5
-1.053, 4.206e-5
-1.054, 4.231e-5
-1.055, 4.256e-5
-1.056, 4.281e-5
-1.057, 4.307e-5
-1.058, 4.332e-5
-1.059, 4.358e-5
-1.060, 4.381e-5
-1.061, 4.406e-5
-1.062, 4.431e-5
-1.063, 4.457e-5
-1.064, 4.483e-5
-1.065, 4.508e-5
-1.066, 4.532e-5
-1.067, 4.557e-5
-1.068, 4.583e-5
-1.069, 4.608e-5
-1.070, 4.633e-5
-1.071, 4.657e-5
-1.072, 4.681e-5
-1.073, 4.706e-5
-1.074, 4.731e-5
-1.075, 4.756e-5
-1.076, 4.780e-5
-1.077, 4.804e-5
-1.078, 4.828e-5
-1.079, 4.852e-5
-1.080, 4.875e-5
-1.081, 4.898e-5
-1.082, 4.921e-5
-1.083, 4.945e-5
-1.084, 4.968e-5
-1.085, 4.990e-5
-1.086, 5.012e-5
-1.087, 5.034e-5
-1.088, 5.057e-5
-1.089, 5.080e-5
-1.090, 5.101e-5
-1.091, 5.123e-5
-1.092, 5.144e-5
-1.093, 5.166e-5
-1.094, 5.188e-5
-1.095, 5.209e-5
-1.096, 5.230e-5
-1.097, 5.251e-5
-1.098, 5.272e-5
-1.099, 5.293e-5
-1.100, 5.314e-5
-1.101, 5.334e-5
-1.102, 5.355e-5
-1.103, 5.376e-5
-1.104, 5.397e-5
-1.105, 5.417e-5
-1.106, 5.438e-5
-1.107, 5.458e-5
-1.108, 5.479e-5
-1.109, 5.501e-5
-1.110, 5.522e-5
-1.111, 5.542e-5
-1.112, 5.564e-5
-1.113, 5.585e-5
-1.114, 5.607e-5
-1.115, 5.628e-5
-1.116, 5.649e-5
-1.117, 5.671e-5
-1.118, 5.693e-5
-1.119, 5.716e-5
-1.120, 5.738e-5
-1.121, 5.759e-5
-1.122, 5.781e-5
-1.123, 5.805e-5
-1.124, 5.828e-5
-1.125, 5.851e-5
-1.126, 5.875e-5
-1.127, 5.898e-5
-1.128, 5.923e-5
-1.129, 5.946e-5
-1.130, 5.970e-5
-1.131, 5.994e-5
-1.132, 6.018e-5
-1.133, 6.044e-5
-1.134, 6.070e-5
-1.135, 6.095e-5
-1.136, 6.121e-5
-1.137, 6.146e-5
-1.138, 6.173e-5
-1.139, 6.201e-5
-1.140, 6.228e-5
-1.141, 6.255e-5
-1.142, 6.283e-5
-1.143, 6.311e-5
-1.144, 6.340e-5
-1.145, 6.369e-5
-1.146, 6.398e-5
-1.147, 6.427e-5
-1.148, 6.458e-5
-1.149, 6.489e-5
-1.150, 6.519e-5
-1.151, 6.549e-5
-1.152, 6.581e-5
-1.153, 6.614e-5
-1.154, 6.647e-5
-1.155, 6.679e-5
-1.156, 6.711e-5
-1.157, 6.745e-5
-1.158, 6.780e-5
-1.159, 6.815e-5
-1.160, 6.849e-5
-1.161, 6.884e-5
-1.162, 6.920e-5
-1.163, 6.957e-5
-1.164, 6.994e-5
-1.165, 7.032e-5
-1.166, 7.069e-5
-1.167, 7.108e-5
-1.168, 7.148e-5
-1.169, 7.187e-5
-1.170, 7.227e-5
-1.171, 7.268e-5
-1.172, 7.309e-5
-1.173, 7.350e-5
-1.174, 7.393e-5
-1.175, 7.436e-5
-1.176, 7.479e-5
-1.177, 7.523e-5
-1.178, 7.569e-5
-1.179, 7.615e-5
-1.180, 7.660e-5
-1.181, 7.707e-5
-1.182, 7.754e-5
-1.183, 7.802e-5
-1.184, 7.851e-5
-1.185, 7.901e-5
-1.186, 7.950e-5
-1.187, 8.001e-5
-1.188, 8.054e-5
-1.189, 8.106e-5
-1.190, 8.159e-5
-1.191, 8.212e-5
-1.192, 8.267e-5
-1.193, 8.323e-5
-1.194, 8.379e-5
-1.195, 8.436e-5
-1.196, 8.493e-5
-1.197, 8.551e-5
-1.198, 8.611e-5
-1.199, 8.671e-5
-1.200, 8.733e-5
-1.201, 8.794e-5
-1.202, 8.857e-5
-1.203, 8.921e-5
-1.204, 8.986e-5
-1.205, 9.051e-5
-1.206, 9.116e-5
-1.207, 9.183e-5
-1.208, 9.252e-5
-1.209, 9.321e-5
-1.210, 9.391e-5
-1.211, 9.462e-5
-1.212, 9.534e-5
-1.213, 9.608e-5
-1.214, 9.683e-5
-1.215, 9.757e-5
-1.216, 9.833e-5
-1.217, 9.911e-5
-1.218, 9.990e-5
-1.219, 1.007e-4
-1.220, 1.015e-4
-1.221, 1.023e-4
-1.222, 1.032e-4
-1.223, 1.040e-4
-1.224, 1.048e-4
-1.225, 1.057e-4
-1.226, 1.066e-4
-1.227, 1.074e-4
-1.228, 1.083e-4
-1.229, 1.093e-4
-1.230, 1.102e-4
-1.231, 1.112e-4
-1.232, 1.121e-4
-1.233, 1.131e-4
-1.234, 1.140e-4
-1.235, 1.150e-4
-1.236, 1.160e-4
-1.237, 1.170e-4
-1.238, 1.181e-4
-1.239, 1.191e-4
-1.240, 1.202e-4
-1.241, 1.212e-4
-1.242, 1.223e-4
-1.243, 1.234e-4
-1.244, 1.245e-4
-1.245, 1.256e-4
-1.246, 1.268e-4
-1.247, 1.279e-4
-1.248, 1.291e-4
-1.249, 1.303e-4
-1.250, 1.315e-4
-1.251, 1.327e-4
-1.252, 1.339e-4
-1.253, 1.352e-4
-1.254, 1.364e-4
-1.255, 1.377e-4
-1.256, 1.390e-4
-1.257, 1.403e-4
-1.258, 1.416e-4
-1.259, 1.429e-4
-1.260, 1.443e-4
-1.261, 1.457e-4
-1.262, 1.471e-4
-1.263, 1.485e-4
-1.264, 1.499e-4
-1.265, 1.514e-4
-1.266, 1.528e-4
-1.267, 1.543e-4
-1.268, 1.558e-4
-1.269, 1.574e-4
-1.270, 1.589e-4
-1.271, 1.605e-4
-1.272, 1.621e-4
-1.273, 1.637e-4
-1.274, 1.653e-4
-1.275, 1.670e-4
-1.276, 1.686e-4
-1.277, 1.703e-4
-1.278, 1.720e-4
-1.279, 1.738e-4
-1.280, 1.756e-4
-1.281, 1.774e-4
-1.282, 1.792e-4
-1.283, 1.810e-4
-1.284, 1.828e-4
-1.285, 1.847e-4
-1.286, 1.866e-4
-1.287, 1.885e-4
-1.288, 1.905e-4
-1.289, 1.925e-4
-1.290, 1.944e-4
-1.291, 1.964e-4
-1.292, 1.985e-4
-1.293, 2.006e-4
-1.294, 2.027e-4
-1.295, 2.048e-4
-1.296, 2.069e-4
-1.297, 2.091e-4
-1.298, 2.113e-4
-1.299, 2.136e-4
-1.300, 2.158e-4
-1.301, 2.181e-4
-1.302, 2.204e-4
-1.303, 2.228e-4
-1.304, 2.252e-4
-1.305, 2.276e-4
-1.306, 2.301e-4
-1.307, 2.326e-4
-1.308, 2.351e-4
-1.309, 2.376e-4
-1.310, 2.402e-4
-1.311, 2.428e-4
-1.312, 2.455e-4
-1.313, 2.482e-4
-1.314, 2.510e-4
-1.315, 2.538e-4
-1.316, 2.566e-4
-1.317, 2.594e-4
-1.318, 2.624e-4
-1.319, 2.653e-4
-1.320, 2.683e-4
-1.321, 2.713e-4
-1.322, 2.743e-4
-1.323, 2.775e-4
-1.324, 2.806e-4
-1.325, 2.838e-4
-1.326, 2.870e-4
-1.327, 2.903e-4
-1.328, 2.936e-4
-1.329, 2.969e-4
-1.330, 3.003e-4
-1.331, 3.037e-4
-1.332, 3.071e-4
-1.333, 3.106e-4
-1.334, 3.141e-4
-1.335, 3.177e-4
-1.336, 3.212e-4
-1.337, 3.248e-4
-1.338, 3.285e-4
-1.339, 3.322e-4
-1.340, 3.358e-4
-1.341, 3.395e-4
-1.342, 3.433e-4
-1.343, 3.471e-4
-1.344, 3.509e-4
-1.345, 3.547e-4
-1.346, 3.586e-4
-1.347, 3.624e-4
-1.348, 3.663e-4
-1.349, 3.702e-4
-1.350, 3.742e-4
-1.351, 3.781e-4
-1.352, 3.821e-4
-1.353, 3.861e-4
-1.354, 3.901e-4
-1.355, 3.941e-4
-1.356, 3.981e-4
-1.357, 4.022e-4
-1.358, 4.063e-4
-1.359, 4.104e-4
-1.360, 4.145e-4
-1.361, 4.186e-4
-1.362, 4.228e-4
-1.363, 4.269e-4
-1.364, 4.311e-4
-1.365, 4.352e-4
-1.366, 4.394e-4
-1.367, 4.436e-4
-1.368, 4.478e-4
-1.369, 4.520e-4
-1.370, 4.562e-4
-1.371, 4.604e-4
-1.372, 4.646e-4
-1.373, 4.689e-4
-1.374, 4.731e-4
-1.375, 4.774e-4
-1.376, 4.816e-4
-1.377, 4.859e-4
-1.378, 4.902e-4
-1.379, 4.944e-4
-1.380, 4.987e-4
-1.381, 5.029e-4
-1.382, 5.073e-4
-1.383, 5.116e-4
-1.384, 5.160e-4
-1.385, 5.203e-4
-1.386, 5.247e-4
-1.387, 5.290e-4
-1.388, 5.334e-4
-1.389, 5.378e-4
-1.390, 5.421e-4
-1.391, 5.465e-4
-1.392, 5.508e-4
-1.393, 5.551e-4
-1.394, 5.594e-4
-1.395, 5.635e-4
-1.396, 5.677e-4
-1.397, 5.718e-4
-1.398, 5.758e-4
-1.399, 5.798e-4
-1.400, 5.837e-4
-1.401, 5.876e-4
-1.402, 5.914e-4
-1.403, 5.952e-4
-1.404, 5.990e-4
-1.405, 6.026e-4
-1.406, 6.063e-4
-1.407, 6.099e-4
-1.408, 6.135e-4
-1.409, 6.171e-4
-1.410, 6.206e-4
-1.411, 6.241e-4
-1.412, 6.276e-4
-1.413, 6.311e-4
-1.414, 6.346e-4
-1.415, 6.381e-4
-1.416, 6.415e-4
-1.417, 6.450e-4
-1.418, 6.485e-4
-1.419, 6.520e-4
-1.420, 6.555e-4
-1.421, 6.590e-4
-1.422, 6.625e-4
-1.423, 6.660e-4
-1.424, 6.696e-4
-1.425, 6.732e-4
-1.426, 6.767e-4
-1.427, 6.802e-4
-1.428, 6.837e-4
-1.429, 6.873e-4
-1.430, 6.908e-4
-1.431, 6.943e-4
-1.432, 6.979e-4
-1.433, 7.014e-4
-1.434, 7.050e-4
-1.435, 7.085e-4
-1.436, 7.121e-4
-1.437, 7.158e-4
-1.438, 7.195e-4
-1.439, 7.232e-4
-1.440, 7.270e-4
-1.441, 7.309e-4
-1.442, 7.347e-4
-1.443, 7.386e-4
-1.444, 7.426e-4
-1.445, 7.465e-4
-1.446, 7.504e-4
-1.447, 7.544e-4
-1.448, 7.583e-4
-1.449, 7.622e-4
-1.450, 7.661e-4
-1.451, 7.700e-4
-1.452, 7.739e-4
-1.453, 7.778e-4
-1.454, 7.817e-4
-1.455, 7.855e-4
-1.456, 7.893e-4
-1.457, 7.931e-4
-1.458, 7.968e-4
-1.459, 8.005e-4
-1.460, 8.041e-4
-1.461, 8.077e-4
-1.462, 8.112e-4
-1.463, 8.148e-4
-1.464, 8.182e-4
-1.465, 8.217e-4
-1.466, 8.251e-4
-1.467, 8.285e-4
-1.468, 8.319e-4
-1.469, 8.353e-4
-1.470, 8.387e-4
-1.471, 8.420e-4
-1.472, 8.453e-4
-1.473, 8.486e-4
-1.474, 8.519e-4
-1.475, 8.552e-4
-1.476, 8.584e-4
-1.477, 8.617e-4
-1.478, 8.649e-4
-1.479, 8.682e-4
-1.480, 8.714e-4
-1.481, 8.746e-4
-1.482, 8.778e-4
-1.483, 8.811e-4
-1.484, 8.843e-4
-1.485, 8.876e-4
-1.486, 8.909e-4
-1.487, 8.942e-4
-1.488, 8.975e-4
-1.489, 9.007e-4
-1.490, 9.040e-4
-1.491, 9.075e-4
-1.492, 9.111e-4
-1.493, 9.148e-4
-1.494, 9.185e-4
-1.495, 9.223e-4
-1.496, 9.262e-4
-1.497, 9.302e-4
-1.498, 9.344e-4
-1.499, 9.388e-4
-1.500, 9.433e-4
-1.501, 9.479e-4
-1.502, 9.527e-4
-1.503, 9.577e-4
-1.504, 9.628e-4
-1.505, 9.680e-4
-1.506, 9.736e-4
-1.507, 9.794e-4
-1.508, 9.854e-4
-1.509, 9.916e-4
-1.510, 9.981e-4
-1.511, 1.005e-3
-1.512, 1.010e-3
-1.513, 1.011e-3
-1.514, 1.011e-3
-1.515, 1.011e-3
-1.516, 1.011e-3
-1.517, 1.011e-3
-1.518, 1.011e-3
-1.519, 1.011e-3
-1.520, 1.011e-3
-1.521, 1.011e-3
-1.522, 1.011e-3
-1.523, 1.011e-3
-1.524, 1.011e-3
-1.525, 1.011e-3
-1.526, 1.011e-3
-1.527, 1.011e-3
-1.528, 1.011e-3
-1.529, 1.011e-3
-1.530, 1.011e-3
-1.531, 1.011e-3
-1.532, 1.011e-3
-1.533, 1.011e-3
-1.534, 1.011e-3
-1.535, 1.011e-3
-1.536, 1.011e-3
-1.537, 1.011e-3
-1.538, 1.011e-3
-1.539, 1.011e-3
-1.540, 1.011e-3
-1.541, 1.011e-3
-1.542, 1.011e-3
-1.543, 1.011e-3
-1.544, 1.011e-3
-1.545, 1.011e-3
-1.546, 1.011e-3
-1.547, 1.011e-3
-1.548, 1.011e-3
-1.549, 1.011e-3
-1.550, 1.011e-3
-1.551, 1.011e-3
-1.552, 1.011e-3
-1.553, 1.011e-3
-1.554, 1.011e-3
-1.555, 1.011e-3
-1.556, 1.011e-3
-1.557, 1.011e-3
-1.558, 1.011e-3
-1.559, 1.011e-3
-1.560, 1.011e-3
-1.561, 1.011e-3
-1.562, 1.011e-3
-1.563, 1.011e-3
-1.564, 1.011e-3
-1.565, 1.011e-3
-1.566, 1.011e-3
-1.567, 1.011e-3
-1.568, 1.011e-3
-1.569, 1.011e-3
-1.570, 1.011e-3
-1.571, 1.011e-3
-1.572, 1.011e-3
-1.573, 1.011e-3
-1.574, 1.011e-3
-1.575, 1.011e-3
-1.576, 1.011e-3
-1.577, 1.011e-3
-1.578, 1.011e-3
-1.579, 1.011e-3
-1.580, 1.011e-3
-1.581, 1.011e-3
-1.582, 1.011e-3
-1.583, 1.011e-3
-1.584, 1.011e-3
-1.585, 1.011e-3
-1.586, 1.011e-3
-1.587, 1.011e-3
-1.588, 1.011e-3
-1.589, 1.011e-3
-1.590, 1.011e-3
-1.591, 1.011e-3
-1.592, 1.011e-3
-1.593, 1.011e-3
-1.594, 1.011e-3
-1.595, 1.011e-3
-1.596, 1.011e-3
-1.597, 1.011e-3
-1.598, 1.011e-3
-1.599, 1.011e-3
-1.600, 1.011e-3
-1.601, 1.011e-3
-1.602, 1.011e-3
-1.603, 1.011e-3
-1.604, 1.011e-3
-1.605, 1.011e-3
-1.606, 1.011e-3
-1.607, 1.011e-3
-1.608, 1.011e-3
-1.609, 1.011e-3
-1.610, 1.011e-3
-1.611, 1.011e-3
-1.612, 1.011e-3
-1.613, 1.011e-3
-1.614, 1.011e-3
-1.615, 1.011e-3
-1.616, 1.011e-3
-1.617, 1.011e-3
-1.618, 1.011e-3
-1.619, 1.011e-3
-1.620, 1.011e-3
-1.621, 1.011e-3
-1.622, 1.011e-3
-1.623, 1.011e-3
-1.624, 1.011e-3
-1.625, 1.011e-3
-1.626, 1.011e-3
-1.627, 1.011e-3
-1.628, 1.011e-3
-1.629, 1.011e-3
-1.630, 1.011e-3
-1.631, 1.011e-3
-1.632, 1.011e-3
-1.633, 1.011e-3
-1.634, 1.011e-3
-1.635, 1.011e-3
-1.636, 1.011e-3
-1.637, 1.011e-3
-1.638, 1.011e-3
-1.639, 1.011e-3
-1.640, 1.011e-3
-1.641, 1.011e-3
-1.642, 1.011e-3
-1.643, 1.011e-3
-1.644, 1.011e-3
-1.645, 1.011e-3
-1.646, 1.011e-3
-1.647, 1.011e-3
-1.648, 1.011e-3
-1.649, 1.011e-3
-1.650, 1.011e-3
-1.651, 1.011e-3
-1.652, 1.011e-3
-1.653, 1.011e-3
-1.654, 1.011e-3
-1.655, 1.011e-3
-1.656, 1.011e-3
-1.657, 1.011e-3
-1.658, 1.011e-3
-1.659, 1.011e-3
-1.660, 1.011e-3
-1.661, 1.011e-3
-1.662, 1.011e-3
-1.663, 1.011e-3
-1.664, 1.011e-3
-1.665, 1.011e-3
-1.666, 1.011e-3
-1.667, 1.011e-3
-1.668, 1.011e-3
-1.669, 1.011e-3
-1.670, 1.011e-3
-1.671, 1.011e-3
-1.672, 1.011e-3
-1.673, 1.011e-3
-1.674, 1.011e-3
-1.675, 1.011e-3
-1.676, 1.011e-3
-1.677, 1.011e-3
-1.678, 1.011e-3
-1.679, 1.011e-3
-1.680, 1.011e-3
-1.681, 1.011e-3
-1.682, 1.011e-3
-1.683, 1.011e-3
-1.684, 1.011e-3
-1.685, 1.011e-3
-1.686, 1.011e-3
-1.687, 1.011e-3
-1.688, 1.011e-3
-1.689, 1.011e-3
-1.690, 1.011e-3
-1.691, 1.011e-3
-1.692, 1.011e-3
-1.693, 1.011e-3
-1.694, 1.011e-3
-1.695, 1.011e-3
-1.696, 1.011e-3
-1.697, 1.011e-3
-1.698, 1.011e-3
-1.699, 1.011e-3
-1.700, 1.011e-3
-1.701, 1.011e-3
-1.702, 1.011e-3
-1.703, 1.011e-3
-1.704, 1.011e-3
-1.705, 1.011e-3
-1.706, 1.011e-3
-1.707, 1.011e-3
-1.708, 1.011e-3
-1.709, 1.011e-3
-1.710, 1.011e-3
-1.711, 1.011e-3
-1.712, 1.011e-3
-1.713, 1.011e-3
-1.714, 1.011e-3
-1.715, 1.011e-3
-1.716, 1.011e-3
-1.717, 1.011e-3
-1.718, 1.011e-3
-1.719, 1.011e-3
-1.720, 1.011e-3
-1.721, 1.011e-3
-1.722, 1.011e-3
-1.723, 1.011e-3
-1.724, 1.011e-3
-1.725, 1.011e-3
-1.726, 1.011e-3
-1.727, 1.011e-3
-1.728, 1.011e-3
-1.729, 1.011e-3
-1.730, 1.011e-3
-1.731, 1.011e-3
-1.732, 1.011e-3
-1.733, 1.011e-3
-1.734, 1.011e-3
-1.735, 1.011e-3
-1.736, 1.011e-3
-1.737, 1.011e-3
-1.738, 1.011e-3
-1.739, 1.011e-3
-1.740, 1.011e-3
-1.741, 1.011e-3
-1.742, 1.011e-3
-1.743, 1.011e-3
-1.744, 1.011e-3
-1.745, 1.011e-3
-1.746, 1.011e-3
-1.747, 1.011e-3
-1.748, 1.011e-3
-1.749, 1.011e-3
-1.750, 1.011e-3
-1.751, 1.011e-3
-1.752, 1.011e-3
-1.753, 1.011e-3
-1.754, 1.011e-3
-1.755, 1.011e-3
-1.756, 1.011e-3
-1.757, 1.011e-3
-1.758, 1.011e-3
-1.759, 1.011e-3
-1.760, 1.011e-3
-1.761, 1.011e-3
-1.762, 1.011e-3
-1.763, 1.011e-3
-1.764, 1.011e-3
-1.765, 1.011e-3
-1.766, 1.011e-3
-1.767, 1.011e-3
-1.768, 1.011e-3
-1.769, 1.011e-3
-1.770, 1.011e-3
-1.771, 1.011e-3
-1.772, 1.011e-3
-1.773, 1.011e-3
-1.774, 1.011e-3
-1.775, 1.011e-3
-1.776, 1.011e-3
-1.777, 1.011e-3
-1.778, 1.011e-3
-1.779, 1.011e-3
-1.780, 1.011e-3
-1.781, 1.011e-3
-1.782, 1.011e-3
-1.783, 1.011e-3
-1.784, 1.011e-3
-1.785, 1.011e-3
-1.786, 1.011e-3
-1.787, 1.011e-3
-1.788, 1.011e-3
-1.789, 1.011e-3
-1.790, 1.011e-3
-1.791, 1.011e-3
-1.792, 1.011e-3
-1.793, 1.011e-3
-1.794, 1.011e-3
-1.795, 1.011e-3
-1.796, 1.011e-3
-1.797, 1.011e-3
-1.798, 1.011e-3
-1.799, 1.011e-3
-1.800, 1.011e-3
-1.801, 1.011e-3
-1.802, 1.011e-3
-1.803, 1.011e-3
-1.804, 1.011e-3
-1.805, 1.011e-3
-1.806, 1.011e-3
-1.807, 1.011e-3
-1.808, 1.011e-3
-1.809, 1.011e-3
-1.810, 1.011e-3
-1.811, 1.011e-3
-1.812, 1.011e-3
-1.813, 1.011e-3
-1.814, 1.011e-3
-1.815, 1.011e-3
-1.816, 1.011e-3
-1.817, 1.011e-3
-1.818, 1.011e-3
-1.819, 1.011e-3
-1.820, 1.011e-3
-1.821, 1.011e-3
-1.822, 1.011e-3
-1.823, 1.011e-3
-1.824, 1.011e-3
-1.825, 1.011e-3
-1.826, 1.011e-3
-1.827, 1.011e-3
-1.828, 1.011e-3
-1.829, 1.011e-3
-1.830, 1.011e-3
-1.831, 1.011e-3
-1.832, 1.011e-3
-1.833, 1.011e-3
-1.834, 1.011e-3
-1.835, 1.011e-3
-1.836, 1.011e-3
-1.837, 1.011e-3
-1.838, 1.011e-3
-1.839, 1.011e-3
-1.840, 1.011e-3
-1.841, 1.011e-3
-1.842, 1.011e-3
-1.843, 1.011e-3
-1.844, 1.011e-3
-1.845, 1.011e-3
-1.846, 1.011e-3
-1.847, 1.011e-3
-1.848, 1.011e-3
-1.849, 1.011e-3
-1.850, 1.011e-3
-1.851, 1.011e-3
-1.852, 1.011e-3
-1.853, 1.011e-3
-1.854, 1.011e-3
-1.855, 1.011e-3
-1.856, 1.011e-3
-1.857, 1.011e-3
-1.858, 1.011e-3
-1.859, 1.011e-3
-1.860, 1.011e-3
-1.861, 1.011e-3
-1.862, 1.011e-3
-1.863, 1.011e-3
-1.864, 1.011e-3
-1.865, 1.011e-3
-1.866, 1.011e-3
-1.867, 1.011e-3
-1.868, 1.011e-3
-1.869, 1.011e-3
-1.870, 1.011e-3
-1.871, 1.011e-3
-1.872, 1.011e-3
-1.873, 1.011e-3
-1.874, 1.011e-3
-1.875, 1.011e-3
-1.876, 1.011e-3
-1.877, 1.011e-3
-1.878, 1.011e-3
-1.879, 1.011e-3
-1.880, 1.011e-3
-1.881, 1.011e-3
-1.882, 1.011e-3
-1.883, 1.011e-3
-1.884, 1.011e-3
-1.885, 1.011e-3
-1.886, 1.011e-3
-1.887, 1.011e-3
-1.888, 1.011e-3
-1.889, 1.011e-3
-1.890, 1.011e-3
-1.891, 1.011e-3
-1.892, 1.011e-3
-1.893, 1.011e-3
-1.894, 1.011e-3
-1.895, 1.011e-3
-1.896, 1.011e-3
-1.897, 1.011e-3
-1.898, 1.011e-3
-1.899, 1.011e-3
