Potential V vs RHE, Current mA cm-2
0.05339999999999995,-0.1095976844005444
0.05239999999999995,-0.11169145712434464
0.051399999999999946,-0.11268175503425018
0.050399999999999945,-0.11345984624917593
0.049399999999999944,-0.11403987788212061
0.04839999999999994,-0.11454917395007203
0.04739999999999994,-0.11501602867902748
0.04639999999999994,-0.11544044206898699
0.04539999999999994,-0.1158648554589465
0.04439999999999994,-0.11623268039691143
0.04339999999999994,-0.11650147554388576
0.04239999999999994,-0.11679856491685743
0.04139999999999994,-0.11705321295083315
0.040399999999999936,-0.11726541964581289
0.039399999999999935,-0.1175483619057859
0.038399999999999934,-0.11774642148776701
0.03739999999999993,-0.11785959839175622
0.03639999999999993,-0.11805765797373731
0.03539999999999993,-0.1181708348777265
0.03439999999999993,-0.11832645312071166
0.03339999999999993,-0.11843963002470087
0.03239999999999993,-0.11852451270269278
0.03139999999999993,-0.11863768960668199
0.030399999999999927,-0.11869427805867658
0.029399999999999926,-0.11876501362366983
0.028399999999999925,-0.11879330784966712
0.027399999999999924,-0.11883574918866308
0.026399999999999924,-0.11887819052765905
0.025399999999999923,-0.11889233764065768
0.024399999999999922,-0.11893477897965361
0.02339999999999992,-0.11894892609265229
0.02239999999999992,-0.11893477897965361
0.02139999999999992,-0.11896307320565094
0.020399999999999918,-0.11900551454464689
0.019399999999999917,-0.118920631866655
0.018399999999999916,-0.11890648475365632
0.017399999999999916,-0.11886404341466038
0.016399999999999915,-0.11883574918866308
0.015399999999999914,-0.11879330784966712
0.014399999999999913,-0.11872257228467388
0.013399999999999912,-0.11869427805867658
0.012399999999999911,-0.11863768960668199
0.01139999999999991,-0.11858110115468738
0.01039999999999991,-0.11848207136369682
0.009399999999999908,-0.11839718868570492
0.008399999999999908,-0.11831230600771302
0.007399999999999907,-0.11824157044271978
0.006399999999999906,-0.11822742332972111
0.005399999999999905,-0.11814254065172922
0.004399999999999904,-0.11805765797373731
0.003399999999999903,-0.11793033395674946
0.002399999999999902,-0.11783130416575889
0.0013999999999999013,-0.11777471571376431
0.00039999999999990044,-0.1176615388097751
-0.0006000000000001005,-0.11756250901878454
-0.0016000000000001013,-0.11743518500179671
-0.0026000000000001022,-0.1173220080978075
-0.003600000000000103,-0.11720883119381828
-0.004600000000000104,-0.11708150717683044
-0.005600000000000105,-0.11699662449883853
-0.006600000000000106,-0.11688344759484932
-0.007600000000000107,-0.11672782935186417
-0.008600000000000108,-0.11661465244787497
-0.009600000000000108,-0.11651562265688443
-0.01060000000000011,-0.11634585730090061
-0.01160000000000011,-0.11623268039691143
-0.012600000000000111,-0.11609120926692493
-0.013600000000000112,-0.1159780323629357
-0.014600000000000113,-0.11582241411995055
-0.015600000000000114,-0.11568094298996405
-0.016600000000000115,-0.11559606031197216
-0.017600000000000116,-0.11544044206898699
-0.018600000000000116,-0.11534141227799644
-0.019600000000000117,-0.11517164692201265
-0.020600000000000118,-0.11510091135701939
-0.02160000000000012,-0.11494529311403422
-0.02260000000000012,-0.11480382198404772
-0.02360000000000012,-0.1146623508540612
-0.024600000000000122,-0.11456332106307067
-0.025600000000000123,-0.11442184993308416
-0.026600000000000124,-0.11428037880309765
-0.027600000000000124,-0.11411061344711387
-0.028600000000000125,-0.11401158365612331
-0.029600000000000126,-0.11391255386513276
-0.030600000000000127,-0.1137852298481449
-0.03160000000000013,-0.1135871702661638
-0.03260000000000013,-0.11347399336217459
-0.03360000000000013,-0.11331837511918944
-0.03460000000000002,-0.11317690398920292
-0.03560000000000002,-0.11312031553720833
-0.03660000000000002,-0.11293640306822587
-0.03760000000000002,-0.11280907905123803
-0.03860000000000002,-0.11271004926024747
-0.039600000000000024,-0.11261101946925692
-0.040600000000000025,-0.11249784256526771
-0.041600000000000026,-0.11231393009628526
-0.04260000000000003,-0.1122149003052947
-0.04360000000000003,-0.11211587051430415
-0.04460000000000003,-0.11197439938431765
-0.04560000000000003,-0.11188951670632576
-0.04660000000000003,-0.1117621926893379
-0.04760000000000003,-0.11157828022035543
-0.04860000000000003,-0.11149339754236354
-0.04960000000000003,-0.1113660735253757
-0.050600000000000034,-0.11132363218637975
-0.051600000000000035,-0.11116801394339458
-0.052600000000000036,-0.11102654281340808
-0.053600000000000037,-0.11092751302241752
-0.05460000000000004,-0.11082848323142698
-0.05560000000000004,-0.11070115921443913
-0.05660000000000004,-0.11057383519745125
-0.05760000000000004,-0.11046065829346206
-0.05860000000000004,-0.11033333427647421
-0.05960000000000004,-0.1102484515984823
-0.06060000000000004,-0.11014942180749175
-0.061600000000000044,-0.11002209779050391
-0.06260000000000004,-0.10989477377351606
-0.06360000000000005,-0.10980989109552414
-0.06460000000000005,-0.1097391555305309
-0.06560000000000005,-0.10966841996553764
-0.06660000000000005,-0.10956939017454709
-0.06760000000000005,-0.10942791904456058
-0.06860000000000005,-0.1093430363665687
-0.06960000000000005,-0.10928644791457408
-0.07060000000000005,-0.1091732710105849
-0.07160000000000005,-0.10907424121959435
-0.07260000000000005,-0.10896106431560514
-0.07360000000000005,-0.10891862297660918
-0.07460000000000006,-0.10883374029861728
-0.07560000000000006,-0.10872056339462807
-0.07660000000000006,-0.10863568071663617
-0.07760000000000006,-0.10856494515164292
-0.07860000000000006,-0.10843762113465506
-0.07960000000000006,-0.10833859134366451
-0.08060000000000006,-0.10832444423066585
-0.08160000000000006,-0.10819712021367801
-0.08260000000000006,-0.10812638464868475
-0.08360000000000006,-0.10804150197069286
-0.08460000000000006,-0.10797076640569962
-0.08560000000000006,-0.10790003084070635
-0.08660000000000007,-0.10781514816271445
-0.08760000000000007,-0.10777270682371849
-0.08860000000000007,-0.10781514816271445
-0.08960000000000007,-0.10771611837172389
-0.09060000000000007,-0.10761708858073335
-0.09160000000000007,-0.10760294146773468
-0.09260000000000007,-0.10746147033774818
-0.09360000000000007,-0.10748976456374548
-0.09460000000000007,-0.10743317611175088
-0.09560000000000007,-0.10730585209476304
-0.09660000000000007,-0.10726341075576709
-0.09760000000000008,-0.10712193962578058
-0.09860000000000008,-0.10713608673877922
-0.09960000000000008,-0.10707949828678462
-0.10060000000000008,-0.10703705694778867
-0.10160000000000008,-0.10700876272179137
-0.10260000000000008,-0.10695217426979677
-0.10360000000000008,-0.10688143870480352
-0.10460000000000008,-0.10685314447880623
-0.10560000000000008,-0.10683899736580757
-0.10660000000000008,-0.10678240891381298
-0.10760000000000008,-0.10671167334881972
-0.10860000000000009,-0.10665508489682511
-0.10960000000000009,-0.10666923200982377
-0.11060000000000009,-0.10664093778382645
-0.11160000000000009,-0.10655605510583457
-0.11260000000000009,-0.10655605510583457
-0.11360000000000009,-0.10658434933183186
-0.11460000000000009,-0.10661264355782916
-0.11560000000000009,-0.10655605510583457
-0.11660000000000009,-0.10644287820184536
-0.1176000000000001,-0.1064287310888467
-0.1186000000000001,-0.10641458397584806
-0.1196000000000001,-0.1064004368628494
-0.1206000000000001,-0.10634384841085481
-0.1216000000000001,-0.1063721426368521
-0.1226000000000001,-0.10628725995886021
-0.1236000000000001,-0.10627311284586156
-0.1246000000000001,-0.10623067150686559
-0.1256000000000001,-0.10620237728086832
-0.1266000000000001,-0.10620237728086832
-0.1276000000000001,-0.10617408305487101
-0.1286000000000001,-0.10615993594187234
-0.1296000000000001,-0.10617408305487101
-0.1306000000000001,-0.1061174946028764
-0.1316000000000001,-0.10613164171587507
-0.1326000000000001,-0.10610334748987776
-0.1336000000000001,-0.10617408305487101
-0.1346000000000001,-0.10615993594187234
-0.1356000000000001,-0.10613164171587507
-0.1366000000000001,-0.10617408305487101
-0.1376000000000001,-0.1061174946028764
-0.1386000000000001,-0.10620237728086832
-0.1396000000000001,-0.10627311284586156
-0.1406000000000001,-0.10628725995886021
-0.14160000000000011,-0.10628725995886021
-0.14260000000000012,-0.10630140707185885
-0.14360000000000012,-0.10632970129785616
-0.14460000000000012,-0.10635799552385346
-0.14560000000000012,-0.10638628974985076
-0.14660000000000012,-0.10641458397584806
-0.14760000000000012,-0.10634384841085481
-0.14860000000000012,-0.10631555418485751
-0.14960000000000012,-0.1063721426368521
-0.15060000000000012,-0.1064004368628494
-0.15160000000000012,-0.10648531954084133
-0.15260000000000012,-0.10645702531484401
-0.15360000000000013,-0.10649946665383996
-0.15460000000000013,-0.10655605510583457
-0.15560000000000013,-0.10658434933183186
-0.15660000000000013,-0.10659849644483052
-0.15760000000000013,-0.10665508489682511
-0.15860000000000013,-0.10669752623582107
-0.15960000000000002,-0.10676826180081432
-0.16060000000000002,-0.10685314447880623
-0.16160000000000002,-0.10688143870480352
-0.16260000000000002,-0.10696632138279542
-0.16360000000000002,-0.10712193962578058
-0.16460000000000002,-0.10715023385177787
-0.16560000000000002,-0.10722096941677112
-0.16660000000000003,-0.10719267519077383
-0.16760000000000003,-0.10736244054675763
-0.16860000000000003,-0.10751805878974278
-0.16960000000000003,-0.10764538280673064
-0.17060000000000003,-0.1078010010497158
-0.17160000000000003,-0.10784344238871174
-0.17260000000000003,-0.10797076640569962
-0.17360000000000003,-0.1080839433096888
-0.17460000000000003,-0.1081405317616834
-0.17560000000000003,-0.10825370866567262
-0.17660000000000003,-0.1083102971176672
-0.17760000000000004,-0.1083668855696618
-0.17860000000000004,-0.10842347402165642
-0.17960000000000004,-0.10848006247365101
-0.18060000000000004,-0.10853665092564563
-0.18160000000000004,-0.10862153360363752
-0.18260000000000004,-0.10869226916863078
-0.18360000000000004,-0.10881959318561862
-0.18460000000000004,-0.10896106431560514
-0.18560000000000004,-0.10907424121959435
-0.18660000000000004,-0.10920156523658218
-0.18760000000000004,-0.10930059502757274
-0.18860000000000005,-0.10941377193156195
-0.18960000000000005,-0.10956939017454709
-0.19060000000000005,-0.10971086130453359
-0.19160000000000005,-0.10986647954751874
-0.19260000000000005,-0.10996550933850929
-0.19360000000000005,-0.11009283335549715
-0.19460000000000005,-0.11027674582447962
-0.19560000000000005,-0.1103899227284688
-0.19660000000000005,-0.11054554097145397
-0.19760000000000005,-0.11065871787544318
-0.19860000000000005,-0.11081433611842831
-0.19960000000000006,-0.11096995436141348
-0.20060000000000006,-0.11115386683039592
-0.20160000000000006,-0.11130948507338108
-0.20260000000000006,-0.11143680909036893
-0.20360000000000006,-0.1116490157853487
-0.20460000000000006,-0.11183292825433114
-0.20560000000000006,-0.11200269361031497
-0.20660000000000006,-0.11214416474030146
-0.20760000000000006,-0.11228563587028798
-0.20860000000000006,-0.11251198967826637
-0.20960000000000006,-0.11271004926024747
-0.21060000000000006,-0.11295055018122453
-0.21160000000000007,-0.11307787419821237
-0.21260000000000007,-0.11326178666719483
-0.21360000000000007,-0.11348814047517325
-0.21460000000000007,-0.113700347170153
-0.21560000000000007,-0.11387011252613681
-0.21660000000000007,-0.1140964663341152
-0.21760000000000007,-0.11429452591609632
-0.21860000000000007,-0.11449258549807742
-0.21960000000000007,-0.11474723353205314
-0.22060000000000007,-0.11497358734003153
-0.22160000000000007,-0.11522823537400724
-0.22260000000000008,-0.11538385361699238
-0.22360000000000008,-0.11565264876396675
-0.22460000000000008,-0.11590729679794246
-0.22560000000000008,-0.11613365060592087
-0.22660000000000008,-0.11637415152689792
-0.22760000000000008,-0.11661465244787497
-0.22860000000000008,-0.11684100625585338
-0.22960000000000008,-0.11712394851582639
-0.23060000000000008,-0.11735030232380478
-0.23160000000000008,-0.1176049503577805
-0.23260000000000008,-0.11784545127875755
-0.23360000000000009,-0.11810009931273327
-0.2346000000000001,-0.11832645312071166
-0.2356000000000001,-0.11858110115468738
-0.2366000000000001,-0.11882160207566443
-0.2376000000000001,-0.11907625010964012
-0.2386000000000001,-0.1194016337086091
-0.2396000000000001,-0.11964213462958616
-0.2406000000000001,-0.11992507688955915
-0.2416000000000001,-0.12020801914953216
-0.2426000000000001,-0.12047681429650652
-0.2436000000000001,-0.12077390366947817
-0.2446000000000001,-0.1210285517034539
-0.2456000000000001,-0.12138222952842014
-0.2466000000000001,-0.12160858333639855
-0.2476000000000001,-0.12184908425737562
-0.2486000000000001,-0.12223105630833916
-0.2496000000000001,-0.12252814568131082
-0.2506000000000001,-0.12283938216728113
-0.2516000000000001,-0.12313647154025278
-0.2526000000000001,-0.12343356091322445
-0.2536000000000001,-0.12374479739919475
-0.2546000000000001,-0.12404188677216642
-0.2556000000000001,-0.12440971171013133
-0.2566000000000001,-0.12473509530910029
-0.2576000000000001,-0.12504633179507058
-0.2586000000000001,-0.1253858625070382
-0.2596000000000001,-0.12571124610600715
-0.2606000000000001,-0.12596589413998285
-0.2616000000000001,-0.12630542485195048
-0.2626000000000001,-0.1266166613379208
-0.2636000000000001,-0.1269561920498884
-0.2646000000000001,-0.12733816410085197
-0.2656000000000001,-0.12767769481281957
-0.2666000000000001,-0.1280030784117885
-0.2676000000000001,-0.12841334468874938
-0.2686000000000001,-0.12876702251371563
-0.2696000000000001,-0.1291207003386819
-0.2706000000000001,-0.12951681950264413
-0.2716000000000001,-0.12988464444060904
-0.2726000000000001,-0.13029491071756988
-0.2736000000000001,-0.13063444142953748
-0.2746000000000001,-0.1310022663675024
-0.2756000000000001,-0.13138423841846594
-0.2766000000000001,-0.13173791624343223
-0.2776000000000001,-0.13211988829439578
-0.2786000000000001,-0.1324877132323607
-0.2796000000000001,-0.13284139105732695
-0.2806000000000001,-0.13320921599529184
-0.28160000000000013,-0.1335911880462554
-0.28260000000000013,-0.13390242453222573
-0.28360000000000013,-0.13434098503518388
-0.2846,-0.13469466286015017
-0.2856,-0.13511907625010966
-0.2866,-0.13552934252707052
-0.2876,-0.13585472612603947
-0.2886,-0.13626499240300033
-0.2896,-0.13671770001895714
-0.2906,-0.13708552495692206
-0.2916,-0.13745334989488697
-0.2926,-0.13784946905884918
-0.2936,-0.13824558822281138
-0.29460000000000003,-0.1386982958387682
-0.29560000000000003,-0.13910856211572906
-0.29660000000000003,-0.13947638705369397
-0.29760000000000003,-0.1398866533306548
-0.29860000000000003,-0.14031106672061433
-0.29960000000000003,-0.14070718588457654
-0.30060000000000003,-0.14115989350053335
-0.30160000000000003,-0.14147112998650369
-0.30260000000000004,-0.14189554337646318
-0.30360000000000004,-0.1423199567664227
-0.30460000000000004,-0.1427443701563822
-0.30560000000000004,-0.14316878354634172
-0.30660000000000004,-0.1435931969363012
-0.30760000000000004,-0.14401761032626076
-0.30860000000000004,-0.14430055258623375
-0.30960000000000004,-0.14472496597619325
-0.31060000000000004,-0.14514937936615277
-0.31160000000000004,-0.14557379275611226
-0.31260000000000004,-0.14599820614607179
-0.31360000000000005,-0.14642261953603128
-0.31460000000000005,-0.14684703292599083
-0.31560000000000005,-0.14727144631595032
-0.31660000000000005,-0.14755438857592332
-0.31760000000000005,-0.14812027309586934
-0.31860000000000005,-0.14854468648582883
-0.31960000000000005,-0.14896909987578838
-0.32060000000000005,-0.14939351326574787
-0.32160000000000005,-0.1498179266557074
-0.32260000000000005,-0.1502423400456669
-0.32360000000000005,-0.1506667534356264
-0.32460000000000006,-0.1509496956955994
-0.32560000000000006,-0.1513741090855589
-0.32660000000000006,-0.15179852247551845
-0.32760000000000006,-0.15222293586547794
-0.32860000000000006,-0.15264734925543746
-0.32960000000000006,-0.15307176264539696
-0.33060000000000006,-0.15349617603535648
-0.33160000000000006,-0.15392058942531597
-0.33260000000000006,-0.1543450028152755
-0.33360000000000006,-0.15476941620523502
-0.33460000000000006,-0.1551938295951945
-0.33560000000000006,-0.15561824298515403
-0.33660000000000007,-0.15604265637511353
-0.33760000000000007,-0.15646706976507307
-0.33860000000000007,-0.15689148315503257
-0.33960000000000007,-0.15731589654499206
-0.34060000000000007,-0.15759883880496509
-0.34160000000000007,-0.15802325219492458
-0.34260000000000007,-0.1584476655848841
-0.34360000000000007,-0.1588720789748436
-0.3446000000000001,-0.15929649236480314
-0.3456000000000001,-0.15972090575476264
-0.3466000000000001,-0.16014531914472213
-0.34759999999999996,-0.16056973253468165
-0.3486000000000001,-0.16099414592464115
-0.34959999999999997,-0.16141855931460067
-0.3506000000000001,-0.1618429727045602
-0.35159999999999997,-0.1622673860945197
-0.3526000000000001,-0.1626917994844792
-0.35359999999999997,-0.1629747417444522
-0.3546000000000001,-0.16339915513441172
-0.35559999999999997,-0.16382356852437122
-0.3566000000000001,-0.16424798191433077
-0.3576,-0.16467239530429026
-0.3586000000000001,-0.16509680869424978
-0.3596,-0.1655212220842093
-0.3606000000000001,-0.1659456354741688
-0.3616,-0.16637004886412832
-0.3626000000000001,-0.1667944622540878
-0.3636,-0.16707740451406086
-0.3646000000000001,-0.16750181790402036
-0.3656,-0.16792623129397988
-0.3666000000000001,-0.16835064468393937
-0.3676,-0.16877505807389886
-0.3686000000000001,-0.16919947146385841
-0.3696,-0.1696238848538179
-0.3706000000000001,-0.17004829824377743
-0.3716,-0.17033124050375043
-0.3726000000000001,-0.17061418276372342
-0.3736,-0.17103859615368294
-0.3746000000000001,-0.17146300954364244
-0.3756,-0.17174595180361546
-0.3766000000000001,-0.17217036519357498
-0.3776,-0.17245330745354798
-0.3786000000000001,-0.173019191973494
-0.3796,-0.173302134233467
-0.3806000000000001,-0.1737265476234265
-0.3816,-0.17415096101338604
-0.3826000000000001,-0.17457537440334553
-0.3836,-0.17499978779330505
-0.3846000000000001,-0.17542420118326454
-0.3856,-0.17584861457322407
-0.3866000000000001,-0.17627302796318356
-0.3876,-0.1766974413531431
-0.3886000000000001,-0.1769803836131161
-0.3896,-0.1774047970030756
-0.3906000000000001,-0.17782921039303512
-0.3916,-0.1782536237829946
-0.3926000000000001,-0.17853656604296764
-0.3936,-0.17910245056291366
-0.3946000000000001,-0.17952686395287318
-0.3956,-0.17995127734283267
-0.3966000000000001,-0.18037569073279217
-0.3976,-0.1806586329927652
-0.3986000000000001,-0.18108304638272468
-0.3996,-0.18150745977268423
-0.4006000000000001,-0.18193187316264373
-0.4016,-0.18235628655260325
-0.4026000000000001,-0.18263922881257624
-0.4036,-0.18320511333252223
-0.4046000000000001,-0.18362952672248176
-0.4056,-0.18405394011244128
-0.40660000000000013,-0.1844783535024008
-0.4076,-0.1849027668923603
-0.40860000000000013,-0.18532718028231981
-0.4096,-0.1857515936722793
-0.41060000000000013,-0.1861760070622388
-0.4116,-0.18660042045219835
-0.41260000000000013,-0.18702483384215784
-0.4136,-0.18744924723211737
-0.41460000000000014,-0.18787366062207686
-0.4156,-0.18829807401203638
-0.41660000000000014,-0.18872248740199588
-0.4176,-0.18914690079195542
-0.41860000000000014,-0.18957131418191492
-0.41960000000000003,-0.19013719870186094
-0.42060000000000014,-0.19056161209182043
-0.42160000000000003,-0.19098602548177993
-0.42260000000000014,-0.19155191000172597
-0.42360000000000003,-0.1919763233916855
-0.42460000000000014,-0.192400736781645
-0.42560000000000003,-0.192966621301591
-0.42660000000000015,-0.1933910346915505
-0.42760000000000004,-0.19381544808151
-0.42860000000000015,-0.19438133260145604
-0.42960000000000004,-0.19480574599141554
-0.43060000000000015,-0.19537163051136155
-0.43160000000000004,-0.19579604390132105
-0.43260000000000015,-0.19622045729128057
-0.43360000000000004,-0.19678634181122662
-0.43460000000000015,-0.1973522263311726
-0.43560000000000004,-0.19791811085111863
-0.43660000000000015,-0.19834252424107812
-0.43760000000000004,-0.19890840876102414
