Potential V vs RHE, Current mA cm-2
0.013299999999999867,1.972107552011861
0.012299999999999978,0.46105441262601543
0.011299999999999866,-0.7079215344524644
0.010299999999999976,-1.6297474174445223
0.009299999999999864,-2.3710561385738016
0.008299999999999974,-2.956746616717927
0.007299999999999862,-3.4717015298688
0.006299999999999972,-3.927238568425342
0.00529999999999986,-4.3205283097878215
0.0042999999999999705,-4.645911908756781
0.0032999999999998586,-4.9175364783308675
0.0022999999999999687,-5.153793265408329
0.0012999999999998568,-5.3900500524857895
0.00029999999999996696,-5.612159726564601
-0.000700000000000145,-5.793242772947325
-0.0017000000000000348,-5.9347139029338285
-0.0027000000000001467,-6.064867342521412
-0.0037000000000000366,-6.206338472507916
-0.0047000000000001485,-6.34498017989469
-0.005700000000000038,-6.432692280486322
-0.00670000000000015,-6.516160247178359
-0.00770000000000004,-6.585481100871745
-0.008700000000000152,-6.664704933664188
-0.009700000000000042,-6.75524645685555
-0.010700000000000154,-6.809005486250422
-0.011700000000000044,-6.845787980046913
-0.012700000000000156,-6.891058741642594
-0.013700000000000045,-6.960379595335981
-0.014700000000000157,-7.022626892530043
-0.015700000000000047,-7.042432850728153
-0.01670000000000016,-7.049506407227478
-0.01770000000000005,-7.069312365425588
-0.01870000000000016,-7.106094859222079
-0.01970000000000005,-7.1457067756183
-0.020700000000000163,-7.164098022516545
-0.021700000000000053,-7.166927445116276
-0.022700000000000164,-7.193806959813711
-0.023700000000000054,-7.223515897110879
-0.024700000000000166,-7.251810123108179
-0.025700000000000056,-7.251810123108179
-0.026700000000000168,-7.223515897110879
-0.027700000000000058,-7.226345319710607
-0.02870000000000017,-7.226345319710607
-0.02970000000000006,-7.248980700508447
-0.03070000000000017,-7.278689637805614
-0.03170000000000006,-7.267371947406693
-0.03270000000000017,-7.256054257007774
-0.03370000000000006,-7.246151277908718
-0.034700000000000175,-7.268786658706559
-0.035700000000000065,-7.247565989208583
-0.03670000000000018,-7.190977537213982
-0.03770000000000007,-7.158439177317086
-0.03870000000000018,-7.2022952276129
-0.03970000000000007,-7.222101185811012
-0.04070000000000018,-7.203709938912767
-0.04170000000000007,-7.166927445116276
-0.04270000000000018,-7.1414626417187055
-0.04370000000000007,-7.161268599916816
-0.044700000000000184,-7.15136562081776
-0.045700000000000074,-7.132974373919516
-0.046700000000000186,-7.101850725322484
-0.047700000000000076,-7.069312365425588
-0.04870000000000019,-7.079215344524644
-0.04970000000000008,-7.093362457523294
-0.05070000000000019,-7.079215344524644
-0.05170000000000008,-7.041018139428288
-0.05270000000000019,-7.025456315129772
-0.05370000000000008,-7.039603428128422
-0.05470000000000019,-7.043847562028017
-0.05570000000000008,-7.015553336030716
-0.056700000000000195,-6.98584439873355
-0.057700000000000085,-6.961794306635846
-0.058700000000000196,-6.963209017935711
-0.059700000000000086,-6.975941419634496
-0.0607000000000002,-6.9575501727362505
-0.06170000000000009,-6.934914791938409
-0.0627000000000002,-6.927841235439085
-0.06370000000000009,-6.933500080638546
-0.0647000000000002,-6.9434030597376
-0.06570000000000009,-6.927841235439085
-0.0667000000000002,-6.882570473843404
-0.0677000000000001,-6.869838072144618
-0.0687000000000002,-6.889644030342729
-0.0697000000000001,-6.891058741642594
-0.07070000000000021,-6.8853998964431335
-0.0717000000000001,-6.851446825246373
-0.07270000000000021,-6.837299712247723
-0.0737000000000001,-6.852861536546238
-0.07470000000000021,-6.837299712247723
-0.0757000000000001,-6.816079042749746
-0.07670000000000021,-6.797687795851501
-0.0777000000000001,-6.776467126353525
-0.07870000000000021,-6.783540682852851
-0.0797000000000001,-6.797687795851501
-0.08070000000000022,-6.801931929751096
-0.0817000000000001,-6.766564147254471
-0.08270000000000022,-6.751002322955955
-0.08370000000000011,-6.777881837653391
-0.08470000000000022,-6.789199528052311
-0.08570000000000011,-6.76373472465474
-0.08670000000000022,-6.751002322955955
-0.08770000000000011,-6.738269921257169
-0.08870000000000022,-6.762320013354876
-0.08970000000000011,-6.782125971552985
-0.09070000000000022,-6.7679788585543355
-0.09170000000000011,-6.745343477756495
-0.09270000000000023,-6.739684632557035
-0.09370000000000012,-6.75524645685555
-0.09470000000000023,-6.782125971552985
-0.09570000000000012,-6.770808281154065
-0.09670000000000023,-6.7481729003562245
-0.09770000000000012,-6.745343477756495
-0.09870000000000023,-6.766564147254471
-0.09970000000000012,-6.796273084551637
-0.10070000000000023,-6.784955394152716
-0.10170000000000012,-6.770808281154065
-0.10270000000000024,-6.77222299245393
-0.10370000000000013,-6.792028950652041
-0.10470000000000024,-6.824567310548938
-0.10570000000000013,-6.820323176649342
-0.10670000000000024,-6.7934436619519065
-0.10770000000000013,-6.797687795851501
-0.10870000000000024,-6.825982021848802
-0.10970000000000013,-6.851446825246373
-0.11070000000000024,-6.852861536546238
-0.11170000000000013,-6.821737887949207
-0.11270000000000002,-6.828811444448532
-0.11370000000000013,-6.867008649544887
-0.11470000000000002,-6.886814607742999
-0.11570000000000014,-6.883985185143269
-0.11670000000000003,-6.871252783444484
-0.11770000000000014,-6.874082206044213
-0.11870000000000003,-6.915108833740299
-0.11970000000000014,-6.934914791938409
-0.12070000000000003,-6.939158925838006
-0.12170000000000014,-6.9250118128393545
-0.12270000000000003,-6.923597101539489
-0.12370000000000014,-6.963209017935711
-0.12470000000000003,-6.9915032439330105
-0.12570000000000014,-6.988673821333281
-0.12670000000000003,-6.994332666532741
-0.12770000000000015,-6.994332666532741
-0.12870000000000004,-7.041018139428288
-0.12970000000000015,-7.062238808926263
-0.13070000000000004,-7.053750541127073
-0.13170000000000015,-7.043847562028017
-0.13270000000000004,-7.062238808926263
-0.13370000000000015,-7.093362457523294
-0.13470000000000004,-7.127315528720055
-0.13570000000000015,-7.1216566835205946
-0.13670000000000004,-7.125900817420191
-0.13770000000000016,-7.149950909517895
-0.13870000000000005,-7.178245135515196
-0.13970000000000016,-7.210783495412092
-0.14070000000000005,-7.217857051911418
-0.14170000000000016,-7.210783495412092
-0.14270000000000005,-7.243321855308987
-0.14370000000000016,-7.264542524806962
-0.14470000000000005,-7.315472131602105
-0.14570000000000016,-7.31405742030224
-0.14670000000000005,-7.31688684290197
-0.14770000000000016,-7.33952222369981
-0.14870000000000005,-7.379134140096031
-0.14970000000000017,-7.400354809594007
-0.15070000000000006,-7.400354809594007
-0.15170000000000017,-7.425819612991578
-0.15270000000000006,-7.447040282489553
-0.15370000000000017,-7.486652198885773
-0.15470000000000006,-7.53333767178132
-0.15570000000000017,-7.531922960481456
-0.15670000000000006,-7.51353171358321
-0.15770000000000017,-7.548899496079835
-0.15870000000000006,-7.6012438141748415
-0.15970000000000018,-7.639441019271198
-0.16070000000000007,-7.657832266169443
-0.16170000000000018,-7.66490582266877
-0.16270000000000007,-7.687541203466609
-0.16370000000000018,-7.755447345860131
-0.16470000000000007,-7.796473973556218
-0.16570000000000018,-7.8106210865548675
-0.16670000000000007,-7.823353488253653
-0.16770000000000018,-7.858721270750279
-0.16870000000000007,-7.899747898446365
-0.16970000000000018,-7.942189237442316
-0.17070000000000007,-7.953506927841237
-0.17170000000000019,-7.959165773040696
-0.17270000000000008,-7.995948266837187
-0.1737000000000002,-8.051122007531923
-0.17470000000000008,-8.09780748042747
-0.1757000000000002,-8.113369304725985
-0.17670000000000008,-8.140248819423421
-0.1777000000000002,-8.220887363515727
-0.17870000000000008,-8.28030523811006
-0.1797000000000002,-8.325575999705741
-0.18070000000000008,-8.348211380503582
-0.1817000000000002,-8.34255253530412
-0.18270000000000008,-8.370846761301422
-0.1837000000000002,-8.437338192395078
-0.1847000000000001,-8.498170778289277
-0.1857000000000002,-8.52787971558644
-0.1867000000000001,-8.551929807684147
-0.1877000000000002,-8.612762393578345
-0.1887000000000001,-8.677839113372134
-0.1897000000000002,-8.733012854066871
-0.1907000000000001,-8.762721791364037
-0.1917000000000001,-8.769795347863363
-0.19269999999999998,-8.83628677895702
-0.1937000000000001,-8.92116945694892
-0.19469999999999998,-8.972099063744063
-0.1957000000000001,-9.025858093138934
-0.19669999999999999,-9.048493473936775
-0.1977000000000001,-9.116399616330296
-0.1987,-9.199867583022334
-0.1997000000000001,-9.24938247851761
-0.2007,-9.294653240113291
-0.2017000000000001,-9.352656403407758
-0.2027,-9.419147834501414
-0.2037000000000001,-9.525251181991292
-0.2047,-9.598816169584273
-0.2057000000000001,-9.644086931179956
-0.2067,-9.700675383174557
-0.2077000000000001,-9.772825659467674
-0.2087,-9.852049492260116
-0.2097000000000001,-9.946835149351072
-0.2107,-10.04727965164149
-0.2117000000000001,-10.116600505334876
-0.2127,-10.164700689530287
-0.2137000000000001,-10.287780572618546
-0.2147,-10.410860455706805
-0.2157000000000001,-10.507060824097627
-0.2167,-10.528281493595602
-0.21770000000000012,-10.607505326388045
-0.2187,-10.731999920776168
-0.21970000000000012,-10.80839433096888
-0.2207,-10.881959318561863
-0.22170000000000012,-10.968256707853628
-0.2227,-11.089921879642024
-0.22370000000000012,-11.211587051430415
-0.2247,-11.334666934518673
-0.22570000000000012,-11.4266231690099
-0.2267,-11.491699888803693
-0.22770000000000012,-11.624682750991006
-0.22870000000000001,-11.778886282676295
-0.22970000000000013,-11.894892609265227
-0.23070000000000002,-11.985434132456591
-0.23170000000000013,-12.081634500847414
-0.23270000000000002,-12.218861496934323
-0.23370000000000013,-12.390041564217992
-0.23470000000000002,-12.514536158606116
-0.23570000000000013,-12.631957196494911
-0.23670000000000002,-12.74371938918425
-0.2376999999999999,-12.919143590367515
-0.23870000000000002,-13.084664812451724
-0.2396999999999999,-13.192182871241465
-0.24070000000000003,-13.357704093325674
-0.24169999999999991,-13.486442821613394
-0.24270000000000003,-13.613766838601249
-0.24369999999999992,-13.772214504186131
-0.24470000000000003,-13.943394571469803
-0.24569999999999992,-14.10891579355401
-0.24670000000000003,-14.26028990263957
-0.24769999999999992,-14.401761032626075
-0.24870000000000003,-14.599820614607177
-0.24969999999999992,-14.797880196588284
-0.25070000000000003,-14.939351326574789
-0.2516999999999999,-15.137410908555893
-0.25270000000000004,-15.307176264539699
-0.2536999999999999,-15.505235846520803
-0.25470000000000004,-15.70329542850191
-0.2556999999999999,-15.901355010483012
-0.25670000000000004,-16.099414592464115
-0.25769999999999993,-16.28332706144657
-0.25870000000000004,-16.50968086942498
-0.25969999999999993,-16.736034677403385
-0.26070000000000004,-16.863358694391238
-0.26169999999999993,-17.047271163373694
-0.26270000000000004,-17.2736249713521
-0.26369999999999993,-17.514125892329155
-0.26470000000000005,-17.75462681330621
-0.26569999999999994,-17.952686395287316
-0.26670000000000005,-18.164893090267068
-0.26769999999999994,-18.419541124242777
-0.26870000000000005,-18.688336271217132
-0.26969999999999994,-18.92883719219419
-0.27070000000000005,-19.169338113171246
-0.27169999999999994,-19.395691921149652
-0.27270000000000005,-19.664487068124007
-0.27369999999999994,-19.919135102099716
-0.27470000000000006,-20.187930249074075
-0.27569999999999995,-20.44257828304978
-0.27670000000000006,-20.711373430024135
-0.27769999999999995,-20.994315689997144
-0.27870000000000006,-21.291405062968803
-0.27969999999999995,-21.602641548939108
-0.28070000000000006,-21.885583808912116
-0.28169999999999995,-22.140231842887825
-0.28270000000000006,-22.437321215859484
-0.28369999999999995,-22.80514615382439
-0.28470000000000006,-23.13052975279335
-0.28569999999999995,-23.44176623876366
-0.28670000000000007,-23.738855611735314
-0.28769999999999996,-24.078386323702922
-0.28870000000000007,-24.432064148669184
-0.28969999999999996,-24.771594860636792
-0.29070000000000007,-25.111125572604404
-0.29169999999999996,-25.43650917157336
-0.29270000000000007,-25.790186996539617
-0.29369999999999996,-26.15801193450453
-0.2947000000000001,-26.62486666345999
-0.29569999999999996,-26.95025026242895
-0.2967000000000001,-27.303928087395207
-0.29769999999999996,-27.742488590353368
-0.2987000000000001,-28.12446064131693
-0.29969999999999997,-28.52057980527914
-0.3007000000000001,-28.88840474324405
-0.30169999999999997,-29.34111235920086
-0.3027000000000001,-29.80796708815632
-0.30369999999999997,-30.303116043109085
-0.3047000000000001,-30.741676546067247
-0.30569999999999997,-31.180237049025404
-0.3067000000000001,-31.64709177798087
-0.3077,-32.170534958930936
-0.3087000000000001,-32.6373896878864
-0.3097,-33.18912709483376
-0.3107000000000001,-33.670128936787876
-0.3117,-34.236013456733886
-0.3127000000000001,-34.75945663768395
-0.3137,-35.282899818634014
-0.3147000000000001,-35.83463722558138
-0.3157,-36.4288159715247
-0.3167000000000001,-37.00884760446935
-0.3177,-37.645467689408626
-0.3187000000000001,-38.38111756533845
-0.3197,-38.96114919828311
-0.3207000000000001,-39.62606350921968
-0.3217,-40.20609514216434
-0.3227000000000001,-40.91345079209687
-0.3237,-41.59251221603208
-0.3247000000000001,-42.34230920496055
-0.3257,-42.95063506390252
-0.3267000000000001,-43.74287339182693
-0.3277,-44.39364058976485
-0.3287000000000001,-45.143437578693316
-0.3297,-45.963970132615046
-0.3307000000000001,-46.61473733055296
-0.3317,-47.40697565847737
-0.3327000000000001,-48.26994955139505
-0.3337,-49.090482105316774
-0.3347000000000001,-49.8261319812466
-0.3357,-50.51934051818046
-0.3367000000000001,-51.325725959103536
-0.3377,-52.23114119101716
-0.3387000000000001,-53.023379518941574
-0.3397,-53.9005005248579
-0.3407000000000001,-54.84835709576747
-0.3417,-55.6688896496892
-0.3427000000000001,-56.61674622059877
-0.3437,-57.550455678509685
-0.3447000000000001,-58.38513534543006
-0.3457,-59.16322656035583
-0.3467000000000001,-60.09693601826676
-0.3477,-61.08723392817228
-0.3487000000000001,-62.07753183807781
-0.3497,-63.02538840898739
-0.3507000000000001,-64.11471610988345
-0.3517,-65.02013134179708
-0.3527000000000001,-66.01042925170262
-0.3537,-67.08560983960004
-0.3547000000000001,-68.0900548625042
-0.3557,-69.10864699840704
-0.35670000000000013,-70.12723913430986
-0.3577,-71.2024197222073
-0.35870000000000013,-72.29174742310337
-0.3597,-73.46595780199135
-0.36070000000000013,-74.34307880790767
-0.3617,-75.29093537881725
-0.3626999999999999,-76.38026307971333
-0.3637,-77.58276768459861
-0.3646999999999999,-78.58721270750279
-0.3657,-79.69068752139752
-0.3666999999999999,-80.73757388329766
-0.3677,-81.86934292318966
-0.3686999999999999,-83.01525907608035
-0.36970000000000003,-84.13288100297372
-0.3706999999999999,-85.2222087038698
-0.37170000000000003,-86.39641908275779
-0.3726999999999999,-87.55648234864712
-0.37370000000000003,-88.7306927275351
-0.3746999999999999,-90.00393289741362
-0.37570000000000003,-91.17814327630163
-0.3766999999999999,-92.26747097719769
-0.37770000000000004,-93.39924001708972
-0.3786999999999999,-94.6583330739696
-0.37970000000000004,-95.74766077486568
-0.3806999999999999,-96.95016537975096
-0.38170000000000004,-98.23755266262813
-0.38269999999999993,-99.5107928325067
-0.38370000000000004,-100.89720990637443
-0.38469999999999993,-102.12800873725699
-0.38570000000000004,-103.34466045514093
-0.38669999999999993,-102.87780572618546
-0.38570000000000004,-101.12356371435283
-0.38469999999999993,-99.75129375348374
-0.38370000000000004,-98.3931709056133
-0.38269999999999993,-97.06334228374017
-0.38170000000000004,-95.86083767885488
-0.3806999999999999,-94.6583330739696
-0.37970000000000004,-93.61144671206948
-0.3786999999999999,-92.30991231619365
-0.37770000000000004,-91.10740771130837
-0.3766999999999999,-89.94734444541903
-0.37570000000000003,-88.815575405527
-0.3746999999999999,-87.64136502663902
-0.37370000000000003,-86.33983063076319
-0.3726999999999999,-85.08073757388331
-0.37170000000000003,-84.01970409898453
-0.3706999999999999,-82.90208217209116
-0.36970000000000003,-81.69957756720586
-0.3686999999999999,-80.56780852731384
-0.3677,-79.43603948742181
-0.3666999999999999,-78.10621086554868
-0.3657,-77.0168831646526
-0.3646999999999999,-75.81437855976732
-0.3637,-74.55528550288744
-0.3626999999999999,-73.45181068899271
-0.3617,-72.33418876209933
-0.36070000000000013,-71.17412549621
-0.3597,-70.15553336030716
-0.35870000000000013,-69.1227941114057
-0.3577,-68.0900548625042
-0.35670000000000013,-66.98658004860948
-0.3557,-65.91139946071206
-0.3547000000000001,-64.85036598581328
-0.3537,-63.74689117191855
-0.3527000000000001,-62.72829903601572
-0.3517,-61.66726556111695
-0.3507000000000001,-60.70526187720872
-0.3497,-59.85643509728971
-0.3487000000000001,-58.92272563937878
-0.3477,-57.904133503475954
-0.3467000000000001,-56.927982706569075
-0.3457,-55.9235376836649
-0.3447000000000001,-54.904945547762075
-0.3437,-53.9287947508552
-0.3427000000000001,-52.91020261495237
-0.3417,-51.990640270040096
-0.3407000000000001,-51.14181349012107
-0.3397,-50.30713382320071
-0.3387000000000001,-49.40171859128708
-0.3377,-48.45386202037751
-0.3367000000000001,-47.57674101446119
-0.3357,-46.75620846053947
-0.3347000000000001,-45.82249900262854
-0.3337,-44.93123088371356
-0.3327000000000001,-44.054109877797245
-0.3317,-43.205283097878215
-0.3307000000000001,-42.4130447699538
-0.3297,-41.620806442029384
-0.3287000000000001,-40.84271522710361
-0.3277,-39.99388844718459
-0.3267000000000001,-39.187503006261515
-0.3257,-38.39526467833709
-0.3247000000000001,-37.60302635041268
-0.3237,-36.8249351354869
-0.3227000000000001,-36.08928525955708
-0.3217,-35.311194044631314
-0.3207000000000001,-34.58969128170015
-0.3197,-33.86818851876898
-0.3187000000000001,-33.10424441684186
-0.3177,-32.354447427913385
-0.3167000000000001,-31.632944664982226
-0.3157,-30.939736128048356
-0.3147000000000001,-30.317263156107735
-0.3137,-29.609907506175215
-0.3127000000000001,-28.9025518562427
-0.3117,-28.251784658304786
-0.3107000000000001,-27.58687034736821
-0.3097,-26.992691601424898
-0.3087000000000001,-26.34192440348698
-0.3077,-25.705304318547718
-0.3067000000000001,-25.167714024599
-0.30569999999999997,-24.531093939659737
-0.3047000000000001,-23.88032674172182
-0.30369999999999997,-23.272000882779853
-0.3027000000000001,-22.67782213683654
-0.30169999999999997,-22.126084729889175
-0.3007000000000001,-21.531905983945855
-0.29969999999999997,-20.980168576998494
-0.2987000000000001,-20.456725396048434
-0.29769999999999996,-19.904987989101066
-0.2967000000000001,-19.367397695152352
-0.29569999999999996,-18.843954514202288
-0.2947000000000001,-18.334658446250877
-0.29369999999999996,-17.867803717295413
-0.29270000000000007,-17.34436053634535
-0.29169999999999996,-16.820917355395284
-0.29070000000000007,-16.396503965435777
-0.28969999999999996,-15.943796349478962
-0.28870000000000007,-15.462794507524851
-0.28769999999999996,-14.98179266557074
-0.28670000000000007,-14.529085049613924
-0.28569999999999995,-14.113159927453605
-0.28470000000000006,-13.705723073092477
-0.28369999999999995,-13.245941900636339
-0.28270000000000006,-12.801722552478717
-0.28169999999999995,-12.371650317319745
-0.28070000000000006,-12.013728358453893
-0.27969999999999995,-11.665709378687092
-0.27870000000000006,-11.251198967826637
-0.27769999999999995,-10.839517979565912
-0.27670000000000006,-10.456131217302488
-0.27569999999999995,-10.099623969736497
-0.27470000000000006,-9.767166814268213
-0.27369999999999994,-9.410659566702224
-0.27270000000000005,-9.038590494837718
-0.27169999999999994,-8.700474494169976
-0.27070000000000005,-8.396311564698992
-0.26969999999999994,-8.082245656128954
-0.26870000000000005,-7.755447345860131
-0.26769999999999994,-7.420160767792117
-0.26670000000000005,-7.091947746223429
-0.26569999999999994,-6.821737887949207
-0.26470000000000005,-6.55577216357458
-0.26369999999999993,-6.274244614901438
