Potential V vs RHE, Current mA cm-2
0.013299999999999867,-0.3511313446265021
0.012299999999999978,-1.4854468648582886
0.011299999999999866,-2.2706116362833835
0.010299999999999976,-2.924208256821031
0.009299999999999864,-3.403795387475278
0.008299999999999974,-3.7970851288377587
0.007299999999999862,-4.102662769608606
0.006299999999999972,-4.3205283097878215
0.00529999999999986,-4.494537799671222
0.0042999999999999705,-4.626105950558669
0.0032999999999998586,-4.756259390146253
0.0022999999999999687,-4.887827541033701
0.0012999999999998568,-5.017980980621284
0.00029999999999996696,-5.149549131508733
-0.000700000000000145,-5.279702571096316
-0.0017000000000000348,-5.367414671687949
-0.0027000000000001467,-5.453712060979717
-0.0037000000000000366,-5.497568111275533
-0.0047000000000001485,-5.497568111275533
-0.005700000000000038,-5.5414241615713475
-0.00670000000000015,-5.585280211867165
-0.00770000000000004,-5.585280211867165
-0.008700000000000152,-5.629136262162981
-0.009700000000000042,-5.672992312458796
-0.010700000000000154,-5.715433651454749
-0.011700000000000044,-5.759289701750564
-0.012700000000000156,-5.80314575204638
-0.013700000000000045,-5.890857852638012
-0.014700000000000157,-5.890857852638012
-0.015700000000000047,-5.9347139029338285
-0.01670000000000016,-5.890857852638012
-0.01770000000000005,-5.9347139029338285
-0.01870000000000016,-5.890857852638012
-0.01970000000000005,-5.9347139029338285
-0.020700000000000163,-5.9347139029338285
-0.021700000000000053,-5.9347139029338285
-0.022700000000000164,-5.977155241929781
-0.023700000000000054,-6.021011292225596
-0.024700000000000166,-6.108723392817228
-0.025700000000000056,-6.152579443113044
-0.026700000000000168,-6.152579443113044
-0.027700000000000058,-6.152579443113044
-0.02870000000000017,-6.152579443113044
-0.02970000000000006,-6.108723392817228
-0.03070000000000017,-6.108723392817228
-0.03170000000000006,-6.108723392817228
-0.03270000000000017,-6.108723392817228
-0.03370000000000006,-6.152579443113044
-0.034700000000000175,-6.196435493408861
-0.035700000000000065,-6.238876832404812
-0.03670000000000018,-6.282732882700628
-0.03770000000000007,-6.282732882700628
-0.03870000000000018,-6.326588932996443
-0.03970000000000007,-6.282732882700628
-0.04070000000000018,-6.282732882700628
-0.04170000000000007,-6.238876832404812
-0.04270000000000018,-6.238876832404812
-0.04370000000000007,-6.238876832404812
-0.044700000000000184,-6.282732882700628
-0.045700000000000074,-6.282732882700628
-0.046700000000000186,-6.326588932996443
-0.047700000000000076,-6.37044498329226
-0.04870000000000019,-6.414301033588076
-0.04970000000000008,-6.414301033588076
-0.05070000000000019,-6.414301033588076
-0.05170000000000008,-6.414301033588076
-0.05270000000000019,-6.37044498329226
-0.05370000000000008,-6.37044498329226
-0.05470000000000019,-6.37044498329226
-0.05570000000000008,-6.37044498329226
-0.056700000000000195,-6.37044498329226
-0.057700000000000085,-6.414301033588076
-0.058700000000000196,-6.458157083883892
-0.059700000000000086,-6.500598422879844
-0.0607000000000002,-6.500598422879844
-0.06170000000000009,-6.54445447317566
-0.0627000000000002,-6.54445447317566
-0.06370000000000009,-6.500598422879844
-0.0647000000000002,-6.458157083883892
-0.06570000000000009,-6.458157083883892
-0.0667000000000002,-6.458157083883892
-0.0677000000000001,-6.458157083883892
-0.0687000000000002,-6.458157083883892
-0.0697000000000001,-6.500598422879844
-0.07070000000000021,-6.54445447317566
-0.0717000000000001,-6.588310523471475
-0.07270000000000021,-6.588310523471475
-0.0737000000000001,-6.588310523471475
-0.07470000000000021,-6.588310523471475
-0.0757000000000001,-6.54445447317566
-0.07670000000000021,-6.54445447317566
-0.0777000000000001,-6.500598422879844
-0.07870000000000021,-6.500598422879844
-0.0797000000000001,-6.500598422879844
-0.08070000000000022,-6.54445447317566
-0.0817000000000001,-6.588310523471475
-0.08270000000000022,-6.632166573767292
-0.08370000000000011,-6.632166573767292
-0.08470000000000022,-6.632166573767292
-0.08570000000000011,-6.632166573767292
-0.08670000000000022,-6.588310523471475
-0.08770000000000011,-6.588310523471475
-0.08870000000000022,-6.54445447317566
-0.08970000000000011,-6.54445447317566
-0.09070000000000022,-6.54445447317566
-0.09170000000000011,-6.588310523471475
-0.09270000000000023,-6.588310523471475
-0.09370000000000012,-6.632166573767292
-0.09470000000000023,-6.6760226240631075
-0.09570000000000012,-6.6760226240631075
-0.09670000000000023,-6.6760226240631075
-0.09770000000000012,-6.632166573767292
-0.09870000000000023,-6.632166573767292
-0.09970000000000012,-6.632166573767292
-0.10070000000000023,-6.588310523471475
-0.10170000000000012,-6.54445447317566
-0.10270000000000024,-6.588310523471475
-0.10370000000000013,-6.588310523471475
-0.10470000000000024,-6.632166573767292
-0.10570000000000013,-6.6760226240631075
-0.10670000000000024,-6.719878674358924
-0.10770000000000013,-6.719878674358924
-0.10870000000000024,-6.719878674358924
-0.10970000000000013,-6.6760226240631075
-0.11070000000000024,-6.6760226240631075
-0.11170000000000013,-6.632166573767292
-0.11270000000000002,-6.588310523471475
-0.11370000000000013,-6.632166573767292
-0.11470000000000002,-6.632166573767292
-0.11570000000000014,-6.632166573767292
-0.11670000000000003,-6.6760226240631075
-0.11770000000000014,-6.719878674358924
-0.11870000000000003,-6.719878674358924
-0.11970000000000014,-6.719878674358924
-0.12070000000000003,-6.719878674358924
-0.12170000000000014,-6.6760226240631075
-0.12270000000000003,-6.6760226240631075
-0.12370000000000014,-6.632166573767292
-0.12470000000000003,-6.632166573767292
-0.12570000000000014,-6.632166573767292
-0.12670000000000003,-6.632166573767292
-0.12770000000000015,-6.6760226240631075
-0.12870000000000004,-6.719878674358924
-0.12970000000000015,-6.762320013354876
-0.13070000000000004,-6.762320013354876
-0.13170000000000015,-6.762320013354876
-0.13270000000000004,-6.762320013354876
-0.13370000000000015,-6.719878674358924
-0.13470000000000004,-6.719878674358924
-0.13570000000000015,-6.6760226240631075
-0.13670000000000004,-6.6760226240631075
-0.13770000000000016,-6.6760226240631075
-0.13870000000000005,-6.719878674358924
-0.13970000000000016,-6.719878674358924
-0.14070000000000005,-6.762320013354876
-0.14170000000000016,-6.806176063650692
-0.14270000000000005,-6.806176063650692
-0.14370000000000016,-6.806176063650692
-0.14470000000000005,-6.806176063650692
-0.14570000000000016,-6.762320013354876
-0.14670000000000005,-6.762320013354876
-0.14770000000000016,-6.719878674358924
-0.14870000000000005,-6.719878674358924
-0.14970000000000017,-6.719878674358924
-0.15070000000000006,-6.762320013354876
-0.15170000000000017,-6.762320013354876
-0.15270000000000006,-6.806176063650692
-0.15370000000000017,-6.850032113946507
-0.15470000000000006,-6.850032113946507
-0.15570000000000017,-6.850032113946507
-0.15670000000000006,-6.850032113946507
-0.15770000000000017,-6.806176063650692
-0.15870000000000006,-6.806176063650692
-0.15970000000000018,-6.806176063650692
-0.16070000000000007,-6.762320013354876
-0.16170000000000018,-6.806176063650692
-0.16270000000000007,-6.850032113946507
-0.16370000000000018,-6.893888164242324
-0.16470000000000007,-6.93774421453814
-0.16570000000000018,-6.93774421453814
-0.16670000000000007,-6.93774421453814
-0.16770000000000018,-6.93774421453814
-0.16870000000000007,-6.93774421453814
-0.16970000000000018,-6.893888164242324
-0.17070000000000007,-6.850032113946507
-0.17170000000000019,-6.893888164242324
-0.17270000000000008,-6.850032113946507
-0.1737000000000002,-6.893888164242324
-0.17470000000000008,-6.93774421453814
-0.1757000000000002,-6.981600264833956
-0.17670000000000008,-7.024041603829907
-0.1777000000000002,-7.024041603829907
-0.17870000000000008,-7.024041603829907
-0.1797000000000002,-7.024041603829907
-0.18070000000000008,-6.981600264833956
-0.1817000000000002,-6.981600264833956
-0.18270000000000008,-6.981600264833956
-0.1837000000000002,-6.981600264833956
-0.1847000000000001,-6.981600264833956
-0.1857000000000002,-7.024041603829907
-0.1867000000000001,-7.024041603829907
-0.1877000000000002,-7.067897654125724
-0.1887000000000001,-7.111753704421539
-0.1897000000000002,-7.111753704421539
-0.1907000000000001,-7.111753704421539
-0.1917000000000001,-7.111753704421539
-0.19269999999999998,-7.111753704421539
-0.1937000000000001,-7.067897654125724
-0.19469999999999998,-7.067897654125724
-0.1957000000000001,-7.111753704421539
-0.19669999999999999,-7.111753704421539
-0.1977000000000001,-7.155609754717355
-0.1987,-7.199465805013171
-0.1997000000000001,-7.243321855308987
-0.2007,-7.243321855308987
-0.2017000000000001,-7.243321855308987
-0.2027,-7.243321855308987
-0.2037000000000001,-7.243321855308987
-0.2047,-7.243321855308987
-0.2057000000000001,-7.199465805013171
-0.2067,-7.199465805013171
-0.2077000000000001,-7.243321855308987
-0.2087,-7.243321855308987
-0.2097000000000001,-7.28576319430494
-0.2107,-7.329619244600755
-0.2117000000000001,-7.37347529489657
-0.2127,-7.4173313451923875
-0.2137000000000001,-7.4173313451923875
-0.2147,-7.4173313451923875
-0.2157000000000001,-7.4173313451923875
-0.2167,-7.4173313451923875
-0.21770000000000012,-7.37347529489657
-0.2187,-7.37347529489657
-0.21970000000000012,-7.4173313451923875
-0.2207,-7.4173313451923875
-0.22170000000000012,-7.461187395488204
-0.2227,-7.5474847847799715
-0.22370000000000012,-7.5474847847799715
-0.2247,-7.591340835075788
-0.22570000000000012,-7.591340835075788
-0.2267,-7.5474847847799715
-0.22770000000000012,-7.591340835075788
-0.22870000000000001,-7.5474847847799715
-0.22970000000000013,-7.591340835075788
-0.23070000000000002,-7.591340835075788
-0.23170000000000013,-7.591340835075788
-0.23270000000000002,-7.679052935667419
-0.23370000000000013,-7.722908985963235
-0.23470000000000002,-7.7653503249591855
-0.23570000000000013,-7.809206375255003
-0.23670000000000002,-7.809206375255003
-0.2376999999999999,-7.809206375255003
-0.23870000000000002,-7.809206375255003
-0.2396999999999999,-7.809206375255003
-0.24070000000000003,-7.809206375255003
-0.24169999999999991,-7.853062425550818
-0.24270000000000003,-7.853062425550818
-0.24369999999999992,-7.896918475846635
-0.24470000000000003,-7.940774526142452
-0.24569999999999992,-7.984630576438266
-0.24670000000000003,-8.027071915434218
-0.24769999999999992,-8.070927965730034
-0.24870000000000003,-8.11478401602585
-0.24969999999999992,-8.070927965730034
-0.25070000000000003,-8.070927965730034
-0.2516999999999999,-8.070927965730034
-0.25270000000000004,-8.070927965730034
-0.2536999999999999,-8.11478401602585
-0.25470000000000004,-8.158640066321666
-0.2556999999999999,-8.202496116617484
-0.25670000000000004,-8.246352166913299
-0.25769999999999993,-8.288793505909249
-0.25870000000000004,-8.332649556205066
-0.25969999999999993,-8.376505606500881
-0.26070000000000004,-8.376505606500881
-0.26169999999999993,-8.376505606500881
-0.26270000000000004,-8.376505606500881
-0.26369999999999993,-8.376505606500881
-0.26470000000000005,-8.4203616567967
-0.26569999999999994,-8.464217707092514
-0.26670000000000005,-8.508073757388331
-0.26769999999999994,-8.55051509638428
-0.26870000000000005,-8.594371146680096
-0.26969999999999994,-8.68208324727173
-0.27070000000000005,-8.725939297567548
-0.27169999999999994,-8.769795347863363
-0.27270000000000005,-8.769795347863363
-0.27369999999999994,-8.769795347863363
-0.27470000000000006,-8.812236686859313
-0.27569999999999995,-8.769795347863363
-0.27670000000000006,-8.85609273715513
-0.27769999999999995,-8.85609273715513
-0.27870000000000006,-8.943804837746763
-0.27969999999999995,-8.987660888042578
-0.28070000000000006,-9.031516938338395
-0.28169999999999995,-9.11781432763016
-0.28270000000000006,-9.161670377925978
-0.28369999999999995,-9.205526428221793
-0.28470000000000006,-9.205526428221793
-0.28569999999999995,-9.205526428221793
-0.28670000000000007,-9.24938247851761
-0.28769999999999996,-9.24938247851761
-0.28870000000000007,-9.293238528813426
-0.28969999999999996,-9.335679867809377
-0.29070000000000007,-9.379535918105192
-0.29169999999999996,-9.467248018696827
-0.29270000000000007,-9.511104068992642
-0.29369999999999996,-9.59740145828441
-0.2947000000000001,-9.641257508580225
-0.29569999999999996,-9.685113558876042
-0.2967000000000001,-9.685113558876042
-0.29769999999999996,-9.728969609171857
-0.2987000000000001,-9.728969609171857
-0.29969999999999997,-9.772825659467674
-0.3007000000000001,-9.772825659467674
-0.30169999999999997,-9.85912304875944
-0.3027000000000001,-9.946835149351072
-0.30369999999999997,-10.034547249942705
-0.3047000000000001,-10.120844639234473
-0.30569999999999997,-10.164700689530287
-0.3067000000000001,-10.25241279012192
-0.3077,-10.296268840417738
-0.3087000000000001,-10.296268840417738
-0.3097,-10.340124890713554
-0.3107000000000001,-10.382566229709504
-0.3117,-10.42642228000532
-0.3127000000000001,-10.470278330301136
-0.3137,-10.557990430892769
-0.3147000000000001,-10.644287820184536
-0.3157,-10.775855971071984
-0.3167000000000001,-10.863568071663616
-0.3177,-10.906009410659568
-0.3187000000000001,-10.993721511251199
-0.3197,-10.993721511251199
-0.3207000000000001,-11.081433611842833
-0.3217,-11.081433611842833
-0.3227000000000001,-11.123874950838783
-0.3237,-11.211587051430415
-0.3247000000000001,-11.255443101726232
-0.3257,-11.385596541313816
-0.3267000000000001,-11.473308641905447
-0.3277,-11.56102074249708
-0.3287000000000001,-11.647318131788847
-0.3297,-11.73503023238048
-0.3307000000000001,-11.778886282676295
-0.3317,-11.86659838326793
-0.3327000000000001,-11.909039722263879
-0.3337,-11.952895772559694
-0.3347000000000001,-12.040607873151327
-0.3357,-12.084463923447142
-0.3367000000000001,-12.214617363034726
-0.3377,-12.302329463626359
-0.3387000000000001,-12.432482903213943
-0.3397,-12.56405105410139
-0.3407000000000001,-12.651763154693022
-0.3417,-12.73806054398479
-0.3427000000000001,-12.825772644576423
-0.3437,-12.913484745168056
-0.3447000000000001,-12.955926084164007
-0.3457,-13.043638184755638
-0.3467000000000001,-13.13135028534727
-0.3477,-13.217647674639037
-0.3487000000000001,-13.3930718758223
-0.3497,-13.47936926511407
-0.3507000000000001,-13.610937416001518
-0.3517,-13.741090855589102
-0.3527000000000001,-13.872659006476551
-0.3537,-14.002812446064135
-0.3547000000000001,-14.046668496359947
-0.3557,-14.13438059695158
-0.35670000000000013,-14.217848563643619
-0.3577,-14.30273124163552
-0.35870000000000013,-14.444202371622024
-0.3597,-14.529085049613924
-0.36070000000000013,-14.65640906660178
-0.3617,-14.783733083589633
-0.3626999999999999,-14.925204213576137
-0.3637,-15.094969569559943
-0.3646999999999999,-15.222293586547794
-0.3657,-15.307176264539699
-0.3666999999999999,-15.3920589425316
-0.3677,-15.533530072518102
-0.3686999999999999,-15.618412750510005
-0.36970000000000003,-15.74573676749786
-0.3706999999999999,-15.830619445489761
-0.37170000000000003,-16.014531914472215
-0.3726999999999999,-16.141855931460068
-0.37370000000000003,-16.311621287443874
-0.3746999999999999,-16.495533756426326
-0.37570000000000003,-16.622857773414182
-0.3766999999999999,-16.792623129397985
-0.37770000000000004,-16.919947146385837
-0.3786999999999999,-17.018976937376394
-0.37970000000000004,-17.146300954364243
-0.3806999999999999,-17.2736249713521
-0.38170000000000004,-17.40094898833995
-0.38269999999999993,-17.542420118326454
-0.38370000000000004,-17.75462681330621
-0.38469999999999993,-17.881950830294063
-0.38570000000000004,-18.10830463827247
-0.38669999999999993,-18.27806999425627
-0.38770000000000004,-18.44783535024008
-0.38869999999999993,-18.589306480226583
-0.38970000000000005,-18.759071836210385
-0.39069999999999994,-18.88639585319824
-0.39170000000000005,-19.01371987018609
-0.39269999999999994,-19.155191000172596
-0.39370000000000005,-19.3249563561564
-0.39469999999999994,-19.452280373144255
-0.39570000000000005,-19.678634181122664
-0.39669999999999994,-19.848399537106463
-0.39770000000000005,-20.01816489309027
-0.39869999999999994,-20.244518701068674
-0.39970000000000006,-20.414284057052477
-0.40069999999999995,-20.584049413036283
-0.40170000000000006,-20.72552054302279
-0.40269999999999995,-20.89528589900659
-0.40370000000000006,-21.022609915994444
-0.40469999999999995,-21.2065223849769
-0.40570000000000006,-21.376287740960702
-0.40669999999999995,-21.54605309694451
-0.40770000000000006,-21.772406904922917
-0.40869999999999995,-21.98461359990267
-0.40970000000000006,-22.196820294882425
-0.41069999999999995,-22.42317410286083
-0.41170000000000007,-22.63538079784059
-0.41269999999999996,-22.819293266823045
-0.41370000000000007,-22.946617283810895
-0.41469999999999996,-23.15882397879065
-0.41570000000000007,-23.342736447773106
-0.41669999999999996,-23.55494314275286
-0.41770000000000007,-23.724708498736668
-0.41869999999999996,-23.993503645711023
-0.4197000000000001,-24.20571034069078
-0.42069999999999996,-24.474505487665134
-0.4217000000000001,-24.686712182644893
-0.42269999999999996,-24.9130659906233
-0.4237000000000001,-25.167714024599
-0.42469999999999997,-25.295038041586857
-0.4257000000000001,-25.521391849565262
-0.42669999999999997,-25.691157205549064
-0.4277000000000001,-25.86092256153287
-0.42869999999999997,-26.087276369511276
-0.4297000000000001,-26.29948306449103
-0.43069999999999997,-26.568278211465387
-0.4317000000000001,-26.780484906445146
-0.4327,-27.049280053419505
-0.4337000000000001,-27.261486748399253
-0.4347,-27.487840556377662
-0.4357000000000001,-27.742488590353368
-0.4367,-27.912253946337174
-0.4377000000000001,-28.13860775431558
-0.4387,-28.308373110299385
-0.4397000000000001,-28.53472691827779
-0.4407,-28.746933613257543
-0.4417000000000001,-29.001581647233255
-0.4427,-29.27037679420761
-0.4437000000000001,-29.525024828183312
-0.4447,-29.793819975157668
-0.4457000000000001,-30.04846800913338
-0.4467,-30.317263156107735
-0.4477000000000001,-30.529469851087494
-0.4487,-30.79826499806185
-0.4497000000000001,-31.010471693041605
-0.4507,-31.23682550102001
-0.4517000000000001,-31.49147353499572
-0.4527,-31.76026868197007
-0.4537000000000001,-32.05735805494172
-0.4547,-32.368594540912035
-0.4557000000000001,-32.62324257488775
-0.4567,-32.97692039985401
-0.4577000000000001,-33.231568433829715
-0.4587,-33.50036358080407
-0.4597000000000001,-33.755011614779775
-0.4607,-34.02380676175414
-0.4617000000000001,-34.278454795729836
-0.4627,-34.50480860370825
-0.4637000000000001,-34.75945663768395
-0.4647,-35.02825178465831
-0.4657000000000001,-35.32534115762997
-0.4667,-35.636577643600276
-0.4677000000000001,-35.90537279057463
-0.4687,-36.16002082455034
-0.4697000000000001,-36.47125731052064
-0.4707,-36.725905344496354
-0.4717000000000001,-36.99470049147071
-0.4727,-37.249348525446415
-0.4737000000000001,-37.51814367242077
-0.4747,-37.77279170639648
-0.4757000000000001,-38.08402819236679
-0.4767,-38.33867622634249
-0.4777000000000001,-38.692354051308754
-0.4787,-38.98944342428042
-0.4797000000000001,-39.34312124924667
-0.4807,-39.61191639622103
-0.48170000000000013,-39.95144710818864
-0.4827,-40.220242255162994
-0.48370000000000013,-40.4748902891387
-0.4847,-40.828568114104954
-0.48570000000000013,-41.083216148080666
-0.4867,-41.39445263405098
-0.4876999999999999,-41.70568912002128
-0.4887,-42.04521983198889
-0.4896999999999999,-42.39889765695515
-0.4907,-42.752575481921404
-0.4916999999999999,-43.09210619388902
-0.4927,-43.44578401885527
-0.4936999999999999,-43.79946184382153
-0.49470000000000003,-44.054109877797245
-0.4956999999999999,-44.36534636376755
-0.49670000000000003,-44.66243573673921
-0.4976999999999999,-44.97367222270952
-0.49870000000000003,-45.27076159568118
-0.4996999999999999,-45.624439420647434
-0.5007,-45.97811724561369
-0.5016999999999999,-46.3176479575813
-0.5027,-46.67132578254756
-0.5036999999999999,-46.982562268517874
-0.5047,-47.32209298048547
-0.5056999999999999,-47.633329466455784
-0.5067,-47.93041883942744
-0.5076999999999999,-48.24165532539775
-0.5087,-48.51045047237211
-0.5096999999999999,-48.80753984534376
-0.5107,-49.16121767031002
