Apr. 22, 2025   00:21:02
Linear Sweep Voltammetry
File: c:/users/guazh/data/banditlqround7_x0exp590_r20/2025-04-16-exp1151\pre-regen-2025-04-22t00_17_57-lsvinphos\pre-regen_lsv_50mvs_efin_-1900mv.bin
Data Source:  Experiment
Instrument Model:  CHI760E
Header: LSV ran at 50 mVs with Efin at -1900mV
Note: 

Init E (V) = -0.6
Final E (V) = -1.9
Scan Rate (V/s) = 0.05
Sample Interval (V) = 0.001
Quiet Time (sec) = 2
Sensitivity (A/V) = 1e-4
Comp R (ohm) = 8.0

Results:

Channel 1:
Ep = -1.411V
ip = 6.908e-4A
Ah = 9.851e-4C

Potential/V, Current/A

-0.600, -1.414e-4
-0.601, -1.346e-4
-0.602, -1.265e-4
-0.603, -1.195e-4
-0.604, -1.137e-4
-0.605, -1.085e-4
-0.606, -1.037e-4
-0.607, -9.915e-5
-0.608, -9.478e-5
-0.609, -9.074e-5
-0.610, -8.698e-5
-0.611, -8.329e-5
-0.612, -7.960e-5
-0.613, -7.594e-5
-0.614, -7.248e-5
-0.615, -6.918e-5
-0.616, -6.596e-5
-0.617, -6.271e-5
-0.618, -5.949e-5
-0.619, -5.644e-5
-0.620, -5.357e-5
-0.621, -5.070e-5
-0.622, -4.775e-5
-0.623, -4.485e-5
-0.624, -4.212e-5
-0.625, -3.954e-5
-0.626, -3.696e-5
-0.627, -3.430e-5
-0.628, -3.167e-5
-0.629, -2.920e-5
-0.630, -2.691e-5
-0.631, -2.461e-5
-0.632, -2.218e-5
-0.633, -1.981e-5
-0.634, -1.761e-5
-0.635, -1.551e-5
-0.636, -1.343e-5
-0.637, -1.126e-5
-0.638, -9.098e-6
-0.639, -7.098e-6
-0.640, -5.221e-6
-0.641, -3.371e-6
-0.642, -1.432e-6
-0.643, 5.185e-7
-0.644, 2.310e-6
-0.645, 3.971e-6
-0.646, 5.651e-6
-0.647, 7.425e-6
-0.648, 9.206e-6
-0.649, 1.081e-5
-0.650, 1.228e-5
-0.651, 1.379e-5
-0.652, 1.540e-5
-0.653, 1.703e-5
-0.654, 1.849e-5
-0.655, 1.980e-5
-0.656, 2.114e-5
-0.657, 2.260e-5
-0.658, 2.406e-5
-0.659, 2.541e-5
-0.660, 2.659e-5
-0.661, 2.781e-5
-0.662, 2.916e-5
-0.663, 3.048e-5
-0.664, 3.170e-5
-0.665, 3.274e-5
-0.666, 3.392e-5
-0.667, 3.519e-5
-0.668, 3.638e-5
-0.669, 3.747e-5
-0.670, 3.844e-5
-0.671, 3.938e-5
-0.672, 4.053e-5
-0.673, 4.166e-5
-0.674, 4.264e-5
-0.675, 4.353e-5
-0.676, 4.442e-5
-0.677, 4.545e-5
-0.678, 4.650e-5
-0.679, 4.741e-5
-0.680, 4.824e-5
-0.681, 4.907e-5
-0.682, 5.002e-5
-0.683, 5.103e-5
-0.684, 5.186e-5
-0.685, 5.261e-5
-0.686, 5.339e-5
-0.687, 5.427e-5
-0.688, 5.521e-5
-0.689, 5.600e-5
-0.690, 5.669e-5
-0.691, 5.743e-5
-0.692, 5.829e-5
-0.693, 5.916e-5
-0.694, 5.992e-5
-0.695, 6.053e-5
-0.696, 6.121e-5
-0.697, 6.200e-5
-0.698, 6.285e-5
-0.699, 6.358e-5
-0.700, 6.417e-5
-0.701, 6.483e-5
-0.702, 6.559e-5
-0.703, 6.639e-5
-0.704, 6.708e-5
-0.705, 6.763e-5
-0.706, 6.824e-5
-0.707, 6.899e-5
-0.708, 6.975e-5
-0.709, 7.042e-5
-0.710, 7.096e-5
-0.711, 7.154e-5
-0.712, 7.227e-5
-0.713, 7.303e-5
-0.714, 7.369e-5
-0.715, 7.422e-5
-0.716, 7.476e-5
-0.717, 7.547e-5
-0.718, 7.621e-5
-0.719, 7.680e-5
-0.720, 7.734e-5
-0.721, 7.789e-5
-0.722, 7.856e-5
-0.723, 7.931e-5
-0.724, 7.989e-5
-0.725, 8.040e-5
-0.726, 8.096e-5
-0.727, 8.163e-5
-0.728, 8.235e-5
-0.729, 8.294e-5
-0.730, 8.344e-5
-0.731, 8.402e-5
-0.732, 8.468e-5
-0.733, 8.537e-5
-0.734, 8.598e-5
-0.735, 8.645e-5
-0.736, 8.698e-5
-0.737, 8.765e-5
-0.738, 8.835e-5
-0.739, 8.897e-5
-0.740, 8.944e-5
-0.741, 8.999e-5
-0.742, 9.067e-5
-0.743, 9.138e-5
-0.744, 9.198e-5
-0.745, 9.243e-5
-0.746, 9.297e-5
-0.747, 9.366e-5
-0.748, 9.436e-5
-0.749, 9.497e-5
-0.750, 9.545e-5
-0.751, 9.597e-5
-0.752, 9.666e-5
-0.753, 9.738e-5
-0.754, 9.799e-5
-0.755, 9.848e-5
-0.756, 9.901e-5
-0.757, 9.971e-5
-0.758, 1.004e-4
-0.759, 1.011e-4
-0.760, 1.016e-4
-0.761, 1.021e-4
-0.762, 1.028e-4
-0.763, 1.035e-4
-0.764, 1.041e-4
-0.765, 1.047e-4
-0.766, 1.053e-4
-0.767, 1.059e-4
-0.768, 1.067e-4
-0.769, 1.074e-4
-0.770, 1.079e-4
-0.771, 1.085e-4
-0.772, 1.092e-4
-0.773, 1.100e-4
-0.774, 1.106e-4
-0.775, 1.112e-4
-0.776, 1.118e-4
-0.777, 1.125e-4
-0.778, 1.133e-4
-0.779, 1.140e-4
-0.780, 1.145e-4
-0.781, 1.152e-4
-0.782, 1.159e-4
-0.783, 1.167e-4
-0.784, 1.174e-4
-0.785, 1.180e-4
-0.786, 1.187e-4
-0.787, 1.195e-4
-0.788, 1.203e-4
-0.789, 1.211e-4
-0.790, 1.217e-4
-0.791, 1.223e-4
-0.792, 1.232e-4
-0.793, 1.240e-4
-0.794, 1.248e-4
-0.795, 1.255e-4
-0.796, 1.262e-4
-0.797, 1.271e-4
-0.798, 1.280e-4
-0.799, 1.288e-4
-0.800, 1.295e-4
-0.801, 1.302e-4
-0.802, 1.311e-4
-0.803, 1.321e-4
-0.804, 1.329e-4
-0.805, 1.336e-4
-0.806, 1.344e-4
-0.807, 1.353e-4
-0.808, 1.364e-4
-0.809, 1.372e-4
-0.810, 1.380e-4
-0.811, 1.388e-4
-0.812, 1.398e-4
-0.813, 1.408e-4
-0.814, 1.417e-4
-0.815, 1.425e-4
-0.816, 1.434e-4
-0.817, 1.444e-4
-0.818, 1.455e-4
-0.819, 1.465e-4
-0.820, 1.475e-4
-0.821, 1.484e-4
-0.822, 1.494e-4
-0.823, 1.504e-4
-0.824, 1.514e-4
-0.825, 1.523e-4
-0.826, 1.532e-4
-0.827, 1.542e-4
-0.828, 1.553e-4
-0.829, 1.563e-4
-0.830, 1.572e-4
-0.831, 1.581e-4
-0.832, 1.592e-4
-0.833, 1.604e-4
-0.834, 1.614e-4
-0.835, 1.623e-4
-0.836, 1.632e-4
-0.837, 1.643e-4
-0.838, 1.655e-4
-0.839, 1.665e-4
-0.840, 1.674e-4
-0.841, 1.684e-4
-0.842, 1.695e-4
-0.843, 1.706e-4
-0.844, 1.716e-4
-0.845, 1.725e-4
-0.846, 1.735e-4
-0.847, 1.746e-4
-0.848, 1.758e-4
-0.849, 1.768e-4
-0.850, 1.777e-4
-0.851, 1.786e-4
-0.852, 1.797e-4
-0.853, 1.808e-4
-0.854, 1.818e-4
-0.855, 1.827e-4
-0.856, 1.836e-4
-0.857, 1.847e-4
-0.858, 1.858e-4
-0.859, 1.868e-4
-0.860, 1.876e-4
-0.861, 1.885e-4
-0.862, 1.895e-4
-0.863, 1.906e-4
-0.864, 1.915e-4
-0.865, 1.924e-4
-0.866, 1.932e-4
-0.867, 1.942e-4
-0.868, 1.952e-4
-0.869, 1.961e-4
-0.870, 1.969e-4
-0.871, 1.978e-4
-0.872, 1.987e-4
-0.873, 1.997e-4
-0.874, 2.005e-4
-0.875, 2.012e-4
-0.876, 2.019e-4
-0.877, 2.028e-4
-0.878, 2.037e-4
-0.879, 2.044e-4
-0.880, 2.051e-4
-0.881, 2.057e-4
-0.882, 2.065e-4
-0.883, 2.074e-4
-0.884, 2.080e-4
-0.885, 2.086e-4
-0.886, 2.092e-4
-0.887, 2.099e-4
-0.888, 2.106e-4
-0.889, 2.113e-4
-0.890, 2.117e-4
-0.891, 2.122e-4
-0.892, 2.128e-4
-0.893, 2.135e-4
-0.894, 2.140e-4
-0.895, 2.143e-4
-0.896, 2.147e-4
-0.897, 2.152e-4
-0.898, 2.158e-4
-0.899, 2.162e-4
-0.900, 2.164e-4
-0.901, 2.167e-4
-0.902, 2.171e-4
-0.903, 2.176e-4
-0.904, 2.179e-4
-0.905, 2.180e-4
-0.906, 2.182e-4
-0.907, 2.185e-4
-0.908, 2.188e-4
-0.909, 2.191e-4
-0.910, 2.192e-4
-0.911, 2.193e-4
-0.912, 2.195e-4
-0.913, 2.197e-4
-0.914, 2.197e-4
-0.915, 2.196e-4
-0.916, 2.196e-4
-0.917, 2.197e-4
-0.918, 2.198e-4
-0.919, 2.198e-4
-0.920, 2.196e-4
-0.921, 2.194e-4
-0.922, 2.194e-4
-0.923, 2.194e-4
-0.924, 2.193e-4
-0.925, 2.190e-4
-0.926, 2.189e-4
-0.927, 2.188e-4
-0.928, 2.187e-4
-0.929, 2.185e-4
-0.930, 2.181e-4
-0.931, 2.178e-4
-0.932, 2.176e-4
-0.933, 2.175e-4
-0.934, 2.173e-4
-0.935, 2.169e-4
-0.936, 2.166e-4
-0.937, 2.163e-4
-0.938, 2.162e-4
-0.939, 2.159e-4
-0.940, 2.155e-4
-0.941, 2.151e-4
-0.942, 2.149e-4
-0.943, 2.147e-4
-0.944, 2.144e-4
-0.945, 2.140e-4
-0.946, 2.136e-4
-0.947, 2.134e-4
-0.948, 2.132e-4
-0.949, 2.129e-4
-0.950, 2.125e-4
-0.951, 2.121e-4
-0.952, 2.119e-4
-0.953, 2.117e-4
-0.954, 2.114e-4
-0.955, 2.110e-4
-0.956, 2.106e-4
-0.957, 2.104e-4
-0.958, 2.102e-4
-0.959, 2.099e-4
-0.960, 2.095e-4
-0.961, 2.092e-4
-0.962, 2.090e-4
-0.963, 2.088e-4
-0.964, 2.085e-4
-0.965, 2.082e-4
-0.966, 2.079e-4
-0.967, 2.077e-4
-0.968, 2.076e-4
-0.969, 2.074e-4
-0.970, 2.071e-4
-0.971, 2.068e-4
-0.972, 2.068e-4
-0.973, 2.068e-4
-0.974, 2.066e-4
-0.975, 2.063e-4
-0.976, 2.060e-4
-0.977, 2.059e-4
-0.978, 2.058e-4
-0.979, 2.057e-4
-0.980, 2.054e-4
-0.981, 2.051e-4
-0.982, 2.050e-4
-0.983, 2.050e-4
-0.984, 2.049e-4
-0.985, 2.046e-4
-0.986, 2.044e-4
-0.987, 2.044e-4
-0.988, 2.044e-4
-0.989, 2.043e-4
-0.990, 2.041e-4
-0.991, 2.038e-4
-0.992, 2.038e-4
-0.993, 2.038e-4
-0.994, 2.036e-4
-0.995, 2.033e-4
-0.996, 2.031e-4
-0.997, 2.030e-4
-0.998, 2.030e-4
-0.999, 2.029e-4
-1.000, 2.027e-4
-1.001, 2.025e-4
-1.002, 2.024e-4
-1.003, 2.023e-4
-1.004, 2.021e-4
-1.005, 2.019e-4
-1.006, 2.017e-4
-1.007, 2.016e-4
-1.008, 2.016e-4
-1.009, 2.014e-4
-1.010, 2.011e-4
-1.011, 2.009e-4
-1.012, 2.008e-4
-1.013, 2.008e-4
-1.014, 2.007e-4
-1.015, 2.004e-4
-1.016, 2.002e-4
-1.017, 2.001e-4
-1.018, 2.000e-4
-1.019, 1.999e-4
-1.020, 1.996e-4
-1.021, 1.994e-4
-1.022, 1.993e-4
-1.023, 1.993e-4
-1.024, 1.992e-4
-1.025, 1.989e-4
-1.026, 1.987e-4
-1.027, 1.986e-4
-1.028, 1.985e-4
-1.029, 1.984e-4
-1.030, 1.981e-4
-1.031, 1.979e-4
-1.032, 1.978e-4
-1.033, 1.978e-4
-1.034, 1.976e-4
-1.035, 1.974e-4
-1.036, 1.971e-4
-1.037, 1.971e-4
-1.038, 1.971e-4
-1.039, 1.969e-4
-1.040, 1.967e-4
-1.041, 1.964e-4
-1.042, 1.964e-4
-1.043, 1.964e-4
-1.044, 1.962e-4
-1.045, 1.960e-4
-1.046, 1.958e-4
-1.047, 1.957e-4
-1.048, 1.957e-4
-1.049, 1.956e-4
-1.050, 1.953e-4
-1.051, 1.952e-4
-1.052, 1.952e-4
-1.053, 1.952e-4
-1.054, 1.950e-4
-1.055, 1.948e-4
-1.056, 1.946e-4
-1.057, 1.946e-4
-1.058, 1.947e-4
-1.059, 1.946e-4
-1.060, 1.943e-4
-1.061, 1.945e-4
-1.062, 1.946e-4
-1.063, 1.945e-4
-1.064, 1.943e-4
-1.065, 1.941e-4
-1.066, 1.939e-4
-1.067, 1.939e-4
-1.068, 1.939e-4
-1.069, 1.938e-4
-1.070, 1.936e-4
-1.071, 1.935e-4
-1.072, 1.935e-4
-1.073, 1.936e-4
-1.074, 1.935e-4
-1.075, 1.933e-4
-1.076, 1.932e-4
-1.077, 1.933e-4
-1.078, 1.933e-4
-1.079, 1.933e-4
-1.080, 1.931e-4
-1.081, 1.930e-4
-1.082, 1.930e-4
-1.083, 1.931e-4
-1.084, 1.930e-4
-1.085, 1.929e-4
-1.086, 1.928e-4
-1.087, 1.929e-4
-1.088, 1.930e-4
-1.089, 1.930e-4
-1.090, 1.929e-4
-1.091, 1.929e-4
-1.092, 1.929e-4
-1.093, 1.930e-4
-1.094, 1.930e-4
-1.095, 1.929e-4
-1.096, 1.929e-4
-1.097, 1.929e-4
-1.098, 1.931e-4
-1.099, 1.931e-4
-1.100, 1.930e-4
-1.101, 1.930e-4
-1.102, 1.931e-4
-1.103, 1.933e-4
-1.104, 1.933e-4
-1.105, 1.932e-4
-1.106, 1.932e-4
-1.107, 1.934e-4
-1.108, 1.936e-4
-1.109, 1.937e-4
-1.110, 1.937e-4
-1.111, 1.937e-4
-1.112, 1.939e-4
-1.113, 1.940e-4
-1.114, 1.941e-4
-1.115, 1.940e-4
-1.116, 1.941e-4
-1.117, 1.943e-4
-1.118, 1.945e-4
-1.119, 1.946e-4
-1.120, 1.946e-4
-1.121, 1.947e-4
-1.122, 1.949e-4
-1.123, 1.951e-4
-1.124, 1.953e-4
-1.125, 1.953e-4
-1.126, 1.954e-4
-1.127, 1.956e-4
-1.128, 1.959e-4
-1.129, 1.961e-4
-1.130, 1.961e-4
-1.131, 1.963e-4
-1.132, 1.965e-4
-1.133, 1.967e-4
-1.134, 1.968e-4
-1.135, 1.969e-4
-1.136, 1.970e-4
-1.137, 1.973e-4
-1.138, 1.976e-4
-1.139, 1.978e-4
-1.140, 1.979e-4
-1.141, 1.981e-4
-1.142, 1.984e-4
-1.143, 1.987e-4
-1.144, 1.989e-4
-1.145, 1.991e-4
-1.146, 1.993e-4
-1.147, 1.996e-4
-1.148, 1.999e-4
-1.149, 2.002e-4
-1.150, 2.003e-4
-1.151, 2.006e-4
-1.152, 2.010e-4
-1.153, 2.014e-4
-1.154, 2.018e-4
-1.155, 2.020e-4
-1.156, 2.022e-4
-1.157, 2.026e-4
-1.158, 2.031e-4
-1.159, 2.033e-4
-1.160, 2.034e-4
-1.161, 2.036e-4
-1.162, 2.040e-4
-1.163, 2.044e-4
-1.164, 2.047e-4
-1.165, 2.049e-4
-1.166, 2.051e-4
-1.167, 2.056e-4
-1.168, 2.061e-4
-1.169, 2.064e-4
-1.170, 2.066e-4
-1.171, 2.069e-4
-1.172, 2.074e-4
-1.173, 2.079e-4
-1.174, 2.083e-4
-1.175, 2.086e-4
-1.176, 2.090e-4
-1.177, 2.095e-4
-1.178, 2.101e-4
-1.179, 2.105e-4
-1.180, 2.109e-4
-1.181, 2.113e-4
-1.182, 2.118e-4
-1.183, 2.124e-4
-1.184, 2.129e-4
-1.185, 2.133e-4
-1.186, 2.137e-4
-1.187, 2.144e-4
-1.188, 2.150e-4
-1.189, 2.155e-4
-1.190, 2.160e-4
-1.191, 2.166e-4
-1.192, 2.172e-4
-1.193, 2.179e-4
-1.194, 2.185e-4
-1.195, 2.190e-4
-1.196, 2.196e-4
-1.197, 2.204e-4
-1.198, 2.212e-4
-1.199, 2.218e-4
-1.200, 2.224e-4
-1.201, 2.231e-4
-1.202, 2.239e-4
-1.203, 2.248e-4
-1.204, 2.255e-4
-1.205, 2.262e-4
-1.206, 2.269e-4
-1.207, 2.278e-4
-1.208, 2.287e-4
-1.209, 2.295e-4
-1.210, 2.303e-4
-1.211, 2.311e-4
-1.212, 2.321e-4
-1.213, 2.331e-4
-1.214, 2.340e-4
-1.215, 2.348e-4
-1.216, 2.358e-4
-1.217, 2.368e-4
-1.218, 2.379e-4
-1.219, 2.390e-4
-1.220, 2.399e-4
-1.221, 2.409e-4
-1.222, 2.421e-4
-1.223, 2.433e-4
-1.224, 2.445e-4
-1.225, 2.455e-4
-1.226, 2.467e-4
-1.227, 2.480e-4
-1.228, 2.493e-4
-1.229, 2.507e-4
-1.230, 2.520e-4
-1.231, 2.532e-4
-1.232, 2.546e-4
-1.233, 2.561e-4
-1.234, 2.574e-4
-1.235, 2.587e-4
-1.236, 2.601e-4
-1.237, 2.617e-4
-1.238, 2.633e-4
-1.239, 2.648e-4
-1.240, 2.663e-4
-1.241, 2.678e-4
-1.242, 2.696e-4
-1.243, 2.713e-4
-1.244, 2.730e-4
-1.245, 2.746e-4
-1.246, 2.763e-4
-1.247, 2.782e-4
-1.248, 2.801e-4
-1.249, 2.819e-4
-1.250, 2.837e-4
-1.251, 2.856e-4
-1.252, 2.876e-4
-1.253, 2.897e-4
-1.254, 2.917e-4
-1.255, 2.936e-4
-1.256, 2.957e-4
-1.257, 2.978e-4
-1.258, 3.000e-4
-1.259, 3.022e-4
-1.260, 3.042e-4
-1.261, 3.064e-4
-1.262, 3.088e-4
-1.263, 3.112e-4
-1.264, 3.135e-4
-1.265, 3.157e-4
-1.266, 3.181e-4
-1.267, 3.206e-4
-1.268, 3.232e-4
-1.269, 3.256e-4
-1.270, 3.281e-4
-1.271, 3.305e-4
-1.272, 3.332e-4
-1.273, 3.360e-4
-1.274, 3.386e-4
-1.275, 3.412e-4
-1.276, 3.438e-4
-1.277, 3.467e-4
-1.278, 3.496e-4
-1.279, 3.524e-4
-1.280, 3.552e-4
-1.281, 3.581e-4
-1.282, 3.611e-4
-1.283, 3.642e-4
-1.284, 3.671e-4
-1.285, 3.700e-4
-1.286, 3.731e-4
-1.287, 3.762e-4
-1.288, 3.795e-4
-1.289, 3.826e-4
-1.290, 3.857e-4
-1.291, 3.889e-4
-1.292, 3.923e-4
-1.293, 3.957e-4
-1.294, 3.990e-4
-1.295, 4.022e-4
-1.296, 4.056e-4
-1.297, 4.092e-4
-1.298, 4.127e-4
-1.299, 4.162e-4
-1.300, 4.196e-4
-1.301, 4.232e-4
-1.302, 4.269e-4
-1.303, 4.307e-4
-1.304, 4.343e-4
-1.305, 4.380e-4
-1.306, 4.417e-4
-1.307, 4.456e-4
-1.308, 4.495e-4
-1.309, 4.533e-4
-1.310, 4.571e-4
-1.311, 4.610e-4
-1.312, 4.651e-4
-1.313, 4.692e-4
-1.314, 4.732e-4
-1.315, 4.772e-4
-1.316, 4.813e-4
-1.317, 4.855e-4
-1.318, 4.898e-4
-1.319, 4.940e-4
-1.320, 4.981e-4
-1.321, 5.024e-4
-1.322, 5.068e-4
-1.323, 5.113e-4
-1.324, 5.157e-4
-1.325, 5.200e-4
-1.326, 5.244e-4
-1.327, 5.290e-4
-1.328, 5.336e-4
-1.329, 5.381e-4
-1.330, 5.426e-4
-1.331, 5.473e-4
-1.332, 5.520e-4
-1.333, 5.568e-4
-1.334, 5.615e-4
-1.335, 5.661e-4
-1.336, 5.709e-4
-1.337, 5.758e-4
-1.338, 5.807e-4
-1.339, 5.856e-4
-1.340, 5.904e-4
-1.341, 5.954e-4
-1.342, 6.005e-4
-1.343, 6.056e-4
-1.344, 6.106e-4
-1.345, 6.156e-4
-1.346, 6.207e-4
-1.347, 6.260e-4
-1.348, 6.312e-4
-1.349, 6.364e-4
-1.350, 6.415e-4
-1.351, 6.468e-4
-1.352, 6.522e-4
-1.353, 6.577e-4
-1.354, 6.630e-4
-1.355, 6.683e-4
-1.356, 6.737e-4
-1.357, 6.792e-4
-1.358, 6.848e-4
-1.359, 6.903e-4
-1.360, 6.958e-4
-1.361, 7.014e-4
-1.362, 7.071e-4
-1.363, 7.129e-4
-1.364, 7.185e-4
-1.365, 7.240e-4
-1.366, 7.298e-4
-1.367, 7.356e-4
-1.368, 7.416e-4
-1.369, 7.474e-4
-1.370, 7.531e-4
-1.371, 7.590e-4
-1.372, 7.650e-4
-1.373, 7.711e-4
-1.374, 7.770e-4
-1.375, 7.829e-4
-1.376, 7.889e-4
-1.377, 7.951e-4
-1.378, 8.013e-4
-1.379, 8.074e-4
-1.380, 8.134e-4
-1.381, 8.195e-4
-1.382, 8.259e-4
-1.383, 8.323e-4
-1.384, 8.385e-4
-1.385, 8.447e-4
-1.386, 8.510e-4
-1.387, 8.575e-4
-1.388, 8.639e-4
-1.389, 8.703e-4
-1.390, 8.767e-4
-1.391, 8.831e-4
-1.392, 8.898e-4
-1.393, 8.964e-4
-1.394, 9.029e-4
-1.395, 9.093e-4
-1.396, 9.159e-4
-1.397, 9.227e-4
-1.398, 9.295e-4
-1.399, 9.361e-4
-1.400, 9.427e-4
-1.401, 9.494e-4
-1.402, 9.564e-4
-1.403, 9.633e-4
-1.404, 9.701e-4
-1.405, 9.768e-4
-1.406, 9.835e-4
-1.407, 9.905e-4
-1.408, 9.975e-4
-1.409, 1.004e-3
-1.410, 1.010e-3
-1.411, 1.011e-3
-1.412, 1.011e-3
-1.413, 1.011e-3
-1.414, 1.011e-3
-1.415, 1.011e-3
-1.416, 1.011e-3
-1.417, 1.011e-3
-1.418, 1.011e-3
-1.419, 1.011e-3
-1.420, 1.011e-3
-1.421, 1.011e-3
-1.422, 1.011e-3
-1.423, 1.011e-3
-1.424, 1.011e-3
-1.425, 1.011e-3
-1.426, 1.011e-3
-1.427, 1.011e-3
-1.428, 1.011e-3
-1.429, 1.011e-3
-1.430, 1.011e-3
-1.431, 1.011e-3
-1.432, 1.011e-3
-1.433, 1.011e-3
-1.434, 1.011e-3
-1.435, 1.011e-3
-1.436, 1.011e-3
-1.437, 1.011e-3
-1.438, 1.011e-3
-1.439, 1.011e-3
-1.440, 1.011e-3
-1.441, 1.011e-3
-1.442, 1.011e-3
-1.443, 1.011e-3
-1.444, 1.011e-3
-1.445, 1.011e-3
-1.446, 1.011e-3
-1.447, 1.011e-3
-1.448, 1.011e-3
-1.449, 1.011e-3
-1.450, 1.011e-3
-1.451, 1.011e-3
-1.452, 1.011e-3
-1.453, 1.011e-3
-1.454, 1.011e-3
-1.455, 1.011e-3
-1.456, 1.011e-3
-1.457, 1.011e-3
-1.458, 1.011e-3
-1.459, 1.011e-3
-1.460, 1.011e-3
-1.461, 1.011e-3
-1.462, 1.011e-3
-1.463, 1.011e-3
-1.464, 1.011e-3
-1.465, 1.011e-3
-1.466, 1.011e-3
-1.467, 1.011e-3
-1.468, 1.011e-3
-1.469, 1.011e-3
-1.470, 1.011e-3
-1.471, 1.011e-3
-1.472, 1.011e-3
-1.473, 1.011e-3
-1.474, 1.011e-3
-1.475, 1.011e-3
-1.476, 1.011e-3
-1.477, 1.011e-3
-1.478, 1.011e-3
-1.479, 1.011e-3
-1.480, 1.011e-3
-1.481, 1.011e-3
-1.482, 1.011e-3
-1.483, 1.011e-3
-1.484, 1.011e-3
-1.485, 1.011e-3
-1.486, 1.011e-3
-1.487, 1.011e-3
-1.488, 1.011e-3
-1.489, 1.011e-3
-1.490, 1.011e-3
-1.491, 1.011e-3
-1.492, 1.011e-3
-1.493, 1.011e-3
-1.494, 1.011e-3
-1.495, 1.011e-3
-1.496, 1.011e-3
-1.497, 1.011e-3
-1.498, 1.011e-3
-1.499, 1.011e-3
-1.500, 1.011e-3
-1.501, 1.011e-3
-1.502, 1.011e-3
-1.503, 1.011e-3
-1.504, 1.011e-3
-1.505, 1.011e-3
-1.506, 1.011e-3
-1.507, 1.011e-3
-1.508, 1.011e-3
-1.509, 1.011e-3
-1.510, 1.011e-3
-1.511, 1.011e-3
-1.512, 1.011e-3
-1.513, 1.011e-3
-1.514, 1.011e-3
-1.515, 1.011e-3
-1.516, 1.011e-3
-1.517, 1.011e-3
-1.518, 1.011e-3
-1.519, 1.011e-3
-1.520, 1.011e-3
-1.521, 1.011e-3
-1.522, 1.011e-3
-1.523, 1.011e-3
-1.524, 1.011e-3
-1.525, 1.011e-3
-1.526, 1.011e-3
-1.527, 1.011e-3
-1.528, 1.011e-3
-1.529, 1.011e-3
-1.530, 1.011e-3
-1.531, 1.011e-3
-1.532, 1.011e-3
-1.533, 1.011e-3
-1.534, 1.011e-3
-1.535, 1.011e-3
-1.536, 1.011e-3
-1.537, 1.011e-3
-1.538, 1.011e-3
-1.539, 1.011e-3
-1.540, 1.011e-3
-1.541, 1.011e-3
-1.542, 1.011e-3
-1.543, 1.011e-3
-1.544, 1.011e-3
-1.545, 1.011e-3
-1.546, 1.011e-3
-1.547, 1.011e-3
-1.548, 1.011e-3
-1.549, 1.011e-3
-1.550, 1.011e-3
-1.551, 1.011e-3
-1.552, 1.011e-3
-1.553, 1.011e-3
-1.554, 1.011e-3
-1.555, 1.011e-3
-1.556, 1.011e-3
-1.557, 1.011e-3
-1.558, 1.011e-3
-1.559, 1.011e-3
-1.560, 1.011e-3
-1.561, 1.011e-3
-1.562, 1.011e-3
-1.563, 1.011e-3
-1.564, 1.011e-3
-1.565, 1.011e-3
-1.566, 1.011e-3
-1.567, 1.011e-3
-1.568, 1.011e-3
-1.569, 1.011e-3
-1.570, 1.011e-3
-1.571, 1.011e-3
-1.572, 1.011e-3
-1.573, 1.011e-3
-1.574, 1.011e-3
-1.575, 1.011e-3
-1.576, 1.011e-3
-1.577, 1.011e-3
-1.578, 1.011e-3
-1.579, 1.011e-3
-1.580, 1.011e-3
-1.581, 1.011e-3
-1.582, 1.011e-3
-1.583, 1.011e-3
-1.584, 1.011e-3
-1.585, 1.011e-3
-1.586, 1.011e-3
-1.587, 1.011e-3
-1.588, 1.011e-3
-1.589, 1.011e-3
-1.590, 1.011e-3
-1.591, 1.011e-3
-1.592, 1.011e-3
-1.593, 1.011e-3
-1.594, 1.011e-3
-1.595, 1.011e-3
-1.596, 1.011e-3
-1.597, 1.011e-3
-1.598, 1.011e-3
-1.599, 1.011e-3
-1.600, 1.011e-3
-1.601, 1.011e-3
-1.602, 1.011e-3
-1.603, 1.011e-3
-1.604, 1.011e-3
-1.605, 1.011e-3
-1.606, 1.011e-3
-1.607, 1.011e-3
-1.608, 1.011e-3
-1.609, 1.011e-3
-1.610, 1.011e-3
-1.611, 1.011e-3
-1.612, 1.011e-3
-1.613, 1.011e-3
-1.614, 1.011e-3
-1.615, 1.011e-3
-1.616, 1.011e-3
-1.617, 1.011e-3
-1.618, 1.011e-3
-1.619, 1.011e-3
-1.620, 1.011e-3
-1.621, 1.011e-3
-1.622, 1.011e-3
-1.623, 1.011e-3
-1.624, 1.011e-3
-1.625, 1.011e-3
-1.626, 1.011e-3
-1.627, 1.011e-3
-1.628, 1.011e-3
-1.629, 1.011e-3
-1.630, 1.011e-3
-1.631, 1.011e-3
-1.632, 1.011e-3
-1.633, 1.011e-3
-1.634, 1.011e-3
-1.635, 1.011e-3
-1.636, 1.011e-3
-1.637, 1.011e-3
-1.638, 1.011e-3
-1.639, 1.011e-3
-1.640, 1.011e-3
-1.641, 1.011e-3
-1.642, 1.011e-3
-1.643, 1.011e-3
-1.644, 1.011e-3
-1.645, 1.011e-3
-1.646, 1.011e-3
-1.647, 1.011e-3
-1.648, 1.011e-3
-1.649, 1.011e-3
-1.650, 1.011e-3
-1.651, 1.011e-3
-1.652, 1.011e-3
-1.653, 1.011e-3
-1.654, 1.011e-3
-1.655, 1.011e-3
-1.656, 1.011e-3
-1.657, 1.011e-3
-1.658, 1.011e-3
-1.659, 1.011e-3
-1.660, 1.011e-3
-1.661, 1.011e-3
-1.662, 1.011e-3
-1.663, 1.011e-3
-1.664, 1.011e-3
-1.665, 1.011e-3
-1.666, 1.011e-3
-1.667, 1.011e-3
-1.668, 1.011e-3
-1.669, 1.011e-3
-1.670, 1.011e-3
-1.671, 1.011e-3
-1.672, 1.011e-3
-1.673, 1.011e-3
-1.674, 1.011e-3
-1.675, 1.011e-3
-1.676, 1.011e-3
-1.677, 1.011e-3
-1.678, 1.011e-3
-1.679, 1.011e-3
-1.680, 1.011e-3
-1.681, 1.011e-3
-1.682, 1.011e-3
-1.683, 1.011e-3
-1.684, 1.011e-3
-1.685, 1.011e-3
-1.686, 1.011e-3
-1.687, 1.011e-3
-1.688, 1.011e-3
-1.689, 1.011e-3
-1.690, 1.011e-3
-1.691, 1.011e-3
-1.692, 1.011e-3
-1.693, 1.011e-3
-1.694, 1.011e-3
-1.695, 1.011e-3
-1.696, 1.011e-3
-1.697, 1.011e-3
-1.698, 1.011e-3
-1.699, 1.011e-3
-1.700, 1.011e-3
-1.701, 1.011e-3
-1.702, 1.011e-3
-1.703, 1.011e-3
-1.704, 1.011e-3
-1.705, 1.011e-3
-1.706, 1.011e-3
-1.707, 1.011e-3
-1.708, 1.011e-3
-1.709, 1.011e-3
-1.710, 1.011e-3
-1.711, 1.011e-3
-1.712, 1.011e-3
-1.713, 1.011e-3
-1.714, 1.011e-3
-1.715, 1.011e-3
-1.716, 1.011e-3
-1.717, 1.011e-3
-1.718, 1.011e-3
-1.719, 1.011e-3
-1.720, 1.011e-3
-1.721, 1.011e-3
-1.722, 1.011e-3
-1.723, 1.011e-3
-1.724, 1.011e-3
-1.725, 1.011e-3
-1.726, 1.011e-3
-1.727, 1.011e-3
-1.728, 1.011e-3
-1.729, 1.011e-3
-1.730, 1.011e-3
-1.731, 1.011e-3
-1.732, 1.011e-3
-1.733, 1.011e-3
-1.734, 1.011e-3
-1.735, 1.011e-3
-1.736, 1.011e-3
-1.737, 1.011e-3
-1.738, 1.011e-3
-1.739, 1.011e-3
-1.740, 1.011e-3
-1.741, 1.011e-3
-1.742, 1.011e-3
-1.743, 1.011e-3
-1.744, 1.011e-3
-1.745, 1.011e-3
-1.746, 1.011e-3
-1.747, 1.011e-3
-1.748, 1.011e-3
-1.749, 1.011e-3
-1.750, 1.011e-3
-1.751, 1.011e-3
-1.752, 1.011e-3
-1.753, 1.011e-3
-1.754, 1.011e-3
-1.755, 1.011e-3
-1.756, 1.011e-3
-1.757, 1.011e-3
-1.758, 1.011e-3
-1.759, 1.011e-3
-1.760, 1.011e-3
-1.761, 1.011e-3
-1.762, 1.011e-3
-1.763, 1.011e-3
-1.764, 1.011e-3
-1.765, 1.011e-3
-1.766, 1.011e-3
-1.767, 1.011e-3
-1.768, 1.011e-3
-1.769, 1.011e-3
-1.770, 1.011e-3
-1.771, 1.011e-3
-1.772, 1.011e-3
-1.773, 1.011e-3
-1.774, 1.011e-3
-1.775, 1.011e-3
-1.776, 1.011e-3
-1.777, 1.011e-3
-1.778, 1.011e-3
-1.779, 1.011e-3
-1.780, 1.011e-3
-1.781, 1.011e-3
-1.782, 1.011e-3
-1.783, 1.011e-3
-1.784, 1.011e-3
-1.785, 1.011e-3
-1.786, 1.011e-3
-1.787, 1.011e-3
-1.788, 1.011e-3
-1.789, 1.011e-3
-1.790, 1.011e-3
-1.791, 1.011e-3
-1.792, 1.011e-3
-1.793, 1.011e-3
-1.794, 1.011e-3
-1.795, 1.011e-3
-1.796, 1.011e-3
-1.797, 1.011e-3
-1.798, 1.011e-3
-1.799, 1.011e-3
-1.800, 1.011e-3
-1.801, 1.011e-3
-1.802, 1.011e-3
-1.803, 1.011e-3
-1.804, 1.011e-3
-1.805, 1.011e-3
-1.806, 1.011e-3
-1.807, 1.011e-3
-1.808, 1.011e-3
-1.809, 1.011e-3
-1.810, 1.011e-3
-1.811, 1.011e-3
-1.812, 1.011e-3
-1.813, 1.011e-3
-1.814, 1.011e-3
-1.815, 1.011e-3
-1.816, 1.011e-3
-1.817, 1.011e-3
-1.818, 1.011e-3
-1.819, 1.011e-3
-1.820, 1.011e-3
-1.821, 1.011e-3
-1.822, 1.011e-3
-1.823, 1.011e-3
-1.824, 1.011e-3
-1.825, 1.011e-3
-1.826, 1.011e-3
-1.827, 1.011e-3
-1.828, 1.011e-3
-1.829, 1.011e-3
-1.830, 1.011e-3
-1.831, 1.011e-3
-1.832, 1.011e-3
-1.833, 1.011e-3
-1.834, 1.011e-3
-1.835, 1.011e-3
-1.836, 1.011e-3
-1.837, 1.011e-3
-1.838, 1.011e-3
-1.839, 1.011e-3
-1.840, 1.011e-3
-1.841, 1.011e-3
-1.842, 1.011e-3
-1.843, 1.011e-3
-1.844, 1.011e-3
-1.845, 1.011e-3
-1.846, 1.011e-3
-1.847, 1.011e-3
-1.848, 1.011e-3
-1.849, 1.011e-3
-1.850, 1.011e-3
-1.851, 1.011e-3
-1.852, 1.011e-3
-1.853, 1.011e-3
-1.854, 1.011e-3
-1.855, 1.011e-3
-1.856, 1.011e-3
-1.857, 1.011e-3
-1.858, 1.011e-3
-1.859, 1.011e-3
-1.860, 1.011e-3
-1.861, 1.011e-3
-1.862, 1.011e-3
-1.863, 1.011e-3
-1.864, 1.011e-3
-1.865, 1.011e-3
-1.866, 1.011e-3
-1.867, 1.011e-3
-1.868, 1.011e-3
-1.869, 1.011e-3
-1.870, 1.011e-3
-1.871, 1.011e-3
-1.872, 1.011e-3
-1.873, 1.011e-3
-1.874, 1.011e-3
-1.875, 1.011e-3
-1.876, 1.011e-3
-1.877, 1.011e-3
-1.878, 1.011e-3
-1.879, 1.011e-3
-1.880, 1.011e-3
-1.881, 1.011e-3
-1.882, 1.011e-3
-1.883, 1.011e-3
-1.884, 1.011e-3
-1.885, 1.011e-3
-1.886, 1.011e-3
-1.887, 1.011e-3
-1.888, 1.011e-3
-1.889, 1.011e-3
-1.890, 1.011e-3
-1.891, 1.011e-3
-1.892, 1.011e-3
-1.893, 1.011e-3
-1.894, 1.011e-3
-1.895, 1.011e-3
-1.896, 1.011e-3
-1.897, 1.011e-3
-1.898, 1.011e-3
-1.899, 1.011e-3
