Sept. 7, 2024   17:52:10
Linear Sweep Voltammetry
File: c:/users/guazh/data/20240903_batch_252_500/2024-09-03-exp290\1acid_1ac-2024-09-07t17_49_03-lsvinphos\1acid_1ac_lsv_50mvs_efin_-2100mv.bin
Data Source:  Experiment
Instrument Model:  CHI760E
Header: LSV ran at 50 mVs with Efin at -2100mV
Note: 

Init E (V) = -0.6
Final E (V) = -2.1
Scan Rate (V/s) = 0.05
Sample Interval (V) = 0.001
Quiet Time (sec) = 2
Sensitivity (A/V) = 1e-4
Comp R (ohm) = 8.1

Results:

Channel 1:
Ep = -1.886V
ip = 8.231e-4A
Ah = 1.055e-3C

Potential/V, Current/A

-0.600, 3.494e-6
-0.601, 3.618e-6
-0.602, 3.683e-6
-0.603, 3.729e-6
-0.604, 3.770e-6
-0.605, 3.810e-6
-0.606, 3.847e-6
-0.607, 3.884e-6
-0.608, 3.917e-6
-0.609, 3.953e-6
-0.610, 3.989e-6
-0.611, 4.022e-6
-0.612, 4.056e-6
-0.613, 4.090e-6
-0.614, 4.125e-6
-0.615, 4.161e-6
-0.616, 4.192e-6
-0.617, 4.226e-6
-0.618, 4.257e-6
-0.619, 4.292e-6
-0.620, 4.326e-6
-0.621, 4.360e-6
-0.622, 4.395e-6
-0.623, 4.429e-6
-0.624, 4.464e-6
-0.625, 4.500e-6
-0.626, 4.535e-6
-0.627, 4.571e-6
-0.628, 4.604e-6
-0.629, 4.638e-6
-0.630, 4.674e-6
-0.631, 4.707e-6
-0.632, 4.743e-6
-0.633, 4.779e-6
-0.634, 4.815e-6
-0.635, 4.850e-6
-0.636, 4.885e-6
-0.637, 4.920e-6
-0.638, 4.957e-6
-0.639, 4.993e-6
-0.640, 5.031e-6
-0.641, 5.067e-6
-0.642, 5.103e-6
-0.643, 5.138e-6
-0.644, 5.174e-6
-0.645, 5.212e-6
-0.646, 5.248e-6
-0.647, 5.284e-6
-0.648, 5.321e-6
-0.649, 5.358e-6
-0.650, 5.395e-6
-0.651, 5.431e-6
-0.652, 5.470e-6
-0.653, 5.507e-6
-0.654, 5.543e-6
-0.655, 5.578e-6
-0.656, 5.615e-6
-0.657, 5.652e-6
-0.658, 5.687e-6
-0.659, 5.725e-6
-0.660, 5.763e-6
-0.661, 5.799e-6
-0.662, 5.838e-6
-0.663, 5.872e-6
-0.664, 5.907e-6
-0.665, 5.942e-6
-0.666, 5.981e-6
-0.667, 6.017e-6
-0.668, 6.053e-6
-0.669, 6.091e-6
-0.670, 6.129e-6
-0.671, 6.162e-6
-0.672, 6.198e-6
-0.673, 6.232e-6
-0.674, 6.268e-6
-0.675, 6.304e-6
-0.676, 6.339e-6
-0.677, 6.375e-6
-0.678, 6.410e-6
-0.679, 6.446e-6
-0.680, 6.481e-6
-0.681, 6.514e-6
-0.682, 6.549e-6
-0.683, 6.586e-6
-0.684, 6.620e-6
-0.685, 6.657e-6
-0.686, 6.690e-6
-0.687, 6.723e-6
-0.688, 6.755e-6
-0.689, 6.790e-6
-0.690, 6.822e-6
-0.691, 6.856e-6
-0.692, 6.889e-6
-0.693, 6.920e-6
-0.694, 6.953e-6
-0.695, 6.984e-6
-0.696, 7.015e-6
-0.697, 7.047e-6
-0.698, 7.082e-6
-0.699, 7.115e-6
-0.700, 7.145e-6
-0.701, 7.175e-6
-0.702, 7.206e-6
-0.703, 7.232e-6
-0.704, 7.261e-6
-0.705, 7.288e-6
-0.706, 7.314e-6
-0.707, 7.341e-6
-0.708, 7.367e-6
-0.709, 7.395e-6
-0.710, 7.420e-6
-0.711, 7.447e-6
-0.712, 7.476e-6
-0.713, 7.504e-6
-0.714, 7.526e-6
-0.715, 7.550e-6
-0.716, 7.573e-6
-0.717, 7.598e-6
-0.718, 7.620e-6
-0.719, 7.644e-6
-0.720, 7.666e-6
-0.721, 7.689e-6
-0.722, 7.712e-6
-0.723, 7.733e-6
-0.724, 7.755e-6
-0.725, 7.776e-6
-0.726, 7.801e-6
-0.727, 7.822e-6
-0.728, 7.845e-6
-0.729, 7.863e-6
-0.730, 7.880e-6
-0.731, 7.896e-6
-0.732, 7.912e-6
-0.733, 7.926e-6
-0.734, 7.943e-6
-0.735, 7.958e-6
-0.736, 7.973e-6
-0.737, 7.989e-6
-0.738, 8.002e-6
-0.739, 8.015e-6
-0.740, 8.026e-6
-0.741, 8.039e-6
-0.742, 8.052e-6
-0.743, 8.063e-6
-0.744, 8.075e-6
-0.745, 8.086e-6
-0.746, 8.095e-6
-0.747, 8.107e-6
-0.748, 8.115e-6
-0.749, 8.124e-6
-0.750, 8.132e-6
-0.751, 8.138e-6
-0.752, 8.148e-6
-0.753, 8.155e-6
-0.754, 8.162e-6
-0.755, 8.170e-6
-0.756, 8.175e-6
-0.757, 8.182e-6
-0.758, 8.186e-6
-0.759, 8.191e-6
-0.760, 8.195e-6
-0.761, 8.198e-6
-0.762, 8.203e-6
-0.763, 8.205e-6
-0.764, 8.208e-6
-0.765, 8.209e-6
-0.766, 8.212e-6
-0.767, 8.212e-6
-0.768, 8.215e-6
-0.769, 8.216e-6
-0.770, 8.214e-6
-0.771, 8.214e-6
-0.772, 8.213e-6
-0.773, 8.211e-6
-0.774, 8.210e-6
-0.775, 8.207e-6
-0.776, 8.204e-6
-0.777, 8.202e-6
-0.778, 8.196e-6
-0.779, 8.194e-6
-0.780, 8.189e-6
-0.781, 8.186e-6
-0.782, 8.181e-6
-0.783, 8.176e-6
-0.784, 8.173e-6
-0.785, 8.168e-6
-0.786, 8.158e-6
-0.787, 8.155e-6
-0.788, 8.149e-6
-0.789, 8.143e-6
-0.790, 8.136e-6
-0.791, 8.130e-6
-0.792, 8.126e-6
-0.793, 8.120e-6
-0.794, 8.114e-6
-0.795, 8.105e-6
-0.796, 8.096e-6
-0.797, 8.088e-6
-0.798, 8.081e-6
-0.799, 8.072e-6
-0.800, 8.064e-6
-0.801, 8.056e-6
-0.802, 8.048e-6
-0.803, 8.039e-6
-0.804, 8.031e-6
-0.805, 8.021e-6
-0.806, 8.013e-6
-0.807, 8.003e-6
-0.808, 7.992e-6
-0.809, 7.984e-6
-0.810, 7.975e-6
-0.811, 7.965e-6
-0.812, 7.955e-6
-0.813, 7.944e-6
-0.814, 7.936e-6
-0.815, 7.923e-6
-0.816, 7.913e-6
-0.817, 7.903e-6
-0.818, 7.892e-6
-0.819, 7.886e-6
-0.820, 7.876e-6
-0.821, 7.863e-6
-0.822, 7.852e-6
-0.823, 7.839e-6
-0.824, 7.829e-6
-0.825, 7.817e-6
-0.826, 7.807e-6
-0.827, 7.798e-6
-0.828, 7.787e-6
-0.829, 7.777e-6
-0.830, 7.766e-6
-0.831, 7.753e-6
-0.832, 7.742e-6
-0.833, 7.731e-6
-0.834, 7.720e-6
-0.835, 7.710e-6
-0.836, 7.699e-6
-0.837, 7.687e-6
-0.838, 7.677e-6
-0.839, 7.666e-6
-0.840, 7.654e-6
-0.841, 7.642e-6
-0.842, 7.630e-6
-0.843, 7.619e-6
-0.844, 7.608e-6
-0.845, 7.598e-6
-0.846, 7.588e-6
-0.847, 7.577e-6
-0.848, 7.566e-6
-0.849, 7.557e-6
-0.850, 7.543e-6
-0.851, 7.535e-6
-0.852, 7.523e-6
-0.853, 7.512e-6
-0.854, 7.503e-6
-0.855, 7.491e-6
-0.856, 7.482e-6
-0.857, 7.471e-6
-0.858, 7.462e-6
-0.859, 7.453e-6
-0.860, 7.441e-6
-0.861, 7.430e-6
-0.862, 7.421e-6
-0.863, 7.409e-6
-0.864, 7.401e-6
-0.865, 7.391e-6
-0.866, 7.381e-6
-0.867, 7.371e-6
-0.868, 7.361e-6
-0.869, 7.352e-6
-0.870, 7.344e-6
-0.871, 7.337e-6
-0.872, 7.327e-6
-0.873, 7.317e-6
-0.874, 7.309e-6
-0.875, 7.297e-6
-0.876, 7.288e-6
-0.877, 7.279e-6
-0.878, 7.270e-6
-0.879, 7.261e-6
-0.880, 7.252e-6
-0.881, 7.243e-6
-0.882, 7.233e-6
-0.883, 7.226e-6
-0.884, 7.217e-6
-0.885, 7.209e-6
-0.886, 7.201e-6
-0.887, 7.192e-6
-0.888, 7.182e-6
-0.889, 7.174e-6
-0.890, 7.165e-6
-0.891, 7.156e-6
-0.892, 7.147e-6
-0.893, 7.140e-6
-0.894, 7.133e-6
-0.895, 7.124e-6
-0.896, 7.117e-6
-0.897, 7.110e-6
-0.898, 7.101e-6
-0.899, 7.094e-6
-0.900, 7.085e-6
-0.901, 7.078e-6
-0.902, 7.070e-6
-0.903, 7.063e-6
-0.904, 7.057e-6
-0.905, 7.049e-6
-0.906, 7.041e-6
-0.907, 7.035e-6
-0.908, 7.027e-6
-0.909, 7.022e-6
-0.910, 7.015e-6
-0.911, 7.009e-6
-0.912, 7.001e-6
-0.913, 6.996e-6
-0.914, 6.991e-6
-0.915, 6.984e-6
-0.916, 6.978e-6
-0.917, 6.970e-6
-0.918, 6.964e-6
-0.919, 6.958e-6
-0.920, 6.952e-6
-0.921, 6.947e-6
-0.922, 6.942e-6
-0.923, 6.936e-6
-0.924, 6.931e-6
-0.925, 6.924e-6
-0.926, 6.919e-6
-0.927, 6.911e-6
-0.928, 6.906e-6
-0.929, 6.903e-6
-0.930, 6.899e-6
-0.931, 6.893e-6
-0.932, 6.888e-6
-0.933, 6.881e-6
-0.934, 6.878e-6
-0.935, 6.873e-6
-0.936, 6.866e-6
-0.937, 6.862e-6
-0.938, 6.859e-6
-0.939, 6.854e-6
-0.940, 6.849e-6
-0.941, 6.845e-6
-0.942, 6.842e-6
-0.943, 6.839e-6
-0.944, 6.838e-6
-0.945, 6.832e-6
-0.946, 6.828e-6
-0.947, 6.825e-6
-0.948, 6.818e-6
-0.949, 6.811e-6
-0.950, 6.805e-6
-0.951, 6.801e-6
-0.952, 6.797e-6
-0.953, 6.793e-6
-0.954, 6.790e-6
-0.955, 6.785e-6
-0.956, 6.782e-6
-0.957, 6.779e-6
-0.958, 6.775e-6
-0.959, 6.770e-6
-0.960, 6.766e-6
-0.961, 6.763e-6
-0.962, 6.757e-6
-0.963, 6.755e-6
-0.964, 6.752e-6
-0.965, 6.748e-6
-0.966, 6.745e-6
-0.967, 6.742e-6
-0.968, 6.740e-6
-0.969, 6.739e-6
-0.970, 6.734e-6
-0.971, 6.731e-6
-0.972, 6.729e-6
-0.973, 6.728e-6
-0.974, 6.725e-6
-0.975, 6.718e-6
-0.976, 6.716e-6
-0.977, 6.713e-6
-0.978, 6.709e-6
-0.979, 6.706e-6
-0.980, 6.703e-6
-0.981, 6.701e-6
-0.982, 6.697e-6
-0.983, 6.697e-6
-0.984, 6.694e-6
-0.985, 6.691e-6
-0.986, 6.689e-6
-0.987, 6.689e-6
-0.988, 6.687e-6
-0.989, 6.685e-6
-0.990, 6.682e-6
-0.991, 6.680e-6
-0.992, 6.680e-6
-0.993, 6.678e-6
-0.994, 6.674e-6
-0.995, 6.671e-6
-0.996, 6.670e-6
-0.997, 6.667e-6
-0.998, 6.666e-6
-0.999, 6.664e-6
-1.000, 6.664e-6
-1.001, 6.665e-6
-1.002, 6.662e-6
-1.003, 6.661e-6
-1.004, 6.660e-6
-1.005, 6.658e-6
-1.006, 6.660e-6
-1.007, 6.658e-6
-1.008, 6.657e-6
-1.009, 6.655e-6
-1.010, 6.654e-6
-1.011, 6.654e-6
-1.012, 6.651e-6
-1.013, 6.651e-6
-1.014, 6.652e-6
-1.015, 6.649e-6
-1.016, 6.650e-6
-1.017, 6.652e-6
-1.018, 6.652e-6
-1.019, 6.652e-6
-1.020, 6.648e-6
-1.021, 6.649e-6
-1.022, 6.649e-6
-1.023, 6.649e-6
-1.024, 6.651e-6
-1.025, 6.654e-6
-1.026, 6.680e-6
-1.027, 6.733e-6
-1.028, 6.732e-6
-1.029, 6.722e-6
-1.030, 6.720e-6
-1.031, 6.719e-6
-1.032, 6.719e-6
-1.033, 6.722e-6
-1.034, 6.724e-6
-1.035, 6.725e-6
-1.036, 6.727e-6
-1.037, 6.730e-6
-1.038, 6.732e-6
-1.039, 6.735e-6
-1.040, 6.740e-6
-1.041, 6.744e-6
-1.042, 6.746e-6
-1.043, 6.753e-6
-1.044, 6.756e-6
-1.045, 6.759e-6
-1.046, 6.763e-6
-1.047, 6.767e-6
-1.048, 6.770e-6
-1.049, 6.775e-6
-1.050, 6.777e-6
-1.051, 6.782e-6
-1.052, 6.788e-6
-1.053, 6.793e-6
-1.054, 6.800e-6
-1.055, 6.805e-6
-1.056, 6.811e-6
-1.057, 6.814e-6
-1.058, 6.819e-6
-1.059, 6.826e-6
-1.060, 6.831e-6
-1.061, 6.838e-6
-1.062, 6.847e-6
-1.063, 6.853e-6
-1.064, 6.860e-6
-1.065, 6.868e-6
-1.066, 6.874e-6
-1.067, 6.882e-6
-1.068, 6.888e-6
-1.069, 6.893e-6
-1.070, 6.901e-6
-1.071, 6.909e-6
-1.072, 6.917e-6
-1.073, 6.926e-6
-1.074, 6.935e-6
-1.075, 6.944e-6
-1.076, 6.954e-6
-1.077, 6.962e-6
-1.078, 6.973e-6
-1.079, 6.982e-6
-1.080, 6.993e-6
-1.081, 7.004e-6
-1.082, 7.016e-6
-1.083, 7.029e-6
-1.084, 7.039e-6
-1.085, 7.046e-6
-1.086, 7.057e-6
-1.087, 7.069e-6
-1.088, 7.082e-6
-1.089, 7.096e-6
-1.090, 7.102e-6
-1.091, 7.115e-6
-1.092, 7.130e-6
-1.093, 7.144e-6
-1.094, 7.154e-6
-1.095, 7.168e-6
-1.096, 7.183e-6
-1.097, 7.195e-6
-1.098, 7.209e-6
-1.099, 7.224e-6
-1.100, 7.238e-6
-1.101, 7.254e-6
-1.102, 7.270e-6
-1.103, 7.285e-6
-1.104, 7.300e-6
-1.105, 7.317e-6
-1.106, 7.332e-6
-1.107, 7.350e-6
-1.108, 7.367e-6
-1.109, 7.383e-6
-1.110, 7.402e-6
-1.111, 7.419e-6
-1.112, 7.437e-6
-1.113, 7.456e-6
-1.114, 7.475e-6
-1.115, 7.495e-6
-1.116, 7.513e-6
-1.117, 7.532e-6
-1.118, 7.551e-6
-1.119, 7.571e-6
-1.120, 7.591e-6
-1.121, 7.611e-6
-1.122, 7.632e-6
-1.123, 7.654e-6
-1.124, 7.675e-6
-1.125, 7.698e-6
-1.126, 7.719e-6
-1.127, 7.741e-6
-1.128, 7.765e-6
-1.129, 7.786e-6
-1.130, 7.807e-6
-1.131, 7.830e-6
-1.132, 7.855e-6
-1.133, 7.878e-6
-1.134, 7.903e-6
-1.135, 7.926e-6
-1.136, 7.950e-6
-1.137, 7.975e-6
-1.138, 8.001e-6
-1.139, 8.024e-6
-1.140, 8.049e-6
-1.141, 8.073e-6
-1.142, 8.098e-6
-1.143, 8.122e-6
-1.144, 8.146e-6
-1.145, 8.174e-6
-1.146, 8.200e-6
-1.147, 8.227e-6
-1.148, 8.256e-6
-1.149, 8.281e-6
-1.150, 8.308e-6
-1.151, 8.332e-6
-1.152, 8.358e-6
-1.153, 8.384e-6
-1.154, 8.409e-6
-1.155, 8.434e-6
-1.156, 8.461e-6
-1.157, 8.488e-6
-1.158, 8.516e-6
-1.159, 8.540e-6
-1.160, 8.566e-6
-1.161, 8.592e-6
-1.162, 8.617e-6
-1.163, 8.642e-6
-1.164, 8.670e-6
-1.165, 8.698e-6
-1.166, 8.725e-6
-1.167, 8.753e-6
-1.168, 8.780e-6
-1.169, 8.806e-6
-1.170, 8.830e-6
-1.171, 8.857e-6
-1.172, 8.881e-6
-1.173, 8.908e-6
-1.174, 8.934e-6
-1.175, 8.963e-6
-1.176, 8.990e-6
-1.177, 9.017e-6
-1.178, 9.047e-6
-1.179, 9.073e-6
-1.180, 9.099e-6
-1.181, 9.126e-6
-1.182, 9.153e-6
-1.183, 9.180e-6
-1.184, 9.204e-6
-1.185, 9.234e-6
-1.186, 9.261e-6
-1.187, 9.288e-6
-1.188, 9.314e-6
-1.189, 9.340e-6
-1.190, 9.367e-6
-1.191, 9.390e-6
-1.192, 9.413e-6
-1.193, 9.441e-6
-1.194, 9.468e-6
-1.195, 9.496e-6
-1.196, 9.520e-6
-1.197, 9.547e-6
-1.198, 9.576e-6
-1.199, 9.602e-6
-1.200, 9.629e-6
-1.201, 9.653e-6
-1.202, 9.679e-6
-1.203, 9.706e-6
-1.204, 9.731e-6
-1.205, 9.755e-6
-1.206, 9.782e-6
-1.207, 9.809e-6
-1.208, 9.836e-6
-1.209, 9.859e-6
-1.210, 9.885e-6
-1.211, 9.909e-6
-1.212, 9.934e-6
-1.213, 9.960e-6
-1.214, 9.985e-6
-1.215, 1.001e-5
-1.216, 1.003e-5
-1.217, 1.006e-5
-1.218, 1.008e-5
-1.219, 1.010e-5
-1.220, 1.013e-5
-1.221, 1.015e-5
-1.222, 1.018e-5
-1.223, 1.020e-5
-1.224, 1.022e-5
-1.225, 1.025e-5
-1.226, 1.027e-5
-1.227, 1.029e-5
-1.228, 1.032e-5
-1.229, 1.035e-5
-1.230, 1.037e-5
-1.231, 1.039e-5
-1.232, 1.042e-5
-1.233, 1.044e-5
-1.234, 1.047e-5
-1.235, 1.049e-5
-1.236, 1.051e-5
-1.237, 1.054e-5
-1.238, 1.056e-5
-1.239, 1.059e-5
-1.240, 1.061e-5
-1.241, 1.064e-5
-1.242, 1.066e-5
-1.243, 1.068e-5
-1.244, 1.071e-5
-1.245, 1.073e-5
-1.246, 1.075e-5
-1.247, 1.078e-5
-1.248, 1.080e-5
-1.249, 1.083e-5
-1.250, 1.085e-5
-1.251, 1.087e-5
-1.252, 1.090e-5
-1.253, 1.092e-5
-1.254, 1.094e-5
-1.255, 1.097e-5
-1.256, 1.099e-5
-1.257, 1.101e-5
-1.258, 1.104e-5
-1.259, 1.106e-5
-1.260, 1.108e-5
-1.261, 1.110e-5
-1.262, 1.113e-5
-1.263, 1.115e-5
-1.264, 1.118e-5
-1.265, 1.120e-5
-1.266, 1.123e-5
-1.267, 1.125e-5
-1.268, 1.127e-5
-1.269, 1.130e-5
-1.270, 1.132e-5
-1.271, 1.134e-5
-1.272, 1.137e-5
-1.273, 1.139e-5
-1.274, 1.141e-5
-1.275, 1.144e-5
-1.276, 1.146e-5
-1.277, 1.149e-5
-1.278, 1.151e-5
-1.279, 1.153e-5
-1.280, 1.156e-5
-1.281, 1.158e-5
-1.282, 1.161e-5
-1.283, 1.163e-5
-1.284, 1.166e-5
-1.285, 1.168e-5
-1.286, 1.171e-5
-1.287, 1.173e-5
-1.288, 1.176e-5
-1.289, 1.178e-5
-1.290, 1.181e-5
-1.291, 1.183e-5
-1.292, 1.185e-5
-1.293, 1.188e-5
-1.294, 1.191e-5
-1.295, 1.193e-5
-1.296, 1.195e-5
-1.297, 1.198e-5
-1.298, 1.200e-5
-1.299, 1.202e-5
-1.300, 1.204e-5
-1.301, 1.206e-5
-1.302, 1.208e-5
-1.303, 1.211e-5
-1.304, 1.212e-5
-1.305, 1.215e-5
-1.306, 1.217e-5
-1.307, 1.220e-5
-1.308, 1.222e-5
-1.309, 1.224e-5
-1.310, 1.227e-5
-1.311, 1.228e-5
-1.312, 1.231e-5
-1.313, 1.233e-5
-1.314, 1.235e-5
-1.315, 1.237e-5
-1.316, 1.240e-5
-1.317, 1.242e-5
-1.318, 1.244e-5
-1.319, 1.246e-5
-1.320, 1.249e-5
-1.321, 1.251e-5
-1.322, 1.253e-5
-1.323, 1.256e-5
-1.324, 1.258e-5
-1.325, 1.260e-5
-1.326, 1.262e-5
-1.327, 1.265e-5
-1.328, 1.267e-5
-1.329, 1.269e-5
-1.330, 1.271e-5
-1.331, 1.273e-5
-1.332, 1.275e-5
-1.333, 1.277e-5
-1.334, 1.280e-5
-1.335, 1.282e-5
-1.336, 1.284e-5
-1.337, 1.286e-5
-1.338, 1.288e-5
-1.339, 1.290e-5
-1.340, 1.292e-5
-1.341, 1.294e-5
-1.342, 1.296e-5
-1.343, 1.298e-5
-1.344, 1.300e-5
-1.345, 1.302e-5
-1.346, 1.304e-5
-1.347, 1.306e-5
-1.348, 1.309e-5
-1.349, 1.310e-5
-1.350, 1.312e-5
-1.351, 1.314e-5
-1.352, 1.316e-5
-1.353, 1.318e-5
-1.354, 1.320e-5
-1.355, 1.322e-5
-1.356, 1.324e-5
-1.357, 1.326e-5
-1.358, 1.328e-5
-1.359, 1.330e-5
-1.360, 1.331e-5
-1.361, 1.333e-5
-1.362, 1.335e-5
-1.363, 1.337e-5
-1.364, 1.339e-5
-1.365, 1.341e-5
-1.366, 1.343e-5
-1.367, 1.345e-5
-1.368, 1.346e-5
-1.369, 1.348e-5
-1.370, 1.351e-5
-1.371, 1.352e-5
-1.372, 1.354e-5
-1.373, 1.356e-5
-1.374, 1.358e-5
-1.375, 1.360e-5
-1.376, 1.362e-5
-1.377, 1.364e-5
-1.378, 1.366e-5
-1.379, 1.368e-5
-1.380, 1.369e-5
-1.381, 1.371e-5
-1.382, 1.373e-5
-1.383, 1.375e-5
-1.384, 1.376e-5
-1.385, 1.378e-5
-1.386, 1.380e-5
-1.387, 1.382e-5
-1.388, 1.384e-5
-1.389, 1.385e-5
-1.390, 1.387e-5
-1.391, 1.389e-5
-1.392, 1.391e-5
-1.393, 1.393e-5
-1.394, 1.394e-5
-1.395, 1.397e-5
-1.396, 1.398e-5
-1.397, 1.400e-5
-1.398, 1.402e-5
-1.399, 1.404e-5
-1.400, 1.406e-5
-1.401, 1.408e-5
-1.402, 1.410e-5
-1.403, 1.412e-5
-1.404, 1.414e-5
-1.405, 1.415e-5
-1.406, 1.417e-5
-1.407, 1.419e-5
-1.408, 1.421e-5
-1.409, 1.423e-5
-1.410, 1.425e-5
-1.411, 1.427e-5
-1.412, 1.429e-5
-1.413, 1.431e-5
-1.414, 1.433e-5
-1.415, 1.435e-5
-1.416, 1.437e-5
-1.417, 1.439e-5
-1.418, 1.440e-5
-1.419, 1.443e-5
-1.420, 1.445e-5
-1.421, 1.447e-5
-1.422, 1.449e-5
-1.423, 1.450e-5
-1.424, 1.452e-5
-1.425, 1.454e-5
-1.426, 1.456e-5
-1.427, 1.458e-5
-1.428, 1.461e-5
-1.429, 1.463e-5
-1.430, 1.465e-5
-1.431, 1.467e-5
-1.432, 1.469e-5
-1.433, 1.471e-5
-1.434, 1.473e-5
-1.435, 1.476e-5
-1.436, 1.478e-5
-1.437, 1.480e-5
-1.438, 1.482e-5
-1.439, 1.484e-5
-1.440, 1.487e-5
-1.441, 1.489e-5
-1.442, 1.491e-5
-1.443, 1.493e-5
-1.444, 1.495e-5
-1.445, 1.497e-5
-1.446, 1.500e-5
-1.447, 1.502e-5
-1.448, 1.504e-5
-1.449, 1.507e-5
-1.450, 1.509e-5
-1.451, 1.512e-5
-1.452, 1.514e-5
-1.453, 1.517e-5
-1.454, 1.519e-5
-1.455, 1.522e-5
-1.456, 1.524e-5
-1.457, 1.527e-5
-1.458, 1.529e-5
-1.459, 1.532e-5
-1.460, 1.534e-5
-1.461, 1.537e-5
-1.462, 1.539e-5
-1.463, 1.542e-5
-1.464, 1.545e-5
-1.465, 1.548e-5
-1.466, 1.550e-5
-1.467, 1.553e-5
-1.468, 1.556e-5
-1.469, 1.558e-5
-1.470, 1.561e-5
-1.471, 1.564e-5
-1.472, 1.568e-5
-1.473, 1.570e-5
-1.474, 1.573e-5
-1.475, 1.576e-5
-1.476, 1.579e-5
-1.477, 1.582e-5
-1.478, 1.585e-5
-1.479, 1.588e-5
-1.480, 1.591e-5
-1.481, 1.594e-5
-1.482, 1.597e-5
-1.483, 1.601e-5
-1.484, 1.605e-5
-1.485, 1.608e-5
-1.486, 1.611e-5
-1.487, 1.615e-5
-1.488, 1.618e-5
-1.489, 1.622e-5
-1.490, 1.625e-5
-1.491, 1.629e-5
-1.492, 1.633e-5
-1.493, 1.636e-5
-1.494, 1.640e-5
-1.495, 1.644e-5
-1.496, 1.649e-5
-1.497, 1.652e-5
-1.498, 1.656e-5
-1.499, 1.660e-5
-1.500, 1.664e-5
-1.501, 1.668e-5
-1.502, 1.672e-5
-1.503, 1.677e-5
-1.504, 1.682e-5
-1.505, 1.686e-5
-1.506, 1.690e-5
-1.507, 1.695e-5
-1.508, 1.699e-5
-1.509, 1.704e-5
-1.510, 1.709e-5
-1.511, 1.714e-5
-1.512, 1.719e-5
-1.513, 1.724e-5
-1.514, 1.728e-5
-1.515, 1.734e-5
-1.516, 1.739e-5
-1.517, 1.744e-5
-1.518, 1.750e-5
-1.519, 1.756e-5
-1.520, 1.761e-5
-1.521, 1.766e-5
-1.522, 1.772e-5
-1.523, 1.777e-5
-1.524, 1.783e-5
-1.525, 1.789e-5
-1.526, 1.795e-5
-1.527, 1.801e-5
-1.528, 1.807e-5
-1.529, 1.813e-5
-1.530, 1.820e-5
-1.531, 1.827e-5
-1.532, 1.833e-5
-1.533, 1.839e-5
-1.534, 1.846e-5
-1.535, 1.853e-5
-1.536, 1.861e-5
-1.537, 1.868e-5
-1.538, 1.875e-5
-1.539, 1.882e-5
-1.540, 1.890e-5
-1.541, 1.898e-5
-1.542, 1.906e-5
-1.543, 1.913e-5
-1.544, 1.922e-5
-1.545, 1.930e-5
-1.546, 1.939e-5
-1.547, 1.947e-5
-1.548, 1.955e-5
-1.549, 1.964e-5
-1.550, 1.973e-5
-1.551, 1.982e-5
-1.552, 1.991e-5
-1.553, 2.000e-5
-1.554, 2.010e-5
-1.555, 2.019e-5
-1.556, 2.029e-5
-1.557, 2.039e-5
-1.558, 2.050e-5
-1.559, 2.061e-5
-1.560, 2.071e-5
-1.561, 2.082e-5
-1.562, 2.093e-5
-1.563, 2.104e-5
-1.564, 2.116e-5
-1.565, 2.128e-5
-1.566, 2.140e-5
-1.567, 2.151e-5
-1.568, 2.164e-5
-1.569, 2.177e-5
-1.570, 2.189e-5
-1.571, 2.201e-5
-1.572, 2.215e-5
-1.573, 2.227e-5
-1.574, 2.241e-5
-1.575, 2.255e-5
-1.576, 2.269e-5
-1.577, 2.284e-5
-1.578, 2.298e-5
-1.579, 2.313e-5
-1.580, 2.328e-5
-1.581, 2.343e-5
-1.582, 2.359e-5
-1.583, 2.375e-5
-1.584, 2.392e-5
-1.585, 2.409e-5
-1.586, 2.426e-5
-1.587, 2.443e-5
-1.588, 2.460e-5
-1.589, 2.478e-5
-1.590, 2.497e-5
-1.591, 2.515e-5
-1.592, 2.533e-5
-1.593, 2.553e-5
-1.594, 2.572e-5
-1.595, 2.592e-5
-1.596, 2.612e-5
-1.597, 2.633e-5
-1.598, 2.654e-5
-1.599, 2.675e-5
-1.600, 2.697e-5
-1.601, 2.719e-5
-1.602, 2.742e-5
-1.603, 2.765e-5
-1.604, 2.787e-5
-1.605, 2.810e-5
-1.606, 2.835e-5
-1.607, 2.860e-5
-1.608, 2.885e-5
-1.609, 2.911e-5
-1.610, 2.937e-5
-1.611, 2.964e-5
-1.612, 2.990e-5
-1.613, 3.018e-5
-1.614, 3.046e-5
-1.615, 3.074e-5
-1.616, 3.103e-5
-1.617, 3.133e-5
-1.618, 3.163e-5
-1.619, 3.195e-5
-1.620, 3.227e-5
-1.621, 3.258e-5
-1.622, 3.291e-5
-1.623, 3.324e-5
-1.624, 3.358e-5
-1.625, 3.393e-5
-1.626, 3.428e-5
-1.627, 3.464e-5
-1.628, 3.500e-5
-1.629, 3.537e-5
-1.630, 3.575e-5
-1.631, 3.613e-5
-1.632, 3.653e-5
-1.633, 3.693e-5
-1.634, 3.734e-5
-1.635, 3.776e-5
-1.636, 3.818e-5
-1.637, 3.862e-5
-1.638, 3.907e-5
-1.639, 3.953e-5
-1.640, 4.000e-5
-1.641, 4.046e-5
-1.642, 4.094e-5
-1.643, 4.143e-5
-1.644, 4.192e-5
-1.645, 4.242e-5
-1.646, 4.294e-5
-1.647, 4.346e-5
-1.648, 4.398e-5
-1.649, 4.452e-5
-1.650, 4.507e-5
-1.651, 4.563e-5
-1.652, 4.619e-5
-1.653, 4.678e-5
-1.654, 4.737e-5
-1.655, 4.797e-5
-1.656, 4.858e-5
-1.657, 4.920e-5
-1.658, 4.982e-5
-1.659, 5.046e-5
-1.660, 5.110e-5
-1.661, 5.176e-5
-1.662, 5.242e-5
-1.663, 5.310e-5
-1.664, 5.379e-5
-1.665, 5.449e-5
-1.666, 5.520e-5
-1.667, 5.591e-5
-1.668, 5.664e-5
-1.669, 5.739e-5
-1.670, 5.814e-5
-1.671, 5.891e-5
-1.672, 5.967e-5
-1.673, 6.046e-5
-1.674, 6.126e-5
-1.675, 6.207e-5
-1.676, 6.291e-5
-1.677, 6.376e-5
-1.678, 6.462e-5
-1.679, 6.548e-5
-1.680, 6.638e-5
-1.681, 6.727e-5
-1.682, 6.819e-5
-1.683, 6.913e-5
-1.684, 7.008e-5
-1.685, 7.104e-5
-1.686, 7.204e-5
-1.687, 7.303e-5
-1.688, 7.405e-5
-1.689, 7.508e-5
-1.690, 7.612e-5
-1.691, 7.717e-5
-1.692, 7.824e-5
-1.693, 7.935e-5
-1.694, 8.048e-5
-1.695, 8.159e-5
-1.696, 8.272e-5
-1.697, 8.389e-5
-1.698, 8.508e-5
-1.699, 8.627e-5
-1.700, 8.750e-5
-1.701, 8.874e-5
-1.702, 8.999e-5
-1.703, 9.115e-5
-1.704, 9.216e-5
-1.705, 9.331e-5
-1.706, 9.467e-5
-1.707, 9.608e-5
-1.708, 9.749e-5
-1.709, 9.892e-5
-1.710, 1.004e-4
-1.711, 1.018e-4
-1.712, 1.033e-4
-1.713, 1.048e-4
-1.714, 1.063e-4
-1.715, 1.078e-4
-1.716, 1.093e-4
-1.717, 1.109e-4
-1.718, 1.125e-4
-1.719, 1.141e-4
-1.720, 1.158e-4
-1.721, 1.174e-4
-1.722, 1.191e-4
-1.723, 1.208e-4
-1.724, 1.225e-4
-1.725, 1.243e-4
-1.726, 1.261e-4
-1.727, 1.279e-4
-1.728, 1.297e-4
-1.729, 1.316e-4
-1.730, 1.334e-4
-1.731, 1.355e-4
-1.732, 1.374e-4
-1.733, 1.395e-4
-1.734, 1.415e-4
-1.735, 1.437e-4
-1.736, 1.458e-4
-1.737, 1.479e-4
-1.738, 1.501e-4
-1.739, 1.523e-4
-1.740, 1.545e-4
-1.741, 1.568e-4
-1.742, 1.591e-4
-1.743, 1.614e-4
-1.744, 1.637e-4
-1.745, 1.659e-4
-1.746, 1.680e-4
-1.747, 1.705e-4
-1.748, 1.729e-4
-1.749, 1.754e-4
-1.750, 1.777e-4
-1.751, 1.800e-4
-1.752, 1.817e-4
-1.753, 1.840e-4
-1.754, 1.863e-4
-1.755, 1.889e-4
-1.756, 1.915e-4
-1.757, 1.941e-4
-1.758, 1.968e-4
-1.759, 1.995e-4
-1.760, 2.023e-4
-1.761, 2.050e-4
-1.762, 2.078e-4
-1.763, 2.107e-4
-1.764, 2.137e-4
-1.765, 2.168e-4
-1.766, 2.198e-4
-1.767, 2.229e-4
-1.768, 2.260e-4
-1.769, 2.291e-4
-1.770, 2.323e-4
-1.771, 2.356e-4
-1.772, 2.390e-4
-1.773, 2.423e-4
-1.774, 2.457e-4
-1.775, 2.491e-4
-1.776, 2.515e-4
-1.777, 2.539e-4
-1.778, 2.573e-4
-1.779, 2.610e-4
-1.780, 2.648e-4
-1.781, 2.686e-4
-1.782, 2.727e-4
-1.783, 2.768e-4
-1.784, 2.812e-4
-1.785, 2.856e-4
-1.786, 2.902e-4
-1.787, 2.949e-4
-1.788, 2.996e-4
-1.789, 3.045e-4
-1.790, 3.093e-4
-1.791, 3.144e-4
-1.792, 3.197e-4
-1.793, 3.249e-4
-1.794, 3.302e-4
-1.795, 3.356e-4
-1.796, 3.412e-4
-1.797, 3.467e-4
-1.798, 3.524e-4
-1.799, 3.580e-4
-1.800, 3.637e-4
-1.801, 3.693e-4
-1.802, 3.751e-4
-1.803, 3.808e-4
-1.804, 3.863e-4
-1.805, 3.920e-4
-1.806, 3.979e-4
-1.807, 4.038e-4
-1.808, 4.101e-4
-1.809, 4.162e-4
-1.810, 4.224e-4
-1.811, 4.288e-4
-1.812, 4.352e-4
-1.813, 4.417e-4
-1.814, 4.483e-4
-1.815, 4.551e-4
-1.816, 4.618e-4
-1.817, 4.685e-4
-1.818, 4.754e-4
-1.819, 4.822e-4
-1.820, 4.889e-4
-1.821, 4.958e-4
-1.822, 5.027e-4
-1.823, 5.098e-4
-1.824, 5.169e-4
-1.825, 5.240e-4
-1.826, 5.312e-4
-1.827, 5.386e-4
-1.828, 5.460e-4
-1.829, 5.535e-4
-1.830, 5.608e-4
-1.831, 5.683e-4
-1.832, 5.758e-4
-1.833, 5.832e-4
-1.834, 5.906e-4
-1.835, 5.981e-4
-1.836, 6.054e-4
-1.837, 6.127e-4
-1.838, 6.198e-4
-1.839, 6.270e-4
-1.840, 6.344e-4
-1.841, 6.420e-4
-1.842, 6.496e-4
-1.843, 6.572e-4
-1.844, 6.651e-4
-1.845, 6.729e-4
-1.846, 6.806e-4
-1.847, 6.886e-4
-1.848, 6.964e-4
-1.849, 7.044e-4
-1.850, 7.125e-4
-1.851, 7.203e-4
-1.852, 7.283e-4
-1.853, 7.364e-4
-1.854, 7.443e-4
-1.855, 7.525e-4
-1.856, 7.607e-4
-1.857, 7.690e-4
-1.858, 7.772e-4
-1.859, 7.855e-4
-1.860, 7.937e-4
-1.861, 8.019e-4
-1.862, 8.104e-4
-1.863, 8.188e-4
-1.864, 8.273e-4
-1.865, 8.357e-4
-1.866, 8.443e-4
-1.867, 8.527e-4
-1.868, 8.614e-4
-1.869, 8.700e-4
-1.870, 8.786e-4
-1.871, 8.872e-4
-1.872, 8.958e-4
-1.873, 9.044e-4
-1.874, 9.130e-4
-1.875, 9.218e-4
-1.876, 9.304e-4
-1.877, 9.393e-4
-1.878, 9.481e-4
-1.879, 9.566e-4
-1.880, 9.656e-4
-1.881, 9.744e-4
-1.882, 9.829e-4
-1.883, 9.920e-4
-1.884, 1.001e-3
-1.885, 1.009e-3
-1.886, 1.011e-3
-1.887, 1.011e-3
-1.888, 1.011e-3
-1.889, 1.011e-3
-1.890, 1.011e-3
-1.891, 1.011e-3
-1.892, 1.011e-3
-1.893, 1.011e-3
-1.894, 1.011e-3
-1.895, 1.011e-3
-1.896, 1.011e-3
-1.897, 1.011e-3
-1.898, 1.011e-3
-1.899, 1.011e-3
-1.900, 1.011e-3
-1.901, 1.011e-3
-1.902, 1.011e-3
-1.903, 1.011e-3
-1.904, 1.011e-3
-1.905, 1.011e-3
-1.906, 1.011e-3
-1.907, 1.011e-3
-1.908, 1.011e-3
-1.909, 1.011e-3
-1.910, 1.011e-3
-1.911, 1.011e-3
-1.912, 1.011e-3
-1.913, 1.011e-3
-1.914, 1.011e-3
-1.915, 1.011e-3
-1.916, 1.011e-3
-1.917, 1.011e-3
-1.918, 1.011e-3
-1.919, 1.011e-3
-1.920, 1.011e-3
-1.921, 1.011e-3
-1.922, 1.011e-3
-1.923, 1.011e-3
-1.924, 1.011e-3
-1.925, 1.011e-3
-1.926, 1.011e-3
-1.927, 1.011e-3
-1.928, 1.011e-3
-1.929, 1.011e-3
-1.930, 1.011e-3
-1.931, 1.011e-3
-1.932, 1.011e-3
-1.933, 1.011e-3
-1.934, 1.011e-3
-1.935, 1.011e-3
-1.936, 1.011e-3
-1.937, 1.011e-3
-1.938, 1.011e-3
-1.939, 1.011e-3
-1.940, 1.011e-3
-1.941, 1.011e-3
-1.942, 1.011e-3
-1.943, 1.011e-3
-1.944, 1.011e-3
-1.945, 1.011e-3
-1.946, 1.011e-3
-1.947, 1.011e-3
-1.948, 1.011e-3
-1.949, 1.011e-3
-1.950, 1.011e-3
-1.951, 1.011e-3
-1.952, 1.011e-3
-1.953, 1.011e-3
-1.954, 1.011e-3
-1.955, 1.011e-3
-1.956, 1.011e-3
-1.957, 1.011e-3
-1.958, 1.011e-3
-1.959, 1.011e-3
-1.960, 1.011e-3
-1.961, 1.011e-3
-1.962, 1.011e-3
-1.963, 1.011e-3
-1.964, 1.011e-3
-1.965, 1.011e-3
-1.966, 1.011e-3
-1.967, 1.011e-3
-1.968, 1.011e-3
-1.969, 1.011e-3
-1.970, 1.011e-3
-1.971, 1.011e-3
-1.972, 1.011e-3
-1.973, 1.011e-3
-1.974, 1.011e-3
-1.975, 1.011e-3
-1.976, 1.011e-3
-1.977, 1.011e-3
-1.978, 1.011e-3
-1.979, 1.011e-3
-1.980, 1.011e-3
-1.981, 1.011e-3
-1.982, 1.011e-3
-1.983, 1.011e-3
-1.984, 1.011e-3
-1.985, 1.011e-3
-1.986, 1.011e-3
-1.987, 1.011e-3
-1.988, 1.011e-3
-1.989, 1.011e-3
-1.990, 1.011e-3
-1.991, 1.011e-3
-1.992, 1.011e-3
-1.993, 1.011e-3
-1.994, 1.011e-3
-1.995, 1.011e-3
-1.996, 1.011e-3
-1.997, 1.011e-3
-1.998, 1.011e-3
-1.999, 1.011e-3
-2.000, 1.011e-3
-2.001, 1.011e-3
-2.002, 1.011e-3
-2.003, 1.011e-3
-2.004, 1.011e-3
-2.005, 1.011e-3
-2.006, 1.011e-3
-2.007, 1.011e-3
-2.008, 1.011e-3
-2.009, 1.011e-3
-2.010, 1.011e-3
-2.011, 1.011e-3
-2.012, 1.011e-3
-2.013, 1.011e-3
-2.014, 1.011e-3
-2.015, 1.011e-3
-2.016, 1.011e-3
-2.017, 1.011e-3
-2.018, 1.011e-3
-2.019, 1.011e-3
-2.020, 1.011e-3
-2.021, 1.011e-3
-2.022, 1.011e-3
-2.023, 1.011e-3
-2.024, 1.011e-3
-2.025, 1.011e-3
-2.026, 1.011e-3
-2.027, 1.011e-3
-2.028, 1.011e-3
-2.029, 1.011e-3
-2.030, 1.011e-3
-2.031, 1.011e-3
-2.032, 1.011e-3
-2.033, 1.011e-3
-2.034, 1.011e-3
-2.035, 1.011e-3
-2.036, 1.011e-3
-2.037, 1.011e-3
-2.038, 1.011e-3
-2.039, 1.011e-3
-2.040, 1.011e-3
-2.041, 1.011e-3
-2.042, 1.011e-3
-2.043, 1.011e-3
-2.044, 1.011e-3
-2.045, 1.011e-3
-2.046, 1.011e-3
-2.047, 1.011e-3
-2.048, 1.011e-3
-2.049, 1.011e-3
-2.050, 1.011e-3
-2.051, 1.011e-3
-2.052, 1.011e-3
-2.053, 1.011e-3
-2.054, 1.011e-3
-2.055, 1.011e-3
-2.056, 1.011e-3
-2.057, 1.011e-3
-2.058, 1.011e-3
-2.059, 1.011e-3
-2.060, 1.011e-3
-2.061, 1.011e-3
-2.062, 1.011e-3
-2.063, 1.011e-3
-2.064, 1.011e-3
-2.065, 1.011e-3
-2.066, 1.011e-3
-2.067, 1.011e-3
-2.068, 1.011e-3
-2.069, 1.011e-3
-2.070, 1.011e-3
-2.071, 1.011e-3
-2.072, 1.011e-3
-2.073, 1.011e-3
-2.074, 1.011e-3
-2.075, 1.011e-3
-2.076, 1.011e-3
-2.077, 1.011e-3
-2.078, 1.011e-3
-2.079, 1.011e-3
-2.080, 1.011e-3
-2.081, 1.011e-3
-2.082, 1.011e-3
-2.083, 1.011e-3
-2.084, 1.011e-3
-2.085, 1.011e-3
-2.086, 1.011e-3
-2.087, 1.011e-3
-2.088, 1.011e-3
-2.089, 1.011e-3
-2.090, 1.011e-3
-2.091, 1.011e-3
-2.092, 1.011e-3
-2.093, 1.011e-3
-2.094, 1.011e-3
-2.095, 1.011e-3
-2.096, 1.011e-3
-2.097, 1.011e-3
-2.098, 1.011e-3
-2.099, 1.011e-3
