Potential V vs RHE, Current mA cm-2
0.013299999999999867,-0.04582249900262853
0.012299999999999978,-0.9617207416482519
0.011299999999999866,-1.7033124050375041
0.010299999999999976,-2.2706116362833835
0.009299999999999864,-2.7501987669376318
0.008299999999999974,-3.1420737970002466
0.007299999999999862,-3.5353635383627267
0.006299999999999972,-3.840941179133574
0.00529999999999986,-4.146518819904423
0.0042999999999999705,-4.406825699079589
0.0032999999999998586,-4.668547289554621
0.0022999999999999687,-4.887827541033701
0.0012999999999998568,-5.0618370309171015
0.00029999999999996696,-5.235846520800501
-0.000700000000000145,-5.411270721983764
-0.0017000000000000348,-5.585280211867165
-0.0027000000000001467,-5.715433651454749
-0.0037000000000000366,-5.890857852638012
-0.0047000000000001485,-5.977155241929781
-0.005700000000000038,-6.108723392817228
-0.00670000000000015,-6.282732882700628
-0.00770000000000004,-6.414301033588076
-0.008700000000000152,-6.54445447317566
-0.009700000000000042,-6.6760226240631075
-0.010700000000000154,-6.806176063650692
-0.011700000000000044,-6.981600264833956
-0.012700000000000156,-7.111753704421539
-0.013700000000000045,-7.243321855308987
-0.014700000000000157,-7.37347529489657
-0.015700000000000047,-7.50504344578402
-0.01670000000000016,-7.635196885371603
-0.01770000000000005,-7.722908985963235
-0.01870000000000016,-7.853062425550818
-0.01970000000000005,-7.940774526142452
-0.020700000000000163,-8.070927965730034
-0.021700000000000053,-8.202496116617484
-0.022700000000000164,-8.332649556205066
-0.023700000000000054,-8.464217707092514
-0.024700000000000166,-8.594371146680096
-0.025700000000000056,-8.769795347863363
-0.026700000000000168,-8.899948787450944
-0.027700000000000058,-9.031516938338395
-0.02870000000000017,-9.205526428221793
-0.02970000000000006,-9.335679867809377
-0.03070000000000017,-9.467248018696827
-0.03170000000000006,-9.59740145828441
-0.03270000000000017,-9.728969609171857
-0.03370000000000006,-9.902979099055257
-0.034700000000000175,-10.034547249942705
-0.035700000000000065,-10.208556739826104
-0.03670000000000018,-10.340124890713554
-0.03770000000000007,-10.514134380596953
-0.03870000000000018,-10.644287820184536
-0.03970000000000007,-10.819712021367803
-0.04070000000000018,-10.993721511251199
-0.04170000000000007,-11.1677310011346
-0.04270000000000018,-11.343155202317865
-0.04370000000000007,-11.517164692201263
-0.044700000000000184,-11.691174182084664
-0.045700000000000074,-11.86659838326793
-0.046700000000000186,-11.996751822855511
-0.047700000000000076,-12.170761312738911
-0.04870000000000019,-12.346185513922174
-0.04970000000000008,-12.476338953509758
-0.05070000000000019,-12.651763154693022
-0.05170000000000008,-12.825772644576423
-0.05270000000000019,-12.99978213445982
-0.05370000000000008,-13.175206335643086
-0.05470000000000019,-13.349215825526485
-0.05570000000000008,-13.523225315409885
-0.056700000000000195,-13.741090855589102
-0.057700000000000085,-13.916515056772363
-0.058700000000000196,-14.090524546655764
-0.059700000000000086,-14.30273124163552
-0.0607000000000002,-14.486643710617974
-0.06170000000000009,-14.65640906660178
-0.0627000000000002,-14.826174422585586
-0.06370000000000009,-15.01008689156804
-0.0647000000000002,-15.179852247551842
-0.06570000000000009,-15.3920589425316
-0.0667000000000002,-15.533530072518102
-0.0677000000000001,-15.74573676749786
-0.0687000000000002,-15.972090575476265
-0.0697000000000001,-16.184297270456018
-0.07070000000000021,-16.396503965435777
-0.0717000000000001,-16.580416434418233
-0.07270000000000021,-16.792623129397985
-0.0737000000000001,-17.018976937376394
-0.07470000000000021,-17.231183632356142
-0.0757000000000001,-17.358507649344002
-0.07670000000000021,-17.584861457322408
-0.0777000000000001,-17.75462681330621
-0.07870000000000021,-17.924392169290012
-0.0797000000000001,-18.15074597726842
-0.08070000000000022,-18.320511333252224
-0.0817000000000001,-18.49027668923603
-0.08270000000000022,-18.674189158218486
-0.08370000000000011,-18.88639585319824
-0.08470000000000022,-19.112749661176647
-0.08570000000000011,-19.3249563561564
-0.08670000000000022,-19.537163051136158
-0.08770000000000011,-19.721075520118614
-0.08870000000000022,-19.93328221509837
-0.08970000000000011,-20.10304757108217
-0.09070000000000022,-20.286960040064624
-0.09170000000000011,-20.456725396048434
-0.09270000000000023,-20.683079204026836
-0.09370000000000012,-20.85284456001064
-0.09470000000000023,-21.065051254990397
-0.09570000000000012,-21.248963723972853
-0.09670000000000023,-21.461170418952605
-0.09770000000000012,-21.67337711393236
-0.09870000000000023,-21.857289582914817
-0.09970000000000012,-22.069496277894572
-0.10070000000000023,-22.295850085872978
-0.10170000000000012,-22.508056780852733
-0.10270000000000024,-22.72026347583249
-0.10370000000000013,-22.946617283810895
-0.10470000000000024,-23.15882397879065
-0.10570000000000013,-23.342736447773106
-0.10670000000000024,-23.51250180375691
-0.10770000000000013,-23.682267159740714
-0.10870000000000024,-23.86617962872317
-0.10970000000000013,-24.035944984706973
-0.11070000000000024,-24.24815167968673
-0.11170000000000013,-24.432064148669184
-0.11270000000000002,-24.64427084364894
-0.11370000000000013,-24.814036199632742
-0.11470000000000002,-24.997948668615198
-0.11570000000000014,-25.210155363594954
-0.11670000000000003,-25.43650917157336
-0.11770000000000014,-25.60627452755716
-0.11870000000000003,-25.81848122253692
-0.11970000000000014,-26.044835030515326
-0.12070000000000003,-26.21460038649913
-0.12170000000000014,-26.38436574248293
-0.12270000000000003,-26.568278211465387
-0.12370000000000014,-26.780484906445146
-0.12470000000000003,-26.907808923433
-0.12570000000000014,-27.134162731411404
-0.12670000000000003,-27.261486748399253
-0.12770000000000015,-27.487840556377662
-0.12870000000000004,-27.700047251357418
-0.12970000000000015,-27.869812607341224
-0.13070000000000004,-28.05372507632368
-0.13170000000000015,-28.265931771303435
-0.13270000000000004,-28.478138466283188
-0.13370000000000015,-28.662050935265643
-0.13470000000000004,-28.831816291249446
-0.13570000000000015,-29.001581647233255
-0.13670000000000004,-29.18549411621571
-0.13770000000000016,-29.35525947219951
-0.13870000000000005,-29.525024828183312
-0.13970000000000016,-29.708937297165768
-0.14070000000000005,-29.836261314153624
-0.14170000000000016,-30.00602667013743
-0.14270000000000005,-30.232380478115836
-0.14370000000000016,-30.402145834099635
-0.14470000000000005,-30.571911190083444
-0.14570000000000016,-30.79826499806185
-0.14670000000000005,-31.010471693041605
-0.14770000000000016,-31.19438416202406
-0.14870000000000005,-31.36414951800786
-0.14970000000000017,-31.57635621298762
-0.15070000000000006,-31.76026868197007
-0.15170000000000017,-31.972475376949827
-0.15270000000000006,-32.14224073293363
-0.15370000000000017,-32.368594540912035
-0.15470000000000006,-32.49591855789989
-0.15570000000000017,-32.70812525287965
-0.15670000000000006,-32.892037721862096
-0.15770000000000017,-33.10424441684186
-0.15870000000000006,-33.330598224820264
-0.15970000000000018,-33.58524625879597
-0.16070000000000007,-33.81160006677438
-0.16170000000000018,-34.02380676175414
-0.16270000000000007,-34.236013456733886
-0.16370000000000018,-34.462367264712285
-0.16470000000000007,-34.67457395969205
-0.16570000000000018,-34.90092776767045
-0.16670000000000007,-35.11313446265021
-0.16770000000000018,-35.282899818634014
-0.16870000000000007,-35.50925362661242
-0.16970000000000018,-35.721460321592176
-0.17070000000000007,-35.90537279057463
-0.17170000000000019,-36.16002082455034
-0.17270000000000008,-36.37222751953009
-0.1737000000000002,-36.64102266650445
-0.17470000000000008,-36.8532293614842
-0.1757000000000002,-37.037141830466666
-0.17670000000000008,-37.291789864442364
-0.1777000000000002,-37.47570233342482
-0.17870000000000008,-37.687909028404576
-0.1797000000000002,-37.90011572338433
-0.18070000000000008,-38.12646953136274
-0.1817000000000002,-38.38111756533845
-0.18270000000000008,-38.6499127123128
-0.1837000000000002,-38.86211940729255
-0.1847000000000001,-39.08847321527096
-0.1857000000000002,-39.30067991025072
-0.1867000000000001,-39.51288660523048
-0.1877000000000002,-39.78168175220483
-0.1887000000000001,-39.99388844718459
-0.1897000000000002,-40.30512493315489
-0.1907000000000001,-40.559772967130606
-0.1917000000000001,-40.828568114104954
-0.19269999999999998,-41.04077480908471
-0.1937000000000001,-41.30956995605907
-0.19469999999999998,-41.56421799003478
-0.1957000000000001,-41.83301313700913
-0.19669999999999999,-42.04521983198889
-0.1977000000000001,-42.2715736399673
-0.1987,-42.483780334947056
-0.1997000000000001,-42.71013414292546
-0.2007,-42.96478217690117
-0.2017000000000001,-43.17698887188092
-0.2027,-43.44578401885527
-0.2037000000000001,-43.657990713835034
-0.2047,-43.92678586080939
-0.2057000000000001,-44.181433894785094
-0.2067,-44.4077877027635
-0.2077000000000001,-44.619994397743255
-0.2087,-44.84634820572166
-0.2097000000000001,-45.10099623969737
-0.2107,-45.36979138667173
-0.2117000000000001,-45.624439420647434
-0.2127,-45.93567590661774
-0.2137000000000001,-46.19032394059345
-0.2147,-46.41667774857186
-0.2157000000000001,-46.713767121543505
-0.2167,-46.982562268517874
-0.21770000000000012,-47.27965164148953
-0.2187,-47.590888127459834
-0.21970000000000012,-47.84553616143554
-0.2207,-48.156772647405845
-0.22170000000000012,-48.45386202037751
-0.2227,-48.72265716735186
-0.22370000000000012,-48.97730520132757
-0.2247,-49.28854168729788
-0.22570000000000012,-49.557336834272235
-0.2267,-49.81198486824794
-0.22770000000000012,-50.0807800152223
-0.22870000000000001,-50.335428049198
-0.22970000000000013,-50.60422319617236
-0.23070000000000002,-50.81642989115212
-0.23170000000000013,-51.028636586131874
-0.23270000000000002,-51.29743173310623
-0.23370000000000013,-51.509638428085985
-0.23470000000000002,-51.77843357506035
-0.23570000000000013,-52.075522948032
-0.23670000000000002,-52.386759434002315
-0.2376999999999999,-52.514083450990164
-0.23870000000000002,-52.74043725896857
-0.2396999999999999,-52.91020261495237
-0.24070000000000003,-53.079967970936174
-0.24169999999999991,-53.26388043991864
-0.24270000000000003,-53.476087134898386
-0.24369999999999992,-53.603411151886235
-0.24470000000000003,-53.74488228187274
-0.24569999999999992,-53.82976495986464
-0.24670000000000003,-54.08441299384035
-0.24769999999999992,-54.35320814081471
-0.24870000000000003,-54.60785617479041
-0.24969999999999992,-54.876651321764776
-0.25070000000000003,-55.17374069473642
-0.2516999999999999,-55.527418519702685
-0.25270000000000004,-55.7820665536784
-0.2536999999999999,-56.05086170065276
-0.25470000000000004,-56.30550973462846
-0.2556999999999999,-56.57430488160282
-0.25670000000000004,-56.786511576582576
-0.25769999999999993,-57.012865384560975
-0.25870000000000004,-57.22507207954074
-0.25969999999999993,-57.45142588751914
-0.26070000000000004,-57.62119124350295
-0.26169999999999993,-57.79095659948675
-0.26270000000000004,-57.87583927747865
-0.26369999999999993,-58.05975174646111
-0.26470000000000005,-58.27195844144086
-0.26569999999999994,-58.498312249419264
-0.26670000000000005,-58.75296028339497
-0.26769999999999994,-58.97931409137338
-0.26870000000000005,-59.02175543036933
-0.26969999999999994,-59.10663810836124
-0.27070000000000005,-59.19152078635314
-0.27169999999999994,-59.23396212534908
-0.27270000000000005,-59.27640346434504
-0.27369999999999994,-59.31884480334099
-0.27470000000000006,-59.36128614233694
-0.27569999999999995,-59.44616882032884
-0.27670000000000006,-59.502757272323436
-0.27769999999999995,-59.54519861131939
-0.27870000000000006,-59.67252262830725
-0.27969999999999995,-59.7149639673032
-0.28070000000000006,-59.757405306299155
-0.28169999999999995,-59.842287984291055
-0.28270000000000006,-59.9696120012789
-0.28369999999999995,-60.06864179226946
-0.28470000000000006,-60.15352447026136
-0.28569999999999995,-60.11108313126541
-0.28670000000000007,-60.15352447026136
-0.28769999999999996,-60.19596580925731
-0.28870000000000007,-60.28084848724921
-0.28969999999999996,-60.28084848724921
-0.29070000000000007,-60.32328982624517
-0.29169999999999996,-60.32328982624517
-0.29270000000000007,-60.23840714825326
-0.29369999999999996,-60.15352447026136
-0.2947000000000001,-60.11108313126541
-0.29569999999999996,-60.02620045327351
-0.2967000000000001,-59.92717066228296
-0.29769999999999996,-59.842287984291055
-0.2987000000000001,-59.757405306299155
-0.29969999999999997,-59.7149639673032
-0.3007000000000001,-59.6300812893113
-0.30169999999999997,-59.54519861131939
-0.3027000000000001,-59.44616882032884
-0.30369999999999997,-59.31884480334099
-0.3047000000000001,-59.23396212534908
-0.30569999999999997,-59.14907944735718
-0.3067000000000001,-59.02175543036933
-0.3077,-58.92272563937878
-0.3087000000000001,-58.75296028339497
-0.3097,-58.62563626640712
-0.3107000000000001,-58.498312249419264
-0.3117,-58.35684111943277
-0.3127000000000001,-58.22951710244491
-0.3137,-58.05975174646111
-0.3147000000000001,-57.79095659948675
-0.3157,-57.53630856551105
-0.3167000000000001,-57.30995475753264
-0.3177,-57.05530672355693
-0.3187000000000001,-56.70162889859067
-0.3197,-56.44698086461496
-0.3207000000000001,-56.13574437864466
-0.3217,-55.9235376836649
-0.3227000000000001,-55.65474253669055
-0.3237,-55.357653163718886
-0.3247000000000001,-55.13129935574048
-0.3257,-54.876651321764776
-0.3267000000000001,-54.60785617479041
-0.3277,-54.35320814081471
-0.3287000000000001,-54.08441299384035
-0.3297,-53.872206298860604
-0.3307000000000001,-53.56096981289029
-0.3317,-53.22143910092268
-0.3327000000000001,-52.91020261495237
-0.3337,-52.514083450990164
-0.3347000000000001,-52.11796428702795
-0.3357,-51.82087491405629
-0.3367000000000001,-51.55207976708194
-0.3377,-51.33987307210218
-0.3387000000000001,-50.98619524713592
-0.3397,-50.73154721316022
-0.3407000000000001,-50.46275206618586
-0.3417,-50.20810403221015
-0.3427000000000001,-49.89686754623985
-0.3437,-49.557336834272235
-0.3447000000000001,-49.28854168729788
-0.3457,-48.89242252333566
-0.3467000000000001,-48.59533315036401
-0.3477,-48.24165532539775
-0.3487000000000001,-48.029448630417996
-0.3497,-47.76065348344364
-0.3507000000000001,-47.506005449467935
-0.3517,-47.19476896349763
-0.3527000000000001,-46.88353247752732
-0.3537,-46.586443104555656
-0.3547000000000001,-46.3176479575813
-0.3557,-46.10544126260155
-0.35670000000000013,-45.85079322862584
-0.3577,-45.624439420647434
-0.35870000000000013,-45.36979138667173
-0.3597,-45.10099623969737
-0.36070000000000013,-44.74731841473111
-0.3617,-44.45022904175945
-0.3626999999999999,-44.096551216793195
-0.3637,-43.84190318281749
-0.3646999999999999,-43.53066669684718
-0.3657,-43.27601866287147
-0.3666999999999999,-42.92234083790521
-0.3677,-42.653545690930855
-0.3686999999999999,-42.483780334947056
-0.36970000000000003,-42.229132300971344
-0.3706999999999999,-41.96033715399699
-0.37170000000000003,-41.70568912002128
-0.3726999999999999,-41.52177665103883
-0.37370000000000003,-41.352011295055014
-0.3746999999999999,-41.22468727806717
-0.37570000000000003,-41.04077480908471
-0.3766999999999999,-40.87100945310091
-0.37770000000000004,-40.701244097117105
-0.3786999999999999,-40.51733162813464
-0.37970000000000004,-40.34756627215084
-0.3806999999999999,-40.220242255162994
-0.38170000000000004,-40.135359577171094
-0.38269999999999993,-39.99388844718459
-0.38370000000000004,-39.99388844718459
-0.38469999999999993,-39.95144710818864
-0.38570000000000004,-39.86656443019674
-0.38669999999999993,-39.82412309120078
-0.38770000000000004,-39.696799074212926
-0.38869999999999993,-39.654357735216976
-0.38970000000000005,-39.61191639622103
-0.39069999999999994,-39.51288660523048
-0.39170000000000005,-39.38556258824262
-0.39269999999999994,-39.21579723225882
-0.39370000000000005,-39.08847321527096
-0.39469999999999994,-38.94700208528445
-0.39570000000000005,-38.81967806829661
-0.39669999999999994,-38.607471373316855
-0.39770000000000005,-38.46600024333035
-0.39869999999999994,-38.46600024333035
-0.39970000000000006,-38.42355890433439
-0.40069999999999995,-38.38111756533845
-0.40170000000000006,-38.33867622634249
-0.40269999999999995,-38.29623488734655
-0.40370000000000006,-38.253793548350586
-0.40469999999999995,-38.29623488734655
-0.40570000000000006,-38.253793548350586
-0.40669999999999995,-38.29623488734655
-0.40770000000000006,-38.253793548350586
-0.40869999999999995,-38.16891087035869
-0.40970000000000006,-38.16891087035869
-0.41069999999999995,-38.12646953136274
-0.41170000000000007,-38.08402819236679
-0.41269999999999996,-38.04158685337084
-0.41370000000000007,-38.08402819236679
-0.41469999999999996,-38.16891087035869
-0.41570000000000007,-38.12646953136274
-0.41669999999999996,-38.12646953136274
-0.41770000000000007,-38.12646953136274
-0.41869999999999996,-38.12646953136274
-0.4197000000000001,-38.08402819236679
-0.42069999999999996,-38.08402819236679
-0.4217000000000001,-38.08402819236679
-0.42269999999999996,-38.12646953136274
-0.4237000000000001,-38.08402819236679
-0.42469999999999997,-38.08402819236679
-0.4257000000000001,-38.12646953136274
-0.42669999999999997,-38.16891087035869
-0.4277000000000001,-38.253793548350586
-0.42869999999999997,-38.29623488734655
-0.4297000000000001,-38.33867622634249
-0.43069999999999997,-38.42355890433439
-0.4317000000000001,-38.5650300343209
-0.4327,-38.6499127123128
-0.4337000000000001,-38.734795390304704
-0.4347,-38.86211940729255
-0.4357000000000001,-38.98944342428042
-0.4367,-39.046031876275016
-0.4377000000000001,-39.130914554266916
-0.4387,-39.21579723225882
-0.4397000000000001,-39.30067991025072
-0.4407,-39.34312124924667
-0.4417000000000001,-39.38556258824262
-0.4427,-39.47044526623452
-0.4437000000000001,-39.61191639622103
-0.4447,-39.654357735216976
-0.4457000000000001,-39.739240413208876
-0.4467,-39.82412309120078
-0.4477000000000001,-39.90900576919269
-0.4487,-39.95144710818864
-0.4497000000000001,-40.03632978618054
-0.4507,-40.177800916167044
-0.4517000000000001,-40.220242255162994
-0.4527,-40.30512493315489
-0.4537000000000001,-40.3900076111468
-0.4547,-40.43244895014274
-0.4557000000000001,-40.51733162813464
-0.4567,-40.65880275812115
-0.4577000000000001,-40.78612677510901
-0.4587,-40.87100945310091
-0.4597000000000001,-41.04077480908471
-0.4607,-41.182245939071215
-0.4617000000000001,-41.352011295055014
-0.4627,-41.47933531204288
-0.4637000000000001,-41.56421799003478
-0.4647,-41.70568912002128
-0.4657000000000001,-41.87545447600508
-0.4667,-42.00277849299294
-0.4677000000000001,-42.186690961975394
-0.4687,-42.2715736399673
-0.4697000000000001,-42.39889765695515
-0.4707,-42.526221673943
-0.4717000000000001,-42.653545690930855
-0.4727,-42.837458159913304
-0.4737000000000001,-42.96478217690117
-0.4747,-43.09210619388902
-0.4757000000000001,-43.27601866287147
-0.4767,-43.44578401885527
-0.4777000000000001,-43.61554937483908
-0.4787,-43.75702050482558
-0.4797000000000001,-43.88434452181344
-0.4807,-44.011668538801295
-0.48170000000000013,-44.096551216793195
-0.4827,-44.223875233781044
-0.48370000000000013,-44.36534636376755
-0.4847,-44.45022904175945
-0.48570000000000013,-44.535111719751356
-0.4867,-43.70043205283099
-0.48570000000000013,-41.56421799003478
-0.4847,-39.739240413208876
-0.48370000000000013,-38.12646953136274
-0.4827,-36.725905344496354
-0.48170000000000013,-35.46681228761647
-0.4807,-34.278454795729836
-0.4797000000000001,-33.18912709483376
-0.4787,-32.14224073293363
-0.4777000000000001,-31.137795710029454
-0.4767,-30.189939139119886
-0.4757000000000001,-29.27037679420761
-0.4747,-28.393255788291288
-0.4737000000000001,-27.530281895373616
-0.4727,-26.738043567449193
-0.4717000000000001,-25.91751101352747
-0.4707,-25.167714024599
-0.4697000000000001,-24.432064148669184
-0.4687,-23.724708498736668
-0.4677000000000001,-23.031499961802798
-0.4667,-22.38073276386488
-0.4657000000000001,-21.729965565926964
-0.4647,-21.107492593986347
-0.4637000000000001,-20.499166735044383
-0.4627,-19.890840876102416
