Potential V vs RHE, Current mA cm-2
0.013299999999999867,-0.17924392169290015
0.012299999999999978,-0.31321708179011915
0.011299999999999866,-0.35579989191605677
0.010299999999999976,-0.3747570233342482
0.009299999999999864,-0.39060178989273664
0.008299999999999974,-0.4080027388810766
0.007299999999999862,-0.4279501682091736
0.006299999999999972,-0.44874642431718964
0.00529999999999986,-0.45383938499670373
0.0042999999999999705,-0.4604885281060694
0.0032999999999998586,-0.47520152562466583
0.0022999999999999687,-0.49104629218315415
0.0012999999999998568,-0.5077398855215616
0.00029999999999996696,-0.5125499039411028
-0.000700000000000145,-0.5166525667107114
-0.0017000000000000348,-0.5307996797093618
-0.0027000000000001467,-0.5472103307877962
-0.0037000000000000366,-0.5624892128263386
-0.0047000000000001485,-0.5702701249755963
-0.005700000000000038,-0.5714018940154882
-0.00670000000000015,-0.5878125450939228
-0.00770000000000004,-0.6049305518222896
-0.008700000000000152,-0.6186532514309806
-0.009700000000000042,-0.6303953552198603
-0.010700000000000154,-0.6360542004193205
-0.011700000000000044,-0.6475133619482272
-0.012700000000000156,-0.6700072716160814
-0.013700000000000045,-0.6857105670445833
-0.014700000000000157,-0.694057363713787
-0.015700000000000047,-0.7015553336030717
-0.01670000000000016,-0.7155609754717356
-0.01770000000000005,-0.7408843077393197
-0.01870000000000016,-0.7560217186478756
-0.01970000000000005,-0.7681882358267149
-0.020700000000000163,-0.7778082726657971
-0.021700000000000053,-0.791530972274488
-0.022700000000000164,-0.8191178426218563
-0.023700000000000054,-0.8376505606500882
-0.024700000000000166,-0.8499585489589141
-0.025700000000000056,-0.8624080083977264
-0.026700000000000168,-0.8768380636563498
-0.027700000000000058,-0.9042834628737314
-0.02870000000000017,-0.9280506127114639
-0.02970000000000006,-0.9397927165003438
-0.03070000000000017,-0.9549301274088997
-0.03170000000000006,-0.9745946144770238
-0.03270000000000017,-1.0003423601345676
-0.03370000000000006,-1.0279292304819356
-0.034700000000000175,-1.042642228000532
-0.035700000000000065,-1.0546672740493848
-0.03670000000000018,-1.0790003084070634
-0.03770000000000007,-1.103899227284688
-0.03870000000000018,-1.1354472892716785
-0.03970000000000007,-1.1497358734003151
-0.04070000000000018,-1.1651562265688442
-0.04170000000000007,-1.1907625010964016
-0.04270000000000018,-1.219056727093702
-0.04370000000000007,-1.2466435974410703
-0.044700000000000184,-1.2653177865992886
-0.045700000000000074,-1.282152851067683
-0.046700000000000186,-1.3040808762155907
-0.047700000000000076,-1.3370436495024463
-0.04870000000000019,-1.3685917114894366
-0.04970000000000008,-1.3874073717776414
-0.05070000000000019,-1.405798618675887
-0.05170000000000008,-1.427443701563822
-0.05270000000000019,-1.462811484060448
-0.05370000000000008,-1.4896909987578837
-0.05470000000000019,-1.5151558021554543
-0.05570000000000008,-1.5264734925543744
-0.056700000000000195,-1.5547677185516753
-0.057700000000000085,-1.5901355010483011
-0.058700000000000196,-1.6170150157457368
-0.059700000000000086,-1.6424798191433077
-0.0607000000000002,-1.6594563547416883
-0.06170000000000009,-1.690580003338719
-0.0627000000000002,-1.7217036519357498
-0.06370000000000009,-1.7499978779330503
-0.0647000000000002,-1.771218547431026
-0.06570000000000009,-1.7924392169290013
-0.0667000000000002,-1.813659886426977
-0.0677000000000001,-1.849027668923603
-0.0687000000000002,-1.882980740120364
-0.0697000000000001,-1.9027866983184742
-0.07070000000000021,-1.92400736781645
-0.0717000000000001,-1.9480574599141556
-0.07270000000000021,-1.9834252424107812
-0.0737000000000001,-2.017378313607542
-0.07470000000000021,-2.0357695605057877
-0.0757000000000001,-2.054160807404033
-0.07670000000000021,-2.083869744701199
-0.0777000000000001,-2.1149933932982297
-0.07870000000000021,-2.150361175794856
-0.0797000000000001,-2.174411267892561
-0.08070000000000022,-2.194217226090672
-0.0817000000000001,-2.2239261633878376
-0.08270000000000022,-2.2550498119848683
-0.08370000000000011,-2.2890028831816296
-0.08470000000000022,-2.307394130079875
-0.08570000000000011,-2.3243706656782552
-0.08670000000000022,-2.3569090255751513
-0.08770000000000011,-2.3951062306715074
-0.08870000000000022,-2.424815167968673
-0.08970000000000011,-2.4545241052658384
-0.09070000000000022,-2.472915352164084
-0.09170000000000011,-2.504039000761115
-0.09270000000000023,-2.5408214945576058
-0.09370000000000012,-2.5733598544545018
-0.09470000000000023,-2.6016540804518025
-0.09570000000000012,-2.6172159047503176
-0.09670000000000023,-2.6455101307476188
-0.09770000000000012,-2.6794632019443796
-0.09870000000000023,-2.7176604070407357
-0.09970000000000012,-2.7487840556377665
-0.10070000000000023,-2.772834147735472
-0.10170000000000012,-2.8011283737327726
-0.10270000000000024,-2.8393255788291283
-0.10370000000000013,-2.8761080726256196
-0.10470000000000024,-2.900158164723325
-0.10570000000000013,-2.925622968120896
-0.10670000000000024,-2.9553319054180616
-0.10770000000000013,-2.997773244414013
-0.10870000000000024,-3.0402145834099636
-0.10970000000000013,-3.0685088094072643
-0.11070000000000024,-3.1038765919038904
-0.11170000000000013,-3.1364149518007864
-0.11270000000000002,-3.1816857133964676
-0.11370000000000013,-3.2184682071929585
-0.11470000000000002,-3.2453477218903943
-0.11570000000000014,-3.270812525287965
-0.11670000000000003,-3.3090097303843207
-0.11770000000000014,-3.3542804919800018
-0.11870000000000003,-3.400965964875548
-0.11970000000000014,-3.432089613472579
-0.12070000000000003,-3.4660426846693397
-0.12170000000000014,-3.508484023665291
-0.12270000000000003,-3.553754785260972
-0.12370000000000014,-3.6004402581565187
-0.12470000000000003,-3.6372227519530096
-0.12570000000000014,-3.6655169779503103
-0.12670000000000003,-3.7093730282461257
-0.12770000000000015,-3.7560585011416725
-0.12870000000000004,-3.798499840137624
-0.12970000000000015,-3.8366970452339793
-0.13070000000000004,-3.87065011643074
-0.13170000000000015,-3.914506166726557
-0.13270000000000004,-3.969679907421293
-0.13370000000000015,-4.01636538031684
-0.13470000000000004,-4.063050853212385
-0.13570000000000015,-4.099833347008876
-0.13670000000000004,-4.138030552105232
-0.13770000000000016,-4.190374870200238
-0.13870000000000005,-4.2413044769953805
-0.13970000000000016,-4.287989949890926
-0.14070000000000005,-4.327601866287147
-0.14170000000000016,-4.368628493983234
-0.14270000000000005,-4.42946107987743
-0.14370000000000016,-4.478975975372705
-0.14470000000000005,-4.524246736968387
-0.14570000000000016,-4.573761632463664
-0.14670000000000005,-4.6162029714596144
-0.14770000000000016,-4.675620846053946
-0.14870000000000005,-4.733624009348413
-0.14970000000000017,-4.778894770944094
-0.15070000000000006,-4.821336109940045
-0.15170000000000017,-4.872265716735186
-0.15270000000000006,-4.924610034830192
-0.15370000000000017,-4.9896867546239845
-0.15470000000000006,-5.0335428049198
-0.15570000000000017,-5.073154721316022
-0.15670000000000006,-5.128328462010757
-0.15770000000000017,-5.18491691400536
-0.15870000000000006,-5.244334788599692
-0.15970000000000018,-5.278287859796452
-0.16070000000000007,-5.313655642293078
-0.16170000000000018,-5.3702440942876795
-0.16270000000000007,-5.426832546282281
-0.16370000000000018,-5.479176864377286
-0.16470000000000007,-5.531521182472294
-0.16570000000000018,-5.571133098868514
-0.16670000000000007,-5.623477416963521
-0.16770000000000018,-5.677236446358393
-0.16870000000000007,-5.7309954757532635
-0.16970000000000018,-5.779095659948675
-0.17070000000000007,-5.8102193085457055
-0.17170000000000019,-5.854075358841522
-0.17270000000000008,-5.917737367335448
-0.1737000000000002,-6.001205334027486
-0.17470000000000008,-6.029499560024787
-0.1757000000000002,-6.054964363422357
-0.17670000000000008,-6.088917434619118
-0.1777000000000002,-6.141261752714124
-0.17870000000000008,-6.166726556111695
-0.1797000000000002,-6.182288380410211
-0.18070000000000008,-6.231803275905486
-0.1817000000000002,-6.271415192301707
-0.18270000000000008,-6.322344799096849
-0.1837000000000002,-6.37044498329226
-0.1847000000000001,-6.398739209289561
-0.1857000000000002,-6.422789301387266
-0.1867000000000001,-6.438351125685783
-0.1877000000000002,-6.458157083883892
-0.1887000000000001,-6.477963042082004
-0.1897000000000002,-6.503427845479574
-0.1907000000000001,-6.5246485149775495
-0.1917000000000001,-6.533136782776739
-0.19269999999999998,-6.545869184475525
-0.1937000000000001,-6.581236966972151
-0.19469999999999998,-6.599628213870396
-0.1957000000000001,-6.603872347769991
-0.19669999999999999,-6.608116481669587
-0.1977000000000001,-6.613775326869046
-0.1987,-6.619434172068506
-0.1997000000000001,-6.622263594668237
-0.2007,-6.616604749468776
-0.2017000000000001,-6.603872347769991
-0.2027,-6.601042925170261
-0.2037000000000001,-6.593969368670936
-0.2047,-6.569919276573231
-0.2057000000000001,-6.569919276573231
-0.2067,-6.54728389577539
-0.2077000000000001,-6.518989669778089
-0.2087,-6.492110155080653
-0.2097000000000001,-6.468060062982947
-0.2107,-6.434106991786186
-0.2117000000000001,-6.404398054489021
-0.2127,-6.369030271992395
-0.2137000000000001,-6.3534684476938805
-0.2147,-6.320930087796984
-0.2157000000000001,-6.2756593262013025
-0.2167,-6.228973853305757
-0.21770000000000012,-6.187947225609671
-0.2187,-6.137017618814529
-0.21970000000000012,-6.081843878119792
-0.2207,-6.029499560024787
-0.22170000000000012,-5.96583755153086
-0.2227,-5.924810923834773
-0.22370000000000012,-5.8625636266407115
-0.2247,-5.79465748424719
-0.22570000000000012,-5.740898454852318
-0.2267,-5.672992312458796
-0.22770000000000012,-5.629136262162981
-0.22870000000000001,-5.581036077967569
-0.22970000000000013,-5.5003975338752635
-0.23070000000000002,-5.414100144583495
-0.23170000000000013,-5.349023424789703
-0.23270000000000002,-5.2924349727951014
-0.23370000000000013,-5.21321114000266
-0.23470000000000002,-5.148134420208869
-0.23570000000000013,-5.122669616811298
-0.23670000000000002,-5.044860495318721
-0.2376999999999999,-4.971295507725738
-0.23870000000000002,-4.899145231432622
-0.2396999999999999,-4.811433130840991
-0.24070000000000003,-4.723721030249357
-0.24169999999999991,-4.640253063557321
-0.24270000000000003,-4.573761632463664
-0.24369999999999992,-4.5171731804690625
-0.24470000000000003,-4.453511171975136
-0.24569999999999992,-4.381360895682018
-0.24670000000000003,-4.310625330688767
-0.24769999999999992,-4.245548610894974
-0.24870000000000003,-4.191789581500104
-0.24969999999999992,-4.126712861706312
-0.25070000000000003,-4.04183018371441
-0.2516999999999999,-3.9838270204199433
-0.25270000000000004,-3.9413856814239923
-0.2536999999999999,-3.8904560746288515
-0.25470000000000004,-3.838111756533844
-0.2556999999999999,-3.782938015839108
-0.25670000000000004,-3.7320084090439667
-0.25769999999999993,-3.6923964926477457
-0.25870000000000004,-3.644296308452334
-0.25969999999999993,-3.606099103355979
-0.26070000000000004,-3.555169496560837
-0.26169999999999993,-3.5113134462650213
-0.26270000000000004,-3.4872633541673155
-0.26369999999999993,-3.4575544168701495
-0.26470000000000005,-3.4179425004739286
-0.26569999999999994,-3.3740864501781123
-0.26670000000000005,-3.3415480902812167
-0.26769999999999994,-3.3203274207832414
-0.26870000000000005,-3.3047655964847262
-0.26969999999999994,-3.279300793087155
-0.27070000000000005,-3.2510065670898545
-0.27169999999999994,-3.2212976297926885
-0.27270000000000005,-3.208565228093903
-0.27369999999999994,-3.204321094194308
-0.27470000000000006,-3.1859298472960624
-0.27569999999999995,-3.161879755198357
-0.27670000000000006,-3.1406590857003813
-0.27769999999999995,-3.135000240500921
-0.27870000000000006,-3.1434885083001114
-0.27969999999999995,-3.1307561066013263
-0.28070000000000006,-3.120853127502271
-0.28169999999999995,-3.113779571002946
-0.28270000000000006,-3.1081207258034858
-0.28369999999999995,-3.119438416202406
-0.28470000000000006,-3.1166089936026755
-0.28569999999999995,-3.1067060145036205
-0.28670000000000007,-3.1067060145036205
-0.28769999999999996,-3.1123648597030806
-0.28870000000000007,-3.126511972701731
-0.28969999999999996,-3.135000240500921
-0.29070000000000007,-3.123682550102001
-0.29169999999999996,-3.126511972701731
-0.29270000000000007,-3.1420737970002466
-0.29369999999999996,-3.159050332598627
-0.2947000000000001,-3.174612156897142
-0.29569999999999996,-3.174612156897142
-0.2967000000000001,-3.1831004246963324
-0.29769999999999996,-3.208565228093903
-0.2987000000000001,-3.2312006088917435
-0.29969999999999997,-3.2411035879907995
-0.3007000000000001,-3.2453477218903943
-0.30169999999999997,-3.2510065670898545
-0.3027000000000001,-3.279300793087155
-0.30369999999999997,-3.3019361738849957
-0.3047000000000001,-3.321742132083106
-0.30569999999999997,-3.3344745337818917
-0.3067000000000001,-3.3429628015810815
-0.3077,-3.371257027578382
-0.3087000000000001,-3.4066248100750083
-0.3097,-3.4236013456733887
-0.3107000000000001,-3.440577881271769
-0.3117,-3.447651437771094
-0.3127000000000001,-3.475945663768395
-0.3137,-3.5113134462650213
-0.3147000000000001,-3.5282899818634013
-0.3157,-3.545266517461782
-0.3167000000000001,-3.5636577643600273
-0.3177,-3.590537279057463
-0.3187000000000001,-3.627319772853954
-0.3197,-3.6513698649516595
-0.3207000000000001,-3.6655169779503103
-0.3217,-3.6853229361484203
-0.3227000000000001,-3.710787739545991
-0.3237,-3.748984944642347
-0.3247000000000001,-3.7772791706396474
-0.3257,-3.788596861038568
-0.3267000000000001,-3.8140616644361387
-0.3277,-3.840941179133574
-0.3287000000000001,-3.8748942503303354
-0.3297,-3.903188476327636
-0.3307000000000001,-3.9130914554266916
-0.3317,-3.934312124924667
-0.3327000000000001,-3.9668504848215624
-0.3337,-4.000803556018323
-0.3347000000000001,-4.030512493315489
-0.3357,-4.04183018371441
-0.3367000000000001,-4.0644655645122505
-0.3377,-4.099833347008876
-0.3387000000000001,-4.132371706905772
-0.3397,-4.159251221603208
-0.3407000000000001,-4.177642468501453
-0.3417,-4.191789581500104
-0.3427000000000001,-4.225742652696865
-0.3437,-4.259695723893626
-0.3447000000000001,-4.287989949890926
-0.3457,-4.304966485489307
-0.3467000000000001,-4.314869464588361
-0.3477,-4.354481380984582
-0.3487000000000001,-4.388434452181344
-0.3497,-4.411069832979184
-0.3507000000000001,-4.43511992507689
-0.3517,-4.447852326775675
-0.3527000000000001,-4.473317130173245
-0.3537,-4.505855490070142
-0.3547000000000001,-4.525661448268252
-0.3557,-4.544052695166498
-0.35670000000000013,-4.556785096865283
-0.3577,-4.586494034162449
-0.35870000000000013,-4.623276527958939
-0.3597,-4.6416677748571855
-0.36070000000000013,-4.651570753956241
-0.3617,-4.669962000854486
-0.3626999999999999,-4.689767959052596
-0.3637,-4.723721030249357
-0.3646999999999999,-4.743526988447469
-0.3657,-4.750600544946793
-0.3666999999999999,-4.761918235345714
-0.3677,-4.781724193543823
-0.3686999999999999,-4.811433130840991
-0.36970000000000003,-4.82840966643937
-0.3706999999999999,-4.82840966643937
-0.37170000000000003,-4.842556779438021
-0.3726999999999999,-4.8595333150364
-0.37370000000000003,-4.879339273234511
-0.3746999999999999,-4.901974654032353
-0.37570000000000003,-4.904804076632082
-0.3766999999999999,-4.913292344431272
-0.37770000000000004,-4.934513013929248
-0.3786999999999999,-4.959977817326819
-0.37970000000000004,-4.9698807964258735
-0.3806999999999999,-4.971295507725738
-0.38170000000000004,-4.98827204332412
-0.38269999999999993,-5.00807800152223
-0.38370000000000004,-5.037786938819395
-0.38469999999999993,-5.0618370309171015
-0.38570000000000004,-5.0745694326158866
-0.38669999999999993,-5.087301834314672
-0.38770000000000004,-5.1212549055114325
-0.38869999999999993,-5.1608668219076534
-0.38970000000000005,-5.191990470504685
-0.39069999999999994,-5.2188699852021205
-0.39170000000000005,-5.254237767698746
-0.39269999999999994,-5.302337951894157
-0.39370000000000005,-5.374488228187275
-0.39469999999999994,-5.433906102781606
-0.39570000000000005,-5.489079843476342
-0.39669999999999994,-5.561230119769459
-0.39770000000000005,-5.651771642960822
-0.39869999999999994,-5.767777969549755
-0.39970000000000006,-5.889443141338147
-0.40069999999999995,-6.025255426125191
-0.40170000000000006,-6.204923761208051
-0.40269999999999995,-6.432692280486322
-0.40370000000000006,-6.742514055156764
-0.40469999999999995,-7.1457067756183
-0.40570000000000006,-7.6592469774693095
-0.40669999999999995,-8.341137824004257
-0.40770000000000006,-9.174402779624762
-0.40869999999999995,-10.191580204227723
-0.40970000000000006,-11.377108273514626
-0.41069999999999995,-12.72674285358587
-0.41170000000000007,-14.274437015638219
-0.41269999999999996,-15.986237688474914
-0.41370000000000007,-17.966833508285966
-0.41469999999999996,-20.187930249074075
-0.41570000000000007,-22.790999040825742
-0.41669999999999996,-25.73359854454502
-0.41770000000000007,-28.86011051724675
-0.41869999999999996,-31.95832826395118
-0.4197000000000001,-34.67457395969205
-0.42069999999999996,-37.53229078541942
-0.4217000000000001,-40.36171338514949
-0.42269999999999996,-42.93648795090387
-0.4237000000000001,-45.27076159568118
-0.42469999999999997,-47.520152562466585
-0.4257000000000001,-49.514895495276285
-0.42669999999999997,-51.22669616811298
-0.4277000000000001,-52.896055501953725
-0.42869999999999997,-54.494679270801214
-0.4297000000000001,-55.79621366667705
-0.43069999999999997,-57.380690322525886
-0.4317000000000001,-58.65393049240442
-0.4327,-59.95546488828025
-0.4337000000000001,-61.27114639715474
-0.4347,-62.64341635802381
-0.4357000000000001,-63.61956715493069
-0.4367,-64.73718908182407
-0.4377000000000001,-65.99628213870396
-0.4387,-67.14219829159464
-0.4397000000000001,-67.93443661951906
-0.4407,-68.93888164242324
-0.4417000000000001,-69.90088532633146
-0.4427,-70.70727076725453
-0.4437000000000001,-71.81074558114926
-0.4447,-72.78689637805614
-0.4457000000000001,-73.5649875929819
-0.4467,-74.79578642386448
-0.4477000000000001,-76.0407323677457
-0.4487,-77.05932450364854
-0.4497000000000001,-78.14865220454463
-0.4507,-79.11065588845284
-0.4517000000000001,-80.10095379835838
-0.4527,-80.8931921262828
-0.4537000000000001,-81.41663530723285
-0.4547,-82.40693321713839
-0.4557000000000001,-83.22746577106011
-0.4567,-84.07629255097913
-0.4577000000000001,-85.1939144778725
-0.4587,-86.12762393578342
-0.4597000000000001,-87.18865741068221
-0.4607,-88.27798511157829
-0.4617000000000001,-89.56537239445547
-0.4627,-89.84831465442848
-0.4637000000000001,-90.7537298863421
-0.4647,-91.77232202224494
-0.4657000000000001,-92.45138344618015
-0.4667,-93.68218227706274
-0.4677000000000001,-94.44612637898985
-0.4687,-95.30910027190752
-0.4697000000000001,-96.75210579776986
-0.4707,-97.69996236867944
-0.4717000000000001,-98.15266998463625
-0.4727,-99.08637944254717
-0.4737000000000001,-100.5576791944068
-0.4747,-101.94409626827454
-0.4757000000000001,-103.24563066415038
-0.4767,-104.49057660803162
-0.4777000000000001,-104.68863619001272
-0.4787,-105.33940338795064
-0.4797000000000001,-106.61264355782916
-0.4807,-107.75855971071984
-0.48170000000000013,-107.34829343375898
-0.4827,-108.57909226464157
-0.48370000000000013,-109.08838833259297
-0.4847,-110.4748054064607
-0.48570000000000013,-110.74360055343507
-0.4867,-110.31918716347556
-0.48570000000000013,-108.63568071663616
-0.4847,-107.56050012873874
-0.48370000000000013,-106.90973293080083
-0.4827,-105.16963803196683
-0.48170000000000013,-104.0095747660775
-0.4807,-102.67974614420436
-0.4797000000000001,-101.30747618333527
-0.4787,-100.5293849684095
-0.4777000000000001,-99.38346881551882
-0.4767,-97.81313927266864
-0.4757000000000001,-96.89357692775637
-0.4747,-96.01645592184003
-0.4737000000000001,-94.87053976894937
-0.4727,-93.68218227706274
-0.4717000000000001,-92.29576520319499
-0.4707,-90.838612564334
-0.4697000000000001,-89.46634260346492
-0.4687,-87.93845439961068
-0.4677000000000001,-86.86327381171324
-0.4667,-86.00029991879558
-0.4657000000000001,-84.769501087913
-0.4647,-83.97726275998858
-0.4637000000000001,-82.87378794609386
