Potential V vs RHE, Current mA cm-2
0.013299999999999867,-0.002205534916489592
0.012299999999999978,-0.9181476336124089
0.011299999999999866,-1.6156003044458718
0.010299999999999976,-2.1828995356917518
0.009299999999999864,-2.662486666345999
0.008299999999999974,-3.055776407708479
0.007299999999999862,-3.361354048479327
0.006299999999999972,-3.6655169779503103
0.00529999999999986,-3.927238568425342
0.0042999999999999705,-4.146518819904423
0.0032999999999998586,-4.364384360083638
0.0022999999999999687,-4.538393849967037
0.0012999999999998568,-4.712403339850438
0.00029999999999996696,-4.843971490737885
-0.000700000000000145,-5.017980980621284
-0.0017000000000000348,-5.149549131508733
-0.0027000000000001467,-5.279702571096316
-0.0037000000000000366,-5.411270721983764
-0.0047000000000001485,-5.585280211867165
-0.005700000000000038,-5.715433651454749
-0.00670000000000015,-5.847001802342197
-0.00770000000000004,-5.977155241929781
-0.008700000000000152,-6.108723392817228
-0.009700000000000042,-6.196435493408861
-0.010700000000000154,-6.326588932996443
-0.011700000000000044,-6.414301033588076
-0.012700000000000156,-6.54445447317566
-0.013700000000000045,-6.6760226240631075
-0.014700000000000157,-6.762320013354876
-0.015700000000000047,-6.893888164242324
-0.01670000000000016,-7.024041603829907
-0.01770000000000005,-7.155609754717355
-0.01870000000000016,-7.28576319430494
-0.01970000000000005,-7.4173313451923875
-0.020700000000000163,-7.591340835075788
-0.021700000000000053,-7.722908985963235
-0.022700000000000164,-7.809206375255003
-0.023700000000000054,-7.940774526142452
-0.024700000000000166,-8.027071915434218
-0.025700000000000056,-8.158640066321666
-0.026700000000000168,-8.288793505909249
-0.027700000000000058,-8.4203616567967
-0.02870000000000017,-8.508073757388331
-0.02970000000000006,-8.638227196975913
-0.03070000000000017,-8.769795347863363
-0.03170000000000006,-8.899948787450944
-0.03270000000000017,-9.073958277334345
-0.03370000000000006,-9.24938247851761
-0.034700000000000175,-9.335679867809377
-0.035700000000000065,-9.511104068992642
-0.03670000000000018,-9.641257508580225
-0.03770000000000007,-9.728969609171857
-0.03870000000000018,-9.902979099055257
-0.03970000000000007,-10.034547249942705
-0.04070000000000018,-10.164700689530287
-0.04170000000000007,-10.296268840417738
-0.04270000000000018,-10.42642228000532
-0.04370000000000007,-10.601846481188586
-0.044700000000000184,-10.775855971071984
-0.045700000000000074,-10.949865460955383
-0.046700000000000186,-11.123874950838783
-0.047700000000000076,-11.299299152022046
-0.04870000000000019,-11.473308641905447
-0.04970000000000008,-11.604876792792895
-0.05070000000000019,-11.778886282676295
-0.05170000000000008,-11.952895772559694
-0.05270000000000019,-12.084463923447142
-0.05370000000000008,-12.214617363034726
-0.05470000000000019,-12.390041564217992
-0.05570000000000008,-12.56405105410139
-0.056700000000000195,-12.73806054398479
-0.057700000000000085,-12.913484745168056
-0.058700000000000196,-13.13135028534727
-0.059700000000000086,-13.349215825526485
-0.0607000000000002,-13.523225315409885
-0.06170000000000009,-13.698649516593148
-0.0627000000000002,-13.872659006476551
-0.06370000000000009,-14.046668496359947
-0.0647000000000002,-14.217848563643619
-0.06570000000000009,-14.401761032626075
-0.0667000000000002,-14.529085049613924
-0.0677000000000001,-14.69885040559773
-0.0687000000000002,-14.868615761581536
-0.0697000000000001,-15.094969569559943
-0.07070000000000021,-15.264734925543747
-0.0717000000000001,-15.448647394526201
-0.07270000000000021,-15.660854089505953
-0.0737000000000001,-15.830619445489761
-0.07470000000000021,-16.056973253468165
-0.0757000000000001,-16.22673860945197
-0.07670000000000021,-16.396503965435777
-0.0777000000000001,-16.580416434418233
-0.07870000000000021,-16.750181790402035
-0.0797000000000001,-16.877505807389888
-0.08070000000000022,-17.061418276372343
-0.0817000000000001,-17.231183632356142
-0.08270000000000022,-17.358507649344002
-0.08370000000000011,-17.584861457322408
-0.08470000000000022,-17.797068152302163
-0.08570000000000011,-17.966833508285966
-0.08670000000000022,-18.15074597726842
-0.08770000000000011,-18.362952672248177
-0.08870000000000022,-18.53271802823198
-0.08970000000000011,-18.716630497214435
-0.09070000000000022,-18.88639585319824
-0.09170000000000011,-19.056161209182044
-0.09270000000000023,-19.2400736781645
-0.09370000000000012,-19.409839034148305
-0.09470000000000023,-19.579604390132108
-0.09570000000000012,-19.763516859114564
-0.09670000000000023,-19.93328221509837
-0.09770000000000012,-20.159636023076775
-0.09870000000000023,-20.371842718056527
-0.09970000000000012,-20.541608074040333
-0.10070000000000023,-20.76796188201874
-0.10170000000000012,-20.93772723800254
-0.10270000000000024,-21.107492593986347
-0.10370000000000013,-21.248963723972853
-0.10470000000000024,-21.418729079956652
-0.10570000000000013,-21.58849443594046
-0.10670000000000024,-21.729965565926964
-0.10770000000000013,-21.94217226090672
-0.10870000000000024,-22.069496277894572
-0.10970000000000013,-22.253408746877028
-0.11070000000000024,-22.42317410286083
-0.11170000000000013,-22.63538079784059
-0.11270000000000002,-22.819293266823045
-0.11370000000000013,-22.989058622806844
-0.11470000000000002,-23.15882397879065
-0.11570000000000014,-23.342736447773106
-0.11670000000000003,-23.47006046476096
-0.11770000000000014,-23.639825820744765
-0.11870000000000003,-23.767149837732617
-0.11970000000000014,-23.951062306715073
-0.12070000000000003,-24.078386323702922
-0.12170000000000014,-24.290593018682678
-0.12270000000000003,-24.474505487665134
-0.12370000000000014,-24.64427084364894
-0.12470000000000003,-24.870624651627345
-0.12570000000000014,-25.04039000761115
-0.12670000000000003,-25.210155363594954
-0.12770000000000015,-25.39406783257741
-0.12870000000000004,-25.60627452755716
-0.12970000000000015,-25.77603988354097
-0.13070000000000004,-25.959952352523427
-0.13170000000000015,-26.087276369511276
-0.13270000000000004,-26.257041725495082
-0.13370000000000015,-26.38436574248293
-0.13470000000000004,-26.568278211465387
-0.13570000000000015,-26.738043567449193
-0.13670000000000004,-26.9643973754276
-0.13770000000000016,-27.091721392415455
-0.13870000000000005,-27.303928087395207
-0.13970000000000016,-27.487840556377662
-0.14070000000000005,-27.65760591236147
-0.14170000000000016,-27.827371268345274
-0.14270000000000005,-28.011283737327723
-0.14370000000000016,-28.18104909331153
-0.14470000000000005,-28.308373110299385
-0.14570000000000016,-28.435697127287238
-0.14670000000000005,-28.53472691827779
-0.14770000000000016,-28.704492274261593
-0.14870000000000005,-28.91669896924135
-0.14970000000000017,-29.100611438223805
-0.15070000000000006,-29.35525947219951
-0.15170000000000017,-29.581613280177915
-0.15270000000000006,-29.836261314153624
-0.15370000000000017,-30.04846800913338
-0.15470000000000006,-30.274821817111786
-0.15570000000000017,-30.487028512091538
-0.15670000000000006,-30.71338232006995
-0.15770000000000017,-30.88314767605375
-0.15870000000000006,-31.052913032037555
-0.15970000000000018,-31.19438416202406
-0.16070000000000007,-31.36414951800786
-0.16170000000000018,-31.533914873991666
-0.16270000000000007,-31.76026868197007
-0.16370000000000018,-31.930034037953877
-0.16470000000000007,-32.14224073293363
-0.16570000000000018,-32.32615320191609
-0.16670000000000007,-32.49591855789989
-0.16770000000000018,-32.58080123589179
-0.16870000000000007,-32.807155043870196
-0.16970000000000018,-32.93447906085806
-0.17070000000000007,-33.14668575583781
-0.17170000000000019,-33.373039563816214
-0.17270000000000008,-33.50036358080407
-0.1737000000000002,-33.712570275783825
-0.17470000000000008,-33.93892408376223
-0.1757000000000002,-34.193572117737936
-0.17670000000000008,-34.462367264712285
-0.1777000000000002,-34.75945663768395
-0.17870000000000008,-34.98581044566235
-0.1797000000000002,-35.282899818634014
-0.18070000000000008,-35.594136304604326
-0.1817000000000002,-35.90537279057463
-0.18270000000000008,-36.20246216354629
-0.1837000000000002,-36.5136986495166
-0.1847000000000001,-36.768346683492304
-0.1857000000000002,-37.037141830466666
-0.1867000000000001,-37.206907186450465
-0.1877000000000002,-37.41911388143023
-0.1887000000000001,-37.687909028404576
-0.1897000000000002,-37.94255706238028
-0.1907000000000001,-38.211352209354644
-0.1917000000000001,-38.42355890433439
-0.19269999999999998,-38.607471373316855
-0.1937000000000001,-38.777236729300654
-0.19469999999999998,-38.90456074628851
-0.1957000000000001,-39.130914554266916
-0.19669999999999999,-39.34312124924667
-0.1977000000000001,-39.51288660523048
-0.1987,-39.654357735216976
-0.1997000000000001,-39.82412309120078
-0.2007,-39.99388844718459
-0.2017000000000001,-40.220242255162994
-0.2027,-40.43244895014274
-0.2037000000000001,-40.701244097117105
-0.2047,-40.91345079209687
-0.2057000000000001,-41.22468727806717
-0.2067,-41.47933531204288
-0.2077000000000001,-41.79057179801318
-0.2087,-42.087661170984845
-0.2097000000000001,-42.39889765695515
-0.2107,-42.71013414292546
-0.2117000000000001,-43.007223515897124
-0.2127,-43.27601866287147
-0.2137000000000001,-43.53066669684718
-0.2147,-43.75702050482558
-0.2157000000000001,-44.054109877797245
-0.2167,-44.3229050247716
-0.21770000000000012,-44.577553058747306
-0.2187,-44.80390686672572
-0.21970000000000012,-45.05855490070142
-0.2207,-45.32735004767578
-0.22170000000000012,-45.53955674265553
-0.2227,-45.70932209863933
-0.22370000000000012,-45.97811724561369
-0.2247,-46.19032394059345
-0.22570000000000012,-46.41667774857186
-0.2267,-46.586443104555656
-0.22770000000000012,-46.713767121543505
-0.22870000000000001,-46.94012092952192
-0.22970000000000013,-47.19476896349763
-0.23070000000000002,-47.40697565847737
-0.23170000000000013,-47.67577080545174
-0.23270000000000002,-47.93041883942744
-0.23370000000000013,-48.1992139864018
-0.23470000000000002,-48.45386202037751
-0.23570000000000013,-48.68021582835591
-0.23670000000000002,-48.93486386233162
-0.2376999999999999,-49.20365900930597
-0.23870000000000002,-49.373424365289786
-0.2396999999999999,-49.50074838227763
-0.24070000000000003,-49.68466085126009
-0.24169999999999991,-49.81198486824794
-0.24270000000000003,-50.024191563227696
-0.24369999999999992,-50.2505453712061
-0.24470000000000003,-50.46275206618586
-0.24569999999999992,-50.60422319617236
-0.24670000000000003,-50.81642989115212
-0.24769999999999992,-51.127666377122424
-0.24870000000000003,-51.424755750094086
-0.24969999999999992,-51.73599223606439
-0.25070000000000003,-51.990640270040096
-0.2516999999999999,-52.30187675601041
-0.25270000000000004,-52.471642111994214
-0.2536999999999999,-52.59896612898206
-0.25470000000000004,-52.78287859796452
-0.2556999999999999,-52.91020261495237
-0.25670000000000004,-52.995085292944275
-0.25769999999999993,-53.079967970936174
-0.25870000000000004,-53.22143910092268
-0.25969999999999993,-53.26388043991864
-0.26070000000000004,-53.348763117910536
-0.26169999999999993,-53.39120445690648
-0.26270000000000004,-53.476087134898386
-0.26369999999999993,-53.56096981289029
-0.26470000000000005,-53.64585249088219
-0.26569999999999994,-53.74488228187274
-0.26670000000000005,-53.82976495986464
-0.26769999999999994,-53.872206298860604
-0.26870000000000005,-53.9570889768525
-0.26969999999999994,-54.08441299384035
-0.27070000000000005,-54.26832546282281
-0.27169999999999994,-54.43809081880661
-0.27270000000000005,-54.65029751378637
-0.27369999999999994,-54.834209982768826
-0.27470000000000006,-54.961533999756675
-0.27569999999999995,-55.13129935574048
-0.27670000000000006,-55.21618203373238
-0.27769999999999995,-55.357653163718886
-0.27870000000000006,-55.442535841710786
-0.27969999999999995,-55.527418519702685
-0.28070000000000006,-55.484977180706736
-0.28169999999999995,-55.442535841710786
-0.28270000000000006,-55.357653163718886
-0.28369999999999995,-55.31521182472294
-0.28470000000000006,-55.25862337272834
-0.28569999999999995,-55.25862337272834
-0.28670000000000007,-55.357653163718886
-0.28769999999999996,-55.31521182472294
-0.28870000000000007,-55.400094502714836
-0.28969999999999996,-55.442535841710786
-0.29070000000000007,-55.31521182472294
-0.29169999999999996,-55.25862337272834
-0.29270000000000007,-55.21618203373238
-0.29369999999999996,-55.13129935574048
-0.2947000000000001,-55.003975338752625
-0.29569999999999996,-54.876651321764776
-0.2967000000000001,-54.834209982768826
-0.29769999999999996,-54.791768643772876
-0.2987000000000001,-54.73518019177827
-0.29969999999999997,-54.60785617479041
-0.3007000000000001,-54.35320814081471
-0.30169999999999997,-54.08441299384035
-0.3027000000000001,-53.74488228187274
-0.30369999999999997,-53.433645795902436
-0.3047000000000001,-53.12240930993213
-0.30569999999999997,-52.78287859796452
-0.3067000000000001,-52.471642111994214
-0.3077,-52.11796428702795
-0.3087000000000001,-51.82087491405629
-0.3097,-51.55207976708194
-0.3107000000000001,-51.38231441109813
-0.3117,-51.21254905511432
-0.3127000000000001,-51.071077925127824
-0.3137,-50.90131256914402
-0.3147000000000001,-50.81642989115212
-0.3157,-50.68910587416426
-0.3167000000000001,-50.60422319617236
-0.3177,-50.42031072718991
-0.3187000000000001,-50.20810403221015
-0.3197,-50.024191563227696
-0.3207000000000001,-49.81198486824794
-0.3217,-49.557336834272235
-0.3227000000000001,-49.20365900930597
-0.3237,-48.89242252333566
-0.3247000000000001,-48.55289181136806
-0.3257,-48.24165532539775
-0.3267000000000001,-47.93041883942744
-0.3277,-47.67577080545174
-0.3287000000000001,-47.32209298048547
-0.3297,-46.94012092952192
-0.3307000000000001,-46.501560426563756
-0.3317,-46.10544126260155
-0.3327000000000001,-45.666880759643384
-0.3337,-45.36979138667173
-0.3347000000000001,-45.10099623969737
-0.3357,-44.80390686672572
-0.3367000000000001,-44.4926703807554
-0.3377,-44.181433894785094
-0.3387000000000001,-43.92678586080939
-0.3397,-43.70043205283099
-0.3407000000000001,-43.53066669684718
-0.3417,-43.36090134086337
-0.3427000000000001,-43.134547532884966
-0.3437,-42.837458159913304
-0.3447000000000001,-42.483780334947056
-0.3457,-42.2715736399673
-0.3467000000000001,-42.00277849299294
-0.3477,-41.83301313700913
-0.3487000000000001,-41.606659329030734
-0.3497,-41.352011295055014
-0.3507000000000001,-41.04077480908471
-0.3517,-40.78612677510901
-0.3527000000000001,-40.559772967130606
-0.3537,-40.34756627215084
-0.3547000000000001,-40.177800916167044
-0.3557,-39.95144710818864
-0.35670000000000013,-39.696799074212926
-0.3577,-39.38556258824262
-0.35870000000000013,-39.08847321527096
-0.3597,-38.81967806829661
-0.36070000000000013,-38.46600024333035
-0.3617,-38.29623488734655
-0.3626999999999999,-38.08402819236679
-0.3637,-37.77279170639648
-0.3646999999999999,-37.51814367242077
-0.3657,-37.291789864442364
-0.3666999999999999,-37.07958316946261
-0.3677,-36.95225915247476
-0.3686999999999999,-36.81078802248826
-0.36970000000000003,-36.725905344496354
-0.3706999999999999,-36.55613998851254
-0.37170000000000003,-36.37222751953009
-0.3726999999999999,-36.244903502542236
-0.37370000000000003,-36.07513814655844
-0.3746999999999999,-35.94781412957058
-0.37570000000000003,-35.806342999584075
-0.3766999999999999,-35.679018982596226
-0.37770000000000004,-35.55169496560837
-0.3786999999999999,-35.46681228761647
-0.37970000000000004,-35.38192960962457
-0.3806999999999999,-35.282899818634014
-0.38170000000000004,-35.198017140642115
-0.38269999999999993,-35.07069312365426
-0.38370000000000004,-35.02825178465831
-0.38469999999999993,-34.90092776767045
-0.38570000000000004,-34.717015298688004
-0.38669999999999993,-34.632132620696105
-0.38770000000000004,-34.5472499427042
-0.38869999999999993,-34.50480860370825
-0.38970000000000005,-34.41992592571634
-0.39069999999999994,-34.41992592571634
-0.39170000000000005,-34.278454795729836
-0.39269999999999994,-34.236013456733886
-0.39370000000000005,-34.06624810075008
-0.39469999999999994,-34.02380676175414
-0.39570000000000005,-33.93892408376223
-0.39669999999999994,-33.93892408376223
-0.39770000000000005,-33.89648274476628
-0.39869999999999994,-33.81160006677438
-0.39970000000000006,-33.712570275783825
-0.40069999999999995,-33.670128936787876
-0.40170000000000006,-33.670128936787876
-0.40269999999999995,-33.712570275783825
-0.40370000000000006,-33.712570275783825
-0.40469999999999995,-33.81160006677438
-0.40570000000000006,-33.85404140577033
-0.40669999999999995,-33.89648274476628
-0.40770000000000006,-33.89648274476628
-0.40869999999999995,-33.89648274476628
-0.40970000000000006,-33.93892408376223
-0.41069999999999995,-33.98136542275818
-0.41170000000000007,-34.02380676175414
-0.41269999999999996,-33.98136542275818
-0.41370000000000007,-33.98136542275818
-0.41469999999999996,-33.93892408376223
-0.41570000000000007,-33.98136542275818
-0.41669999999999996,-33.98136542275818
-0.41770000000000007,-33.98136542275818
-0.41869999999999996,-34.02380676175414
-0.4197000000000001,-34.06624810075008
-0.42069999999999996,-34.10868943974604
-0.4217000000000001,-34.10868943974604
-0.42269999999999996,-34.06624810075008
-0.4237000000000001,-34.10868943974604
-0.42469999999999997,-34.15113077874198
-0.4257000000000001,-34.15113077874198
-0.42669999999999997,-34.15113077874198
-0.4277000000000001,-34.193572117737936
-0.42869999999999997,-34.236013456733886
-0.4297000000000001,-34.278454795729836
-0.43069999999999997,-34.377484586720385
-0.4317000000000001,-34.50480860370825
-0.4327,-34.67457395969205
-0.4337000000000001,-34.8018979766799
-0.4347,-34.90092776767045
-0.4357000000000001,-35.02825178465831
-0.4367,-35.11313446265021
-0.4377000000000001,-35.240458479638065
-0.4387,-35.42437094862052
-0.4397000000000001,-35.50925362661242
-0.4407,-35.636577643600276
-0.4417000000000001,-35.806342999584075
-0.4427,-35.90537279057463
-0.4437000000000001,-36.07513814655844
-0.4447,-36.244903502542236
-0.4457000000000001,-36.47125731052064
-0.4467,-36.64102266650445
-0.4477000000000001,-36.768346683492304
-0.4487,-36.95225915247476
-0.4497000000000001,-37.037141830466666
-0.4507,-37.164465847454515
-0.4517000000000001,-37.291789864442364
-0.4527,-37.41911388143023
-0.4537000000000001,-37.56058501141672
-0.4547,-37.645467689408626
-0.4557000000000001,-37.81523304539243
-0.4567,-37.94255706238028
-0.4577000000000001,-38.08402819236679
-0.4587,-38.253793548350586
-0.4597000000000001,-38.38111756533845
-0.4607,-38.522588695324956
-0.4617000000000001,-38.6499127123128
-0.4627,-38.734795390304704
-0.4637000000000001,-38.86211940729255
-0.4647,-38.94700208528445
-0.4657000000000001,-39.08847321527096
-0.4667,-39.173355893262865
-0.4677000000000001,-39.258238571254765
-0.4687,-39.38556258824262
-0.4697000000000001,-39.47044526623452
-0.4707,-39.654357735216976
-0.4717000000000001,-39.82412309120078
-0.4727,-39.95144710818864
-0.4737000000000001,-40.135359577171094
-0.4747,-40.26268359415894
-0.4757000000000001,-40.43244895014274
-0.4767,-40.559772967130606
-0.4777000000000001,-40.701244097117105
-0.4787,-40.828568114104954
-0.4797000000000001,-40.95589213109281
-0.4807,-41.139804600075266
-0.48170000000000013,-41.22468727806717
-0.4827,-41.352011295055014
-0.48370000000000013,-41.47933531204288
-0.4847,-41.606659329030734
-0.48570000000000013,-41.74813045901723
-0.4867,-40.95589213109281
-0.48570000000000013,-38.777236729300654
-0.4847,-37.037141830466666
-0.48370000000000013,-35.46681228761647
-0.4827,-34.06624810075008
-0.48170000000000013,-32.764713704874254
-0.4807,-31.57635621298762
-0.4797000000000001,-30.487028512091538
-0.4787,-29.440142150191413
-0.4777000000000001,-28.478138466283188
-0.4767,-27.615164573365515
-0.4757000000000001,-26.738043567449193
-0.4747,-25.91751101352747
-0.4737000000000001,-25.12527268560305
-0.4727,-24.34718147067728
-0.4717000000000001,-23.639825820744765
-0.4707,-22.861734605818995
-0.4697000000000001,-22.196820294882425
-0.4687,-21.54605309694451
-0.4677000000000001,-20.93772723800254
-0.4667,-20.329401379060574
-0.4657000000000001,-19.763516859114564
-0.4647,-19.197632339168546
