Aug. 18, 2024   13:02:00
Cyclic Voltammetry
File: c:/users/guazh/data/20240813_batch_94_500/2024-08-15-exp122\exp122-2024-08-18t12_37_44-arkoh\exp122_cv_sr_200mvs_efin_-2000mv.bin
Data Source:  Experiment
Instrument Model:  CHI760E
Header: CV ran at 200 mVs
Note: 

Init E (V) = -1
High E (V) = -1
Low E (V) = -2
Final E (V) = -1
Init P/N = N
Scan Rate (V/s) = 0.2
Segment = 3
Sample Interval (V) = 0.001
Quiet Time (sec) = 2
Sensitivity (A/V) = 0.01
Comp R (ohm) = 1.6

Results:

Channel 1:
Segment 1:

Segment 2:

Segment 3:

Potential/V, Current/A

-1.000, 5.308e-7
-1.001, 7.774e-7
-1.002, 7.676e-7
-1.003, 7.577e-7
-1.004, 8.564e-7
-1.005, 7.774e-7
-1.006, 1.290e-6
-1.007, 1.152e-6
-1.008, 9.254e-7
-1.009, 1.281e-6
-1.010, 1.083e-6
-1.011, 1.251e-6
-1.012, 1.221e-6
-1.013, 1.133e-6
-1.014, 1.241e-6
-1.015, 1.172e-6
-1.016, 1.527e-6
-1.017, 1.409e-6
-1.018, 1.369e-6
-1.019, 1.527e-6
-1.020, 1.330e-6
-1.021, 1.498e-6
-1.022, 1.399e-6
-1.023, 1.488e-6
-1.024, 1.527e-6
-1.025, 1.596e-6
-1.026, 1.734e-6
-1.027, 1.517e-6
-1.028, 1.527e-6
-1.029, 1.803e-6
-1.030, 1.586e-6
-1.031, 1.685e-6
-1.032, 1.833e-6
-1.033, 1.715e-6
-1.034, 1.734e-6
-1.035, 1.636e-6
-1.036, 1.873e-6
-1.037, 1.725e-6
-1.038, 1.685e-6
-1.039, 2.139e-6
-1.040, 1.764e-6
-1.041, 1.932e-6
-1.042, 1.863e-6
-1.043, 1.912e-6
-1.044, 2.070e-6
-1.045, 1.823e-6
-1.046, 2.129e-6
-1.047, 1.932e-6
-1.048, 1.922e-6
-1.049, 1.961e-6
-1.050, 1.833e-6
-1.051, 2.021e-6
-1.052, 1.932e-6
-1.053, 1.991e-6
-1.054, 2.070e-6
-1.055, 1.892e-6
-1.056, 2.169e-6
-1.057, 2.169e-6
-1.058, 2.040e-6
-1.059, 2.218e-6
-1.060, 2.021e-6
-1.061, 2.297e-6
-1.062, 1.981e-6
-1.063, 2.178e-6
-1.064, 2.445e-6
-1.065, 2.139e-6
-1.066, 2.376e-6
-1.067, 2.297e-6
-1.068, 2.366e-6
-1.069, 2.247e-6
-1.070, 2.159e-6
-1.071, 2.395e-6
-1.072, 2.228e-6
-1.073, 2.287e-6
-1.074, 2.445e-6
-1.075, 2.090e-6
-1.076, 2.583e-6
-1.077, 2.524e-6
-1.078, 2.257e-6
-1.079, 2.435e-6
-1.080, 2.277e-6
-1.081, 2.484e-6
-1.082, 2.553e-6
-1.083, 2.257e-6
-1.084, 2.366e-6
-1.085, 2.415e-6
-1.086, 2.721e-6
-1.087, 2.632e-6
-1.088, 2.524e-6
-1.089, 2.810e-6
-1.090, 2.455e-6
-1.091, 2.553e-6
-1.092, 2.494e-6
-1.093, 2.593e-6
-1.094, 2.534e-6
-1.095, 2.425e-6
-1.096, 2.613e-6
-1.097, 2.583e-6
-1.098, 2.603e-6
-1.099, 2.652e-6
-1.100, 2.465e-6
-1.101, 2.869e-6
-1.102, 2.839e-6
-1.103, 2.573e-6
-1.104, 2.780e-6
-1.105, 2.583e-6
-1.106, 2.711e-6
-1.107, 2.810e-6
-1.108, 2.603e-6
-1.109, 2.751e-6
-1.110, 2.534e-6
-1.111, 2.879e-6
-1.112, 2.731e-6
-1.113, 2.869e-6
-1.114, 3.126e-6
-1.115, 2.682e-6
-1.116, 2.839e-6
-1.117, 2.908e-6
-1.118, 2.859e-6
-1.119, 2.968e-6
-1.120, 2.731e-6
-1.121, 3.056e-6
-1.122, 2.987e-6
-1.123, 2.899e-6
-1.124, 3.096e-6
-1.125, 2.928e-6
-1.126, 2.987e-6
-1.127, 3.175e-6
-1.128, 2.978e-6
-1.129, 3.037e-6
-1.130, 2.968e-6
-1.131, 3.145e-6
-1.132, 2.928e-6
-1.133, 2.997e-6
-1.134, 3.343e-6
-1.135, 2.869e-6
-1.136, 3.204e-6
-1.137, 3.135e-6
-1.138, 2.948e-6
-1.139, 3.165e-6
-1.140, 3.076e-6
-1.141, 3.274e-6
-1.142, 3.283e-6
-1.143, 3.204e-6
-1.144, 3.323e-6
-1.145, 3.047e-6
-1.146, 3.422e-6
-1.147, 3.382e-6
-1.148, 2.997e-6
-1.149, 3.323e-6
-1.150, 3.244e-6
-1.151, 3.155e-6
-1.152, 3.313e-6
-1.153, 3.313e-6
-1.154, 3.422e-6
-1.155, 3.323e-6
-1.156, 3.372e-6
-1.157, 3.412e-6
-1.158, 3.362e-6
-1.159, 3.579e-6
-1.160, 3.500e-6
-1.161, 3.540e-6
-1.162, 3.510e-6
-1.163, 3.451e-6
-1.164, 3.441e-6
-1.165, 3.352e-6
-1.166, 3.737e-6
-1.167, 3.441e-6
-1.168, 3.441e-6
-1.169, 3.698e-6
-1.170, 3.639e-6
-1.171, 3.757e-6
-1.172, 3.510e-6
-1.173, 3.382e-6
-1.174, 3.619e-6
-1.175, 3.491e-6
-1.176, 3.639e-6
-1.177, 3.520e-6
-1.178, 3.717e-6
-1.179, 3.846e-6
-1.180, 3.589e-6
-1.181, 3.944e-6
-1.182, 3.639e-6
-1.183, 3.698e-6
-1.184, 3.885e-6
-1.185, 3.540e-6
-1.186, 3.639e-6
-1.187, 3.668e-6
-1.188, 3.767e-6
-1.189, 3.865e-6
-1.190, 3.579e-6
-1.191, 3.856e-6
-1.192, 3.875e-6
-1.193, 3.708e-6
-1.194, 4.152e-6
-1.195, 3.698e-6
-1.196, 3.954e-6
-1.197, 3.767e-6
-1.198, 3.777e-6
-1.199, 3.954e-6
-1.200, 3.905e-6
-1.201, 3.865e-6
-1.202, 3.836e-6
-1.203, 3.875e-6
-1.204, 4.033e-6
-1.205, 3.885e-6
-1.206, 4.023e-6
-1.207, 4.102e-6
-1.208, 3.856e-6
-1.209, 4.132e-6
-1.210, 3.905e-6
-1.211, 4.033e-6
-1.212, 3.925e-6
-1.213, 4.181e-6
-1.214, 4.102e-6
-1.215, 3.816e-6
-1.216, 4.063e-6
-1.217, 4.073e-6
-1.218, 4.063e-6
-1.219, 4.221e-6
-1.220, 3.974e-6
-1.221, 3.984e-6
-1.222, 4.043e-6
-1.223, 4.211e-6
-1.224, 4.112e-6
-1.225, 4.033e-6
-1.226, 4.161e-6
-1.227, 4.319e-6
-1.228, 3.915e-6
-1.229, 4.290e-6
-1.230, 4.211e-6
-1.231, 4.201e-6
-1.232, 4.359e-6
-1.233, 4.270e-6
-1.234, 4.221e-6
-1.235, 4.398e-6
-1.236, 4.329e-6
-1.237, 4.329e-6
-1.238, 4.467e-6
-1.239, 4.477e-6
-1.240, 4.240e-6
-1.241, 4.605e-6
-1.242, 4.507e-6
-1.243, 4.300e-6
-1.244, 4.586e-6
-1.245, 4.457e-6
-1.246, 4.546e-6
-1.247, 4.448e-6
-1.248, 4.349e-6
-1.249, 4.477e-6
-1.250, 4.309e-6
-1.251, 4.615e-6
-1.252, 4.517e-6
-1.253, 4.477e-6
-1.254, 4.605e-6
-1.255, 4.497e-6
-1.256, 4.744e-6
-1.257, 4.497e-6
-1.258, 4.536e-6
-1.259, 4.635e-6
-1.260, 4.457e-6
-1.261, 4.714e-6
-1.262, 4.526e-6
-1.263, 4.566e-6
-1.264, 4.694e-6
-1.265, 4.556e-6
-1.266, 4.872e-6
-1.267, 4.763e-6
-1.268, 4.645e-6
-1.269, 4.724e-6
-1.270, 4.467e-6
-1.271, 4.763e-6
-1.272, 4.704e-6
-1.273, 4.556e-6
-1.274, 4.763e-6
-1.275, 4.467e-6
-1.276, 5.030e-6
-1.277, 4.645e-6
-1.278, 4.862e-6
-1.279, 4.901e-6
-1.280, 4.684e-6
-1.281, 4.793e-6
-1.282, 4.773e-6
-1.283, 4.862e-6
-1.284, 4.901e-6
-1.285, 4.882e-6
-1.286, 5.000e-6
-1.287, 4.813e-6
-1.288, 4.892e-6
-1.289, 5.049e-6
-1.290, 4.951e-6
-1.291, 4.813e-6
-1.292, 4.951e-6
-1.293, 4.862e-6
-1.294, 4.921e-6
-1.295, 4.714e-6
-1.296, 5.030e-6
-1.297, 5.099e-6
-1.298, 4.901e-6
-1.299, 5.000e-6
-1.300, 5.079e-6
-1.301, 5.128e-6
-1.302, 5.010e-6
-1.303, 4.921e-6
-1.304, 5.040e-6
-1.305, 4.961e-6
-1.306, 5.099e-6
-1.307, 4.990e-6
-1.308, 5.000e-6
-1.309, 5.099e-6
-1.310, 5.030e-6
-1.311, 5.296e-6
-1.312, 5.089e-6
-1.313, 4.980e-6
-1.314, 5.414e-6
-1.315, 4.970e-6
-1.316, 5.128e-6
-1.317, 5.326e-6
-1.318, 5.158e-6
-1.319, 5.355e-6
-1.320, 5.089e-6
-1.321, 5.188e-6
-1.322, 5.118e-6
-1.323, 5.266e-6
-1.324, 5.444e-6
-1.325, 5.079e-6
-1.326, 5.395e-6
-1.327, 5.227e-6
-1.328, 5.336e-6
-1.329, 5.336e-6
-1.330, 5.385e-6
-1.331, 5.197e-6
-1.332, 5.503e-6
-1.333, 5.385e-6
-1.334, 5.474e-6
-1.335, 5.217e-6
-1.336, 5.671e-6
-1.337, 5.493e-6
-1.338, 5.553e-6
-1.339, 5.414e-6
-1.340, 5.188e-6
-1.341, 5.493e-6
-1.342, 5.414e-6
-1.343, 5.464e-6
-1.344, 5.622e-6
-1.345, 5.326e-6
-1.346, 5.602e-6
-1.347, 5.395e-6
-1.348, 5.622e-6
-1.349, 5.651e-6
-1.350, 5.474e-6
-1.351, 5.651e-6
-1.352, 5.513e-6
-1.353, 5.434e-6
-1.354, 5.454e-6
-1.355, 5.513e-6
-1.356, 5.592e-6
-1.357, 5.661e-6
-1.358, 5.681e-6
-1.359, 5.691e-6
-1.360, 5.789e-6
-1.361, 5.691e-6
-1.362, 5.533e-6
-1.363, 5.691e-6
-1.364, 5.789e-6
-1.365, 5.533e-6
-1.366, 5.868e-6
-1.367, 5.661e-6
-1.368, 5.779e-6
-1.369, 5.918e-6
-1.370, 5.691e-6
-1.371, 6.006e-6
-1.372, 5.730e-6
-1.373, 6.016e-6
-1.374, 5.957e-6
-1.375, 5.740e-6
-1.376, 5.997e-6
-1.377, 5.937e-6
-1.378, 5.710e-6
-1.379, 5.839e-6
-1.380, 5.750e-6
-1.381, 5.957e-6
-1.382, 5.592e-6
-1.383, 5.878e-6
-1.384, 6.233e-6
-1.385, 5.740e-6
-1.386, 6.105e-6
-1.387, 6.154e-6
-1.388, 5.967e-6
-1.389, 6.056e-6
-1.390, 5.908e-6
-1.391, 6.204e-6
-1.392, 5.918e-6
-1.393, 5.898e-6
-1.394, 6.105e-6
-1.395, 6.016e-6
-1.396, 6.184e-6
-1.397, 6.115e-6
-1.398, 5.908e-6
-1.399, 6.174e-6
-1.400, 5.957e-6
-1.401, 5.947e-6
-1.402, 6.164e-6
-1.403, 6.075e-6
-1.404, 6.184e-6
-1.405, 6.026e-6
-1.406, 6.362e-6
-1.407, 6.204e-6
-1.408, 6.125e-6
-1.409, 6.223e-6
-1.410, 6.066e-6
-1.411, 6.204e-6
-1.412, 6.243e-6
-1.413, 6.391e-6
-1.414, 6.411e-6
-1.415, 6.214e-6
-1.416, 6.371e-6
-1.417, 6.194e-6
-1.418, 6.342e-6
-1.419, 6.480e-6
-1.420, 6.056e-6
-1.421, 6.332e-6
-1.422, 6.391e-6
-1.423, 6.263e-6
-1.424, 6.342e-6
-1.425, 6.273e-6
-1.426, 6.421e-6
-1.427, 6.460e-6
-1.428, 6.352e-6
-1.429, 6.638e-6
-1.430, 6.440e-6
-1.431, 6.618e-6
-1.432, 6.342e-6
-1.433, 6.332e-6
-1.434, 6.598e-6
-1.435, 6.401e-6
-1.436, 6.579e-6
-1.437, 6.598e-6
-1.438, 6.806e-6
-1.439, 6.618e-6
-1.440, 6.519e-6
-1.441, 6.697e-6
-1.442, 6.569e-6
-1.443, 6.687e-6
-1.444, 6.667e-6
-1.445, 6.460e-6
-1.446, 6.687e-6
-1.447, 6.736e-6
-1.448, 6.746e-6
-1.449, 6.835e-6
-1.450, 6.746e-6
-1.451, 6.746e-6
-1.452, 6.500e-6
-1.453, 6.875e-6
-1.454, 6.717e-6
-1.455, 6.598e-6
-1.456, 6.806e-6
-1.457, 6.766e-6
-1.458, 6.717e-6
-1.459, 6.855e-6
-1.460, 6.825e-6
-1.461, 6.736e-6
-1.462, 6.598e-6
-1.463, 6.855e-6
-1.464, 6.944e-6
-1.465, 6.756e-6
-1.466, 7.092e-6
-1.467, 6.894e-6
-1.468, 6.855e-6
-1.469, 7.141e-6
-1.470, 6.727e-6
-1.471, 7.102e-6
-1.472, 6.904e-6
-1.473, 7.042e-6
-1.474, 7.003e-6
-1.475, 6.894e-6
-1.476, 7.032e-6
-1.477, 6.944e-6
-1.478, 7.131e-6
-1.479, 7.358e-6
-1.480, 6.796e-6
-1.481, 7.023e-6
-1.482, 7.131e-6
-1.483, 6.963e-6
-1.484, 7.289e-6
-1.485, 7.141e-6
-1.486, 7.111e-6
-1.487, 7.180e-6
-1.488, 7.092e-6
-1.489, 7.289e-6
-1.490, 7.131e-6
-1.491, 7.496e-6
-1.492, 7.328e-6
-1.493, 7.289e-6
-1.494, 7.536e-6
-1.495, 7.319e-6
-1.496, 7.368e-6
-1.497, 7.417e-6
-1.498, 7.486e-6
-1.499, 7.338e-6
-1.500, 7.467e-6
-1.501, 7.516e-6
-1.502, 7.319e-6
-1.503, 7.615e-6
-1.504, 7.703e-6
-1.505, 7.397e-6
-1.506, 7.644e-6
-1.507, 7.397e-6
-1.508, 7.615e-6
-1.509, 7.575e-6
-1.510, 7.644e-6
-1.511, 7.812e-6
-1.512, 7.703e-6
-1.513, 7.763e-6
-1.514, 7.871e-6
-1.515, 7.644e-6
-1.516, 7.841e-6
-1.517, 7.763e-6
-1.518, 7.841e-6
-1.519, 8.029e-6
-1.520, 7.772e-6
-1.521, 7.999e-6
-1.522, 7.911e-6
-1.523, 7.881e-6
-1.524, 7.980e-6
-1.525, 7.841e-6
-1.526, 8.088e-6
-1.527, 7.970e-6
-1.528, 8.078e-6
-1.529, 8.404e-6
-1.530, 8.039e-6
-1.531, 8.098e-6
-1.532, 8.147e-6
-1.533, 8.276e-6
-1.534, 8.197e-6
-1.535, 8.147e-6
-1.536, 8.404e-6
-1.537, 8.295e-6
-1.538, 8.256e-6
-1.539, 8.335e-6
-1.540, 8.335e-6
-1.541, 8.522e-6
-1.542, 8.394e-6
-1.543, 8.532e-6
-1.544, 8.562e-6
-1.545, 8.433e-6
-1.546, 8.720e-6
-1.547, 8.414e-6
-1.548, 8.601e-6
-1.549, 8.749e-6
-1.550, 8.710e-6
-1.551, 8.877e-6
-1.552, 8.828e-6
-1.553, 8.907e-6
-1.554, 8.907e-6
-1.555, 8.720e-6
-1.556, 9.085e-6
-1.557, 8.976e-6
-1.558, 9.025e-6
-1.559, 8.887e-6
-1.560, 8.966e-6
-1.561, 9.242e-6
-1.562, 9.016e-6
-1.563, 9.381e-6
-1.564, 9.203e-6
-1.565, 9.085e-6
-1.566, 9.351e-6
-1.567, 9.193e-6
-1.568, 9.361e-6
-1.569, 9.716e-6
-1.570, 9.598e-6
-1.571, 9.450e-6
-1.572, 9.479e-6
-1.573, 9.578e-6
-1.574, 9.607e-6
-1.575, 9.430e-6
-1.576, 9.716e-6
-1.577, 9.607e-6
-1.578, 9.884e-6
-1.579, 9.982e-6
-1.580, 9.903e-6
-1.581, 1.003e-5
-1.582, 9.953e-6
-1.583, 1.006e-5
-1.584, 1.012e-5
-1.585, 9.973e-6
-1.586, 1.005e-5
-1.587, 1.005e-5
-1.588, 1.039e-5
-1.589, 1.039e-5
-1.590, 1.049e-5
-1.591, 1.057e-5
-1.592, 1.052e-5
-1.593, 1.069e-5
-1.594, 1.092e-5
-1.595, 1.057e-5
-1.596, 1.070e-5
-1.597, 1.101e-5
-1.598, 1.092e-5
-1.599, 1.094e-5
-1.600, 1.106e-5
-1.601, 1.131e-5
-1.602, 1.126e-5
-1.603, 1.142e-5
-1.604, 1.169e-5
-1.605, 1.116e-5
-1.606, 1.170e-5
-1.607, 1.161e-5
-1.608, 1.155e-5
-1.609, 1.181e-5
-1.610, 1.188e-5
-1.611, 1.193e-5
-1.612, 1.194e-5
-1.613, 1.241e-5
-1.614, 1.234e-5
-1.615, 1.207e-5
-1.616, 1.252e-5
-1.617, 1.236e-5
-1.618, 1.248e-5
-1.619, 1.266e-5
-1.620, 1.273e-5
-1.621, 1.295e-5
-1.622, 1.273e-5
-1.623, 1.312e-5
-1.624, 1.321e-5
-1.625, 1.332e-5
-1.626, 1.334e-5
-1.627, 1.347e-5
-1.628, 1.369e-5
-1.629, 1.351e-5
-1.630, 1.386e-5
-1.631, 1.415e-5
-1.632, 1.402e-5
-1.633, 1.431e-5
-1.634, 1.443e-5
-1.635, 1.443e-5
-1.636, 1.450e-5
-1.637, 1.459e-5
-1.638, 1.500e-5
-1.639, 1.512e-5
-1.640, 1.534e-5
-1.641, 1.551e-5
-1.642, 1.556e-5
-1.643, 1.565e-5
-1.644, 1.582e-5
-1.645, 1.591e-5
-1.646, 1.629e-5
-1.647, 1.627e-5
-1.648, 1.640e-5
-1.649, 1.655e-5
-1.650, 1.673e-5
-1.651, 1.687e-5
-1.652, 1.699e-5
-1.653, 1.745e-5
-1.654, 1.767e-5
-1.655, 1.744e-5
-1.656, 1.796e-5
-1.657, 1.798e-5
-1.658, 1.827e-5
-1.659, 1.846e-5
-1.660, 1.879e-5
-1.661, 1.915e-5
-1.662, 1.901e-5
-1.663, 1.938e-5
-1.664, 1.965e-5
-1.665, 1.975e-5
-1.666, 2.036e-5
-1.667, 2.033e-5
-1.668, 2.074e-5
-1.669, 2.080e-5
-1.670, 2.109e-5
-1.671, 2.144e-5
-1.672, 2.149e-5
-1.673, 2.180e-5
-1.674, 2.209e-5
-1.675, 2.225e-5
-1.676, 2.278e-5
-1.677, 2.297e-5
-1.678, 2.338e-5
-1.679, 2.377e-5
-1.680, 2.387e-5
-1.681, 2.437e-5
-1.682, 2.453e-5
-1.683, 2.505e-5
-1.684, 2.539e-5
-1.685, 2.570e-5
-1.686, 2.594e-5
-1.687, 2.625e-5
-1.688, 2.672e-5
-1.689, 2.701e-5
-1.690, 2.755e-5
-1.691, 2.791e-5
-1.692, 2.809e-5
-1.693, 2.861e-5
-1.694, 2.923e-5
-1.695, 2.945e-5
-1.696, 3.000e-5
-1.697, 3.025e-5
-1.698, 3.089e-5
-1.699, 3.131e-5
-1.700, 3.151e-5
-1.701, 3.229e-5
-1.702, 3.253e-5
-1.703, 3.327e-5
-1.704, 3.373e-5
-1.705, 3.408e-5
-1.706, 3.460e-5
-1.707, 3.518e-5
-1.708, 3.551e-5
-1.709, 3.617e-5
-1.710, 3.663e-5
-1.711, 3.738e-5
-1.712, 3.765e-5
-1.713, 3.868e-5
-1.714, 3.888e-5
-1.715, 3.957e-5
-1.716, 4.053e-5
-1.717, 4.107e-5
-1.718, 4.175e-5
-1.719, 4.241e-5
-1.720, 4.295e-5
-1.721, 4.377e-5
-1.722, 4.448e-5
-1.723, 4.539e-5
-1.724, 4.598e-5
-1.725, 4.690e-5
-1.726, 4.761e-5
-1.727, 4.813e-5
-1.728, 4.933e-5
-1.729, 5.026e-5
-1.730, 5.055e-5
-1.731, 5.156e-5
-1.732, 5.228e-5
-1.733, 5.343e-5
-1.734, 5.434e-5
-1.735, 5.514e-5
-1.736, 5.586e-5
-1.737, 5.689e-5
-1.738, 5.793e-5
-1.739, 5.875e-5
-1.740, 5.984e-5
-1.741, 6.106e-5
-1.742, 6.200e-5
-1.743, 6.315e-5
-1.744, 6.433e-5
-1.745, 6.506e-5
-1.746, 6.638e-5
-1.747, 6.757e-5
-1.748, 6.862e-5
-1.749, 6.964e-5
-1.750, 7.113e-5
-1.751, 7.216e-5
-1.752, 7.344e-5
-1.753, 7.477e-5
-1.754, 7.619e-5
-1.755, 7.725e-5
-1.756, 7.897e-5
-1.757, 8.009e-5
-1.758, 8.164e-5
-1.759, 8.321e-5
-1.760, 8.473e-5
-1.761, 8.620e-5
-1.762, 8.767e-5
-1.763, 8.933e-5
-1.764, 9.109e-5
-1.765, 9.247e-5
-1.766, 9.439e-5
-1.767, 9.602e-5
-1.768, 9.766e-5
-1.769, 9.957e-5
-1.770, 1.014e-4
-1.771, 1.033e-4
-1.772, 1.049e-4
-1.773, 1.071e-4
-1.774, 1.088e-4
-1.775, 1.108e-4
-1.776, 1.130e-4
-1.777, 1.148e-4
-1.778, 1.171e-4
-1.779, 1.191e-4
-1.780, 1.212e-4
-1.781, 1.235e-4
-1.782, 1.257e-4
-1.783, 1.279e-4
-1.784, 1.303e-4
-1.785, 1.329e-4
-1.786, 1.353e-4
-1.787, 1.379e-4
-1.788, 1.406e-4
-1.789, 1.430e-4
-1.790, 1.460e-4
-1.791, 1.487e-4
-1.792, 1.514e-4
-1.793, 1.541e-4
-1.794, 1.569e-4
-1.795, 1.595e-4
-1.796, 1.623e-4
-1.797, 1.652e-4
-1.798, 1.683e-4
-1.799, 1.715e-4
-1.800, 1.744e-4
-1.801, 1.778e-4
-1.802, 1.809e-4
-1.803, 1.843e-4
-1.804, 1.878e-4
-1.805, 1.910e-4
-1.806, 1.947e-4
-1.807, 1.981e-4
-1.808, 2.017e-4
-1.809, 2.053e-4
-1.810, 2.090e-4
-1.811, 2.131e-4
-1.812, 2.165e-4
-1.813, 2.209e-4
-1.814, 2.249e-4
-1.815, 2.290e-4
-1.816, 2.332e-4
-1.817, 2.374e-4
-1.818, 2.420e-4
-1.819, 2.463e-4
-1.820, 2.507e-4
-1.821, 2.554e-4
-1.822, 2.598e-4
-1.823, 2.648e-4
-1.824, 2.696e-4
-1.825, 2.745e-4
-1.826, 2.798e-4
-1.827, 2.844e-4
-1.828, 2.900e-4
-1.829, 2.952e-4
-1.830, 3.006e-4
-1.831, 3.059e-4
-1.832, 3.113e-4
-1.833, 3.171e-4
-1.834, 3.233e-4
-1.835, 3.290e-4
-1.836, 3.352e-4
-1.837, 3.413e-4
-1.838, 3.475e-4
-1.839, 3.537e-4
-1.840, 3.601e-4
-1.841, 3.666e-4
-1.842, 3.731e-4
-1.843, 3.799e-4
-1.844, 3.868e-4
-1.845, 3.938e-4
-1.846, 4.009e-4
-1.847, 4.078e-4
-1.848, 4.154e-4
-1.849, 4.226e-4
-1.850, 4.300e-4
-1.851, 4.379e-4
-1.852, 4.456e-4
-1.853, 4.532e-4
-1.854, 4.608e-4
-1.855, 4.690e-4
-1.856, 4.770e-4
-1.857, 4.862e-4
-1.858, 4.945e-4
-1.859, 5.027e-4
-1.860, 5.118e-4
-1.861, 5.210e-4
-1.862, 5.300e-4
-1.863, 5.392e-4
-1.864, 5.483e-4
-1.865, 5.576e-4
-1.866, 5.677e-4
-1.867, 5.773e-4
-1.868, 5.881e-4
-1.869, 5.982e-4
-1.870, 6.084e-4
-1.871, 6.185e-4
-1.872, 6.288e-4
-1.873, 6.398e-4
-1.874, 6.517e-4
-1.875, 6.627e-4
-1.876, 6.740e-4
-1.877, 6.856e-4
-1.878, 6.981e-4
-1.879, 7.102e-4
-1.880, 7.219e-4
-1.881, 7.342e-4
-1.882, 7.469e-4
-1.883, 7.594e-4
-1.884, 7.728e-4
-1.885, 7.862e-4
-1.886, 8.007e-4
-1.887, 8.139e-4
-1.888, 8.280e-4
-1.889, 8.420e-4
-1.890, 8.566e-4
-1.891, 8.713e-4
-1.892, 8.865e-4
-1.893, 9.014e-4
-1.894, 9.170e-4
-1.895, 9.324e-4
-1.896, 9.484e-4
-1.897, 9.648e-4
-1.898, 9.818e-4
-1.899, 9.981e-4
-1.900, 1.015e-3
-1.901, 1.032e-3
-1.902, 1.050e-3
-1.903, 1.068e-3
-1.904, 1.086e-3
-1.905, 1.105e-3
-1.906, 1.124e-3
-1.907, 1.143e-3
-1.908, 1.162e-3
-1.909, 1.182e-3
-1.910, 1.201e-3
-1.911, 1.220e-3
-1.912, 1.240e-3
-1.913, 1.261e-3
-1.914, 1.282e-3
-1.915, 1.303e-3
-1.916, 1.325e-3
-1.917, 1.346e-3
-1.918, 1.369e-3
-1.919, 1.391e-3
-1.920, 1.413e-3
-1.921, 1.436e-3
-1.922, 1.459e-3
-1.923, 1.483e-3
-1.924, 1.508e-3
-1.925, 1.531e-3
-1.926, 1.556e-3
-1.927, 1.582e-3
-1.928, 1.608e-3
-1.929, 1.634e-3
-1.930, 1.660e-3
-1.931, 1.687e-3
-1.932, 1.714e-3
-1.933, 1.741e-3
-1.934, 1.769e-3
-1.935, 1.797e-3
-1.936, 1.825e-3
-1.937, 1.854e-3
-1.938, 1.883e-3
-1.939, 1.912e-3
-1.940, 1.942e-3
-1.941, 1.973e-3
-1.942, 2.003e-3
-1.943, 2.034e-3
-1.944, 2.066e-3
-1.945, 2.098e-3
-1.946, 2.130e-3
-1.947, 2.163e-3
-1.948, 2.197e-3
-1.949, 2.230e-3
-1.950, 2.265e-3
-1.951, 2.300e-3
-1.952, 2.335e-3
-1.953, 2.370e-3
-1.954, 2.407e-3
-1.955, 2.444e-3
-1.956, 2.481e-3
-1.957, 2.517e-3
-1.958, 2.555e-3
-1.959, 2.593e-3
-1.960, 2.632e-3
-1.961, 2.672e-3
-1.962, 2.711e-3
-1.963, 2.752e-3
-1.964, 2.792e-3
-1.965, 2.833e-3
-1.966, 2.874e-3
-1.967, 2.916e-3
-1.968, 2.959e-3
-1.969, 3.001e-3
-1.970, 3.045e-3
-1.971, 3.089e-3
-1.972, 3.133e-3
-1.973, 3.178e-3
-1.974, 3.224e-3
-1.975, 3.269e-3
-1.976, 3.314e-3
-1.977, 3.361e-3
-1.978, 3.408e-3
-1.979, 3.454e-3
-1.980, 3.502e-3
-1.981, 3.550e-3
-1.982, 3.598e-3
-1.983, 3.647e-3
-1.984, 3.697e-3
-1.985, 3.746e-3
-1.986, 3.795e-3
-1.987, 3.846e-3
-1.988, 3.898e-3
-1.989, 3.948e-3
-1.990, 4.000e-3
-1.991, 4.053e-3
-1.992, 4.104e-3
-1.993, 4.157e-3
-1.994, 4.209e-3
-1.995, 4.262e-3
-1.996, 4.317e-3
-1.997, 4.370e-3
-1.998, 4.423e-3
-1.999, 4.478e-3
-2.000, 4.496e-3
-1.999, 4.474e-3
-1.998, 4.450e-3
-1.997, 4.423e-3
-1.996, 4.396e-3
-1.995, 4.370e-3
-1.994, 4.343e-3
-1.993, 4.317e-3
-1.992, 4.289e-3
-1.991, 4.261e-3
-1.990, 4.232e-3
-1.989, 4.204e-3
-1.988, 4.175e-3
-1.987, 4.146e-3
-1.986, 4.117e-3
-1.985, 4.087e-3
-1.984, 4.058e-3
-1.983, 4.027e-3
-1.982, 3.998e-3
-1.981, 3.968e-3
-1.980, 3.937e-3
-1.979, 3.907e-3
-1.978, 3.876e-3
-1.977, 3.845e-3
-1.976, 3.814e-3
-1.975, 3.784e-3
-1.974, 3.753e-3
-1.973, 3.723e-3
-1.972, 3.693e-3
-1.971, 3.661e-3
-1.970, 3.631e-3
-1.969, 3.601e-3
-1.968, 3.570e-3
-1.967, 3.539e-3
-1.966, 3.508e-3
-1.965, 3.477e-3
-1.964, 3.447e-3
-1.963, 3.415e-3
-1.962, 3.385e-3
-1.961, 3.354e-3
-1.960, 3.325e-3
-1.959, 3.295e-3
-1.958, 3.263e-3
-1.957, 3.232e-3
-1.956, 3.202e-3
-1.955, 3.171e-3
-1.954, 3.140e-3
-1.953, 3.110e-3
-1.952, 3.080e-3
-1.951, 3.051e-3
-1.950, 3.020e-3
-1.949, 2.991e-3
-1.948, 2.961e-3
-1.947, 2.931e-3
-1.946, 2.902e-3
-1.945, 2.873e-3
-1.944, 2.844e-3
-1.943, 2.814e-3
-1.942, 2.786e-3
-1.941, 2.758e-3
-1.940, 2.729e-3
-1.939, 2.701e-3
-1.938, 2.672e-3
-1.937, 2.643e-3
-1.936, 2.615e-3
-1.935, 2.588e-3
-1.934, 2.559e-3
-1.933, 2.531e-3
-1.932, 2.503e-3
-1.931, 2.476e-3
-1.930, 2.449e-3
-1.929, 2.422e-3
-1.928, 2.394e-3
-1.927, 2.367e-3
-1.926, 2.340e-3
-1.925, 2.313e-3
-1.924, 2.287e-3
-1.923, 2.261e-3
-1.922, 2.235e-3
-1.921, 2.209e-3
-1.920, 2.183e-3
-1.919, 2.158e-3
-1.918, 2.133e-3
-1.917, 2.108e-3
-1.916, 2.082e-3
-1.915, 2.057e-3
-1.914, 2.032e-3
-1.913, 2.007e-3
-1.912, 1.983e-3
-1.911, 1.959e-3
-1.910, 1.935e-3
-1.909, 1.911e-3
-1.908, 1.888e-3
-1.907, 1.864e-3
-1.906, 1.841e-3
-1.905, 1.818e-3
-1.904, 1.795e-3
-1.903, 1.773e-3
-1.902, 1.750e-3
-1.901, 1.727e-3
-1.900, 1.705e-3
-1.899, 1.683e-3
-1.898, 1.662e-3
-1.897, 1.640e-3
-1.896, 1.618e-3
-1.895, 1.597e-3
-1.894, 1.575e-3
-1.893, 1.555e-3
-1.892, 1.534e-3
-1.891, 1.514e-3
-1.890, 1.494e-3
-1.889, 1.474e-3
-1.888, 1.454e-3
-1.887, 1.434e-3
-1.886, 1.414e-3
-1.885, 1.396e-3
-1.884, 1.377e-3
-1.883, 1.358e-3
-1.882, 1.339e-3
-1.881, 1.320e-3
-1.880, 1.302e-3
-1.879, 1.284e-3
-1.878, 1.267e-3
-1.877, 1.249e-3
-1.876, 1.231e-3
-1.875, 1.214e-3
-1.874, 1.198e-3
-1.873, 1.181e-3
-1.872, 1.165e-3
-1.871, 1.149e-3
-1.870, 1.132e-3
-1.869, 1.116e-3
-1.868, 1.100e-3
-1.867, 1.084e-3
-1.866, 1.068e-3
-1.865, 1.053e-3
-1.864, 1.038e-3
-1.863, 1.023e-3
-1.862, 1.008e-3
-1.861, 9.935e-4
-1.860, 9.788e-4
-1.859, 9.647e-4
-1.858, 9.501e-4
-1.857, 9.365e-4
-1.856, 9.228e-4
-1.855, 9.090e-4
-1.854, 8.955e-4
-1.853, 8.827e-4
-1.852, 8.700e-4
-1.851, 8.569e-4
-1.850, 8.441e-4
-1.849, 8.315e-4
-1.848, 8.187e-4
-1.847, 8.065e-4
-1.846, 7.939e-4
-1.845, 7.824e-4
-1.844, 7.702e-4
-1.843, 7.579e-4
-1.842, 7.468e-4
-1.841, 7.353e-4
-1.840, 7.241e-4
-1.839, 7.129e-4
-1.838, 7.018e-4
-1.837, 6.913e-4
-1.836, 6.806e-4
-1.835, 6.703e-4
-1.834, 6.600e-4
-1.833, 6.495e-4
-1.832, 6.396e-4
-1.831, 6.296e-4
-1.830, 6.199e-4
-1.829, 6.109e-4
-1.828, 6.018e-4
-1.827, 5.926e-4
-1.826, 5.836e-4
-1.825, 5.745e-4
-1.824, 5.656e-4
-1.823, 5.561e-4
-1.822, 5.476e-4
-1.821, 5.387e-4
-1.820, 5.305e-4
-1.819, 5.222e-4
-1.818, 5.138e-4
-1.817, 5.058e-4
-1.816, 4.979e-4
-1.815, 4.901e-4
-1.814, 4.827e-4
-1.813, 4.750e-4
-1.812, 4.677e-4
-1.811, 4.602e-4
-1.810, 4.529e-4
-1.809, 4.460e-4
-1.808, 4.390e-4
-1.807, 4.324e-4
-1.806, 4.254e-4
-1.805, 4.189e-4
-1.804, 4.123e-4
-1.803, 4.055e-4
-1.802, 3.994e-4
-1.801, 3.928e-4
-1.800, 3.868e-4
-1.799, 3.807e-4
-1.798, 3.742e-4
-1.797, 3.685e-4
-1.796, 3.626e-4
-1.795, 3.570e-4
-1.794, 3.512e-4
-1.793, 3.456e-4
-1.792, 3.403e-4
-1.791, 3.345e-4
-1.790, 3.294e-4
-1.789, 3.242e-4
-1.788, 3.187e-4
-1.787, 3.138e-4
-1.786, 3.088e-4
-1.785, 3.039e-4
-1.784, 2.992e-4
-1.783, 2.945e-4
-1.782, 2.899e-4
-1.781, 2.853e-4
-1.780, 2.809e-4
-1.779, 2.767e-4
-1.778, 2.720e-4
-1.777, 2.680e-4
-1.776, 2.634e-4
-1.775, 2.591e-4
-1.774, 2.549e-4
-1.773, 2.512e-4
-1.772, 2.470e-4
-1.771, 2.431e-4
-1.770, 2.392e-4
-1.769, 2.358e-4
-1.768, 2.317e-4
-1.767, 2.282e-4
-1.766, 2.245e-4
-1.765, 2.210e-4
-1.764, 2.175e-4
-1.763, 2.140e-4
-1.762, 2.108e-4
-1.761, 2.073e-4
-1.760, 2.041e-4
-1.759, 2.008e-4
-1.758, 1.974e-4
-1.757, 1.946e-4
-1.756, 1.915e-4
-1.755, 1.883e-4
-1.754, 1.855e-4
-1.753, 1.823e-4
-1.752, 1.796e-4
-1.751, 1.767e-4
-1.750, 1.738e-4
-1.749, 1.712e-4
-1.748, 1.681e-4
-1.747, 1.657e-4
-1.746, 1.628e-4
-1.745, 1.606e-4
-1.744, 1.579e-4
-1.743, 1.555e-4
-1.742, 1.531e-4
-1.741, 1.505e-4
-1.740, 1.482e-4
-1.739, 1.460e-4
-1.738, 1.434e-4
-1.737, 1.412e-4
-1.736, 1.388e-4
-1.735, 1.367e-4
-1.734, 1.347e-4
-1.733, 1.323e-4
-1.732, 1.303e-4
-1.731, 1.280e-4
-1.730, 1.263e-4
-1.729, 1.241e-4
-1.728, 1.220e-4
-1.727, 1.205e-4
-1.726, 1.183e-4
-1.725, 1.163e-4
-1.724, 1.143e-4
-1.723, 1.127e-4
-1.722, 1.109e-4
-1.721, 1.090e-4
-1.720, 1.073e-4
-1.719, 1.056e-4
-1.718, 1.038e-4
-1.717, 1.024e-4
-1.716, 1.004e-4
-1.715, 9.894e-5
-1.714, 9.729e-5
-1.713, 9.559e-5
-1.712, 9.431e-5
-1.711, 9.261e-5
-1.710, 9.130e-5
-1.709, 8.989e-5
-1.708, 8.797e-5
-1.707, 8.667e-5
-1.706, 8.519e-5
-1.705, 8.395e-5
-1.704, 8.244e-5
-1.703, 8.118e-5
-1.702, 7.982e-5
-1.701, 7.863e-5
-1.700, 7.716e-5
-1.699, 7.617e-5
-1.698, 7.456e-5
-1.697, 7.343e-5
-1.696, 7.232e-5
-1.695, 7.108e-5
-1.694, 6.985e-5
-1.693, 6.886e-5
-1.692, 6.779e-5
-1.691, 6.642e-5
-1.690, 6.553e-5
-1.689, 6.440e-5
-1.688, 6.309e-5
-1.687, 6.219e-5
-1.686, 6.105e-5
-1.685, 6.008e-5
-1.684, 5.896e-5
-1.683, 5.776e-5
-1.682, 5.732e-5
-1.681, 5.606e-5
-1.680, 5.540e-5
-1.679, 5.429e-5
-1.678, 5.336e-5
-1.677, 5.240e-5
-1.676, 5.146e-5
-1.675, 5.076e-5
-1.674, 4.968e-5
-1.673, 4.887e-5
-1.672, 4.788e-5
-1.671, 4.692e-5
-1.670, 4.640e-5
-1.669, 4.543e-5
-1.668, 4.444e-5
-1.667, 4.410e-5
-1.666, 4.294e-5
-1.665, 4.265e-5
-1.664, 4.146e-5
-1.663, 4.089e-5
-1.662, 4.029e-5
-1.661, 3.926e-5
-1.660, 3.881e-5
-1.659, 3.804e-5
-1.658, 3.724e-5
-1.657, 3.670e-5
-1.656, 3.597e-5
-1.655, 3.526e-5
-1.654, 3.464e-5
-1.653, 3.394e-5
-1.652, 3.339e-5
-1.651, 3.245e-5
-1.650, 3.218e-5
-1.649, 3.145e-5
-1.648, 3.074e-5
-1.647, 3.043e-5
-1.646, 2.971e-5
-1.645, 2.928e-5
-1.644, 2.885e-5
-1.643, 2.802e-5
-1.642, 2.772e-5
-1.641, 2.713e-5
-1.640, 2.676e-5
-1.639, 2.620e-5
-1.638, 2.530e-5
-1.637, 2.498e-5
-1.636, 2.424e-5
-1.635, 2.392e-5
-1.634, 2.369e-5
-1.633, 2.300e-5
-1.632, 2.259e-5
-1.631, 2.209e-5
-1.630, 2.177e-5
-1.629, 2.135e-5
-1.628, 2.070e-5
-1.627, 2.025e-5
-1.626, 1.994e-5
-1.625, 1.958e-5
-1.624, 1.909e-5
-1.623, 1.867e-5
-1.622, 1.858e-5
-1.621, 1.792e-5
-1.620, 1.779e-5
-1.619, 1.730e-5
-1.618, 1.676e-5
-1.617, 1.662e-5
-1.616, 1.610e-5
-1.615, 1.575e-5
-1.614, 1.546e-5
-1.613, 1.502e-5
-1.612, 1.477e-5
-1.611, 1.424e-5
-1.610, 1.420e-5
-1.609, 1.413e-5
-1.608, 1.328e-5
-1.607, 1.325e-5
-1.606, 1.276e-5
-1.605, 1.262e-5
-1.604, 1.232e-5
-1.603, 1.193e-5
-1.602, 1.191e-5
-1.601, 1.134e-5
-1.600, 1.115e-5
-1.599, 1.105e-5
-1.598, 1.041e-5
-1.597, 1.041e-5
-1.596, 9.933e-6
-1.595, 9.913e-6
-1.594, 9.598e-6
-1.593, 9.292e-6
-1.592, 9.114e-6
-1.591, 8.710e-6
-1.590, 8.749e-6
-1.589, 8.532e-6
-1.588, 8.029e-6
-1.587, 7.980e-6
-1.586, 7.654e-6
-1.585, 7.565e-6
-1.584, 7.467e-6
-1.583, 7.161e-6
-1.582, 6.894e-6
-1.581, 6.796e-6
-1.580, 6.529e-6
-1.579, 6.450e-6
-1.578, 6.115e-6
-1.577, 5.987e-6
-1.576, 5.779e-6
-1.575, 5.671e-6
-1.574, 5.464e-6
-1.573, 5.355e-6
-1.572, 5.405e-6
-1.571, 4.901e-6
-1.570, 5.020e-6
-1.569, 4.714e-6
-1.568, 4.497e-6
-1.567, 4.497e-6
-1.566, 4.201e-6
-1.565, 4.201e-6
-1.564, 4.270e-6
-1.563, 3.836e-6
-1.562, 3.806e-6
-1.561, 3.264e-6
-1.560, 3.510e-6
-1.559, 3.412e-6
-1.558, 3.066e-6
-1.557, 2.968e-6
-1.556, 2.968e-6
-1.555, 2.770e-6
-1.554, 2.504e-6
-1.553, 2.386e-6
-1.552, 2.465e-6
-1.551, 2.129e-6
-1.550, 2.346e-6
-1.549, 2.317e-6
-1.548, 2.040e-6
-1.547, 2.139e-6
-1.546, 1.744e-6
-1.545, 1.636e-6
-1.544, 1.537e-6
-1.543, 1.517e-6
-1.542, 1.636e-6
-1.541, 1.073e-6
-1.540, 1.399e-6
-1.539, 1.093e-6
-1.538, 1.034e-6
-1.537, 9.649e-7
-1.536, 7.182e-7
-1.535, 8.366e-7
-1.534, 7.972e-7
-1.533, 6.689e-7
-1.532, 5.012e-7
-1.531, 4.124e-7
-1.530, 4.716e-7
-1.529, 3.927e-7
-1.528, -1.184e-8
-1.527, 2.447e-7
-1.526, -6.117e-8
-1.525, 1.657e-7
-1.524, -3.157e-8
-1.523, -1.697e-7
-1.522, -8.090e-8
-1.521, -3.078e-7
-1.520, -2.388e-7
-1.519, -4.262e-7
-1.518, -5.545e-7
-1.517, -3.769e-7
-1.516, -6.531e-7
-1.515, -6.137e-7
-1.514, -3.769e-7
-1.513, -6.827e-7
-1.512, -5.347e-7
-1.511, -8.504e-7
-1.510, -8.800e-7
-1.509, -8.110e-7
-1.508, -1.087e-6
-1.507, -1.087e-6
-1.506, -9.984e-7
-1.505, -8.998e-7
-1.504, -1.127e-6
-1.503, -1.137e-6
-1.502, -1.058e-6
-1.501, -1.511e-6
-1.500, -1.275e-6
-1.499, -1.186e-6
-1.498, -1.482e-6
-1.497, -1.334e-6
-1.496, -1.581e-6
-1.495, -1.393e-6
-1.494, -1.620e-6
-1.493, -1.640e-6
-1.492, -1.551e-6
-1.491, -1.867e-6
-1.490, -1.551e-6
-1.489, -1.600e-6
-1.488, -1.837e-6
-1.487, -1.650e-6
-1.486, -1.807e-6
-1.485, -1.827e-6
-1.484, -1.847e-6
-1.483, -1.965e-6
-1.482, -1.709e-6
-1.481, -2.143e-6
-1.480, -1.857e-6
-1.479, -2.074e-6
-1.478, -2.222e-6
-1.477, -1.926e-6
-1.476, -2.212e-6
-1.475, -2.084e-6
-1.474, -2.202e-6
-1.473, -2.242e-6
-1.472, -2.261e-6
-1.471, -2.360e-6
-1.470, -2.163e-6
-1.469, -2.222e-6
-1.468, -2.320e-6
-1.467, -2.123e-6
-1.466, -2.478e-6
-1.465, -2.370e-6
-1.464, -2.281e-6
-1.463, -2.281e-6
-1.462, -2.202e-6
-1.461, -2.370e-6
-1.460, -2.419e-6
-1.459, -2.538e-6
-1.458, -2.607e-6
-1.457, -2.528e-6
-1.456, -2.577e-6
-1.455, -2.666e-6
-1.454, -2.429e-6
-1.453, -2.686e-6
-1.452, -2.380e-6
-1.451, -2.666e-6
-1.450, -2.449e-6
-1.449, -2.666e-6
-1.448, -2.636e-6
-1.447, -2.498e-6
-1.446, -2.853e-6
-1.445, -2.409e-6
-1.444, -2.715e-6
-1.443, -2.735e-6
-1.442, -2.459e-6
-1.441, -2.686e-6
-1.440, -2.774e-6
-1.439, -2.597e-6
-1.438, -2.755e-6
-1.437, -2.695e-6
-1.436, -2.794e-6
-1.435, -2.567e-6
-1.434, -3.011e-6
-1.433, -3.011e-6
-1.432, -2.794e-6
-1.431, -2.972e-6
-1.430, -2.774e-6
-1.429, -2.745e-6
-1.428, -3.021e-6
-1.427, -2.834e-6
-1.426, -3.110e-6
-1.425, -2.962e-6
-1.424, -2.912e-6
-1.423, -2.883e-6
-1.422, -2.942e-6
-1.421, -3.031e-6
-1.420, -2.952e-6
-1.419, -3.011e-6
-1.418, -3.070e-6
-1.417, -2.715e-6
-1.416, -3.041e-6
-1.415, -2.705e-6
-1.414, -3.129e-6
-1.413, -3.208e-6
-1.412, -2.991e-6
-1.411, -3.228e-6
-1.410, -2.922e-6
-1.409, -3.110e-6
-1.408, -3.179e-6
-1.407, -3.051e-6
-1.406, -3.110e-6
-1.405, -2.794e-6
-1.404, -2.883e-6
-1.403, -3.218e-6
-1.402, -3.011e-6
-1.401, -3.248e-6
-1.400, -2.962e-6
-1.399, -3.041e-6
-1.398, -3.051e-6
-1.397, -2.952e-6
-1.396, -2.952e-6
-1.395, -3.011e-6
-1.394, -3.129e-6
-1.393, -3.179e-6
-1.392, -3.011e-6
-1.391, -3.376e-6
-1.390, -3.268e-6
-1.389, -2.893e-6
-1.388, -3.129e-6
-1.387, -3.169e-6
-1.386, -3.021e-6
-1.385, -2.903e-6
-1.384, -3.169e-6
-1.383, -3.169e-6
-1.382, -3.110e-6
-1.381, -3.386e-6
-1.380, -3.120e-6
-1.379, -3.080e-6
-1.378, -3.248e-6
-1.377, -2.922e-6
-1.376, -3.317e-6
-1.375, -3.080e-6
-1.374, -3.110e-6
-1.373, -3.366e-6
-1.372, -3.258e-6
-1.371, -3.307e-6
-1.370, -3.021e-6
-1.369, -3.189e-6
-1.368, -3.376e-6
-1.367, -3.080e-6
-1.366, -3.425e-6
-1.365, -3.051e-6
-1.364, -3.169e-6
-1.363, -3.248e-6
-1.362, -3.159e-6
-1.361, -3.268e-6
-1.360, -3.070e-6
-1.359, -3.129e-6
-1.358, -3.406e-6
-1.357, -3.120e-6
-1.356, -3.406e-6
-1.355, -3.307e-6
-1.354, -3.120e-6
-1.353, -3.268e-6
-1.352, -3.327e-6
-1.351, -3.366e-6
-1.350, -3.327e-6
-1.349, -3.277e-6
-1.348, -3.307e-6
-1.347, -3.317e-6
-1.346, -3.347e-6
-1.345, -2.903e-6
-1.344, -3.277e-6
-1.343, -3.248e-6
-1.342, -3.189e-6
-1.341, -3.199e-6
-1.340, -3.297e-6
-1.339, -3.189e-6
-1.338, -3.307e-6
-1.337, -3.356e-6
-1.336, -3.416e-6
-1.335, -3.149e-6
-1.334, -3.297e-6
-1.333, -3.199e-6
-1.332, -3.258e-6
-1.331, -3.425e-6
-1.330, -3.386e-6
-1.329, -3.208e-6
-1.328, -3.337e-6
-1.327, -3.258e-6
-1.326, -3.307e-6
-1.325, -3.327e-6
-1.324, -3.268e-6
-1.323, -3.307e-6
-1.322, -3.218e-6
-1.321, -3.455e-6
-1.320, -3.149e-6
-1.319, -3.199e-6
-1.318, -3.307e-6
-1.317, -3.218e-6
-1.316, -3.327e-6
-1.315, -3.238e-6
-1.314, -2.972e-6
-1.313, -3.435e-6
-1.312, -3.524e-6
-1.311, -3.475e-6
-1.310, -3.356e-6
-1.309, -3.366e-6
-1.308, -3.277e-6
-1.307, -3.208e-6
-1.306, -3.633e-6
-1.305, -3.297e-6
-1.304, -3.445e-6
-1.303, -3.356e-6
-1.302, -3.297e-6
-1.301, -3.406e-6
-1.300, -3.327e-6
-1.299, -3.455e-6
-1.298, -3.347e-6
-1.297, -3.297e-6
-1.296, -3.416e-6
-1.295, -3.169e-6
-1.294, -3.435e-6
-1.293, -3.396e-6
-1.292, -3.218e-6
-1.291, -3.573e-6
-1.290, -3.475e-6
-1.289, -3.445e-6
-1.288, -3.297e-6
-1.287, -3.307e-6
-1.286, -3.189e-6
-1.285, -3.356e-6
-1.284, -3.416e-6
-1.283, -3.347e-6
-1.282, -3.327e-6
-1.281, -3.603e-6
-1.280, -3.356e-6
-1.279, -3.228e-6
-1.278, -3.396e-6
-1.277, -3.534e-6
-1.276, -3.485e-6
-1.275, -3.327e-6
-1.274, -3.534e-6
-1.273, -3.337e-6
-1.272, -3.258e-6
-1.271, -3.277e-6
-1.270, -3.317e-6
-1.269, -3.277e-6
-1.268, -3.504e-6
-1.267, -3.317e-6
-1.266, -3.643e-6
-1.265, -3.406e-6
-1.264, -3.485e-6
-1.263, -3.356e-6
-1.262, -3.376e-6
-1.261, -3.455e-6
-1.260, -3.445e-6
-1.259, -3.307e-6
-1.258, -3.317e-6
-1.257, -3.139e-6
-1.256, -3.406e-6
-1.255, -3.307e-6
-1.254, -3.366e-6
-1.253, -3.534e-6
-1.252, -3.258e-6
-1.251, -3.623e-6
-1.250, -3.376e-6
-1.249, -3.356e-6
-1.248, -3.297e-6
-1.247, -3.258e-6
-1.246, -3.366e-6
-1.245, -3.218e-6
-1.244, -3.386e-6
-1.243, -3.347e-6
-1.242, -3.386e-6
-1.241, -3.504e-6
-1.240, -3.416e-6
-1.239, -3.366e-6
-1.238, -3.573e-6
-1.237, -3.386e-6
-1.236, -3.356e-6
-1.235, -3.455e-6
-1.234, -3.504e-6
-1.233, -3.268e-6
-1.232, -3.169e-6
-1.231, -3.623e-6
-1.230, -3.268e-6
-1.229, -3.425e-6
-1.228, -3.504e-6
-1.227, -3.603e-6
-1.226, -3.425e-6
-1.225, -3.366e-6
-1.224, -3.425e-6
-1.223, -3.524e-6
-1.222, -3.238e-6
-1.221, -3.633e-6
-1.220, -3.475e-6
-1.219, -3.475e-6
-1.218, -3.356e-6
-1.217, -3.287e-6
-1.216, -3.504e-6
-1.215, -3.425e-6
-1.214, -3.682e-6
-1.213, -3.514e-6
-1.212, -3.317e-6
-1.211, -3.662e-6
-1.210, -3.376e-6
-1.209, -3.485e-6
-1.208, -3.445e-6
-1.207, -3.297e-6
-1.206, -3.485e-6
-1.205, -3.425e-6
-1.204, -3.376e-6
-1.203, -3.485e-6
-1.202, -3.455e-6
-1.201, -3.662e-6
-1.200, -3.277e-6
-1.199, -3.731e-6
-1.198, -3.248e-6
-1.197, -3.317e-6
-1.196, -3.712e-6
-1.195, -3.228e-6
-1.194, -3.544e-6
-1.193, -3.445e-6
-1.192, -3.307e-6
-1.191, -3.356e-6
-1.190, -3.564e-6
-1.189, -3.564e-6
-1.188, -3.307e-6
-1.187, -3.475e-6
-1.186, -3.672e-6
-1.185, -3.435e-6
-1.184, -3.564e-6
-1.183, -3.317e-6
-1.182, -3.485e-6
-1.181, -3.623e-6
-1.180, -3.643e-6
-1.179, -3.317e-6
-1.178, -3.633e-6
-1.177, -3.593e-6
-1.176, -3.623e-6
-1.175, -3.603e-6
-1.174, -3.554e-6
-1.173, -3.495e-6
-1.172, -3.504e-6
-1.171, -3.662e-6
-1.170, -3.297e-6
-1.169, -3.544e-6
-1.168, -3.583e-6
-1.167, -3.435e-6
-1.166, -3.524e-6
-1.165, -3.465e-6
-1.164, -3.712e-6
-1.163, -3.593e-6
-1.162, -3.347e-6
-1.161, -3.712e-6
-1.160, -3.514e-6
-1.159, -3.702e-6
-1.158, -3.741e-6
-1.157, -3.228e-6
-1.156, -3.633e-6
-1.155, -3.554e-6
-1.154, -3.425e-6
-1.153, -3.564e-6
-1.152, -3.485e-6
-1.151, -3.554e-6
-1.150, -3.406e-6
-1.149, -3.544e-6
-1.148, -3.672e-6
-1.147, -3.356e-6
-1.146, -3.672e-6
-1.145, -3.495e-6
-1.144, -3.416e-6
-1.143, -3.445e-6
-1.142, -3.425e-6
-1.141, -3.613e-6
-1.140, -3.465e-6
-1.139, -3.662e-6
-1.138, -3.485e-6
-1.137, -3.416e-6
-1.136, -3.603e-6
-1.135, -3.564e-6
-1.134, -3.544e-6
-1.133, -3.573e-6
-1.132, -3.485e-6
-1.131, -3.919e-6
-1.130, -3.573e-6
-1.129, -3.603e-6
-1.128, -3.465e-6
-1.127, -3.643e-6
-1.126, -3.712e-6
-1.125, -3.603e-6
-1.124, -3.613e-6
-1.123, -3.721e-6
-1.122, -3.445e-6
-1.121, -3.485e-6
-1.120, -3.475e-6
-1.119, -3.514e-6
-1.118, -3.672e-6
-1.117, -3.534e-6
-1.116, -3.593e-6
-1.115, -3.534e-6
-1.114, -3.564e-6
-1.113, -3.564e-6
-1.112, -3.435e-6
-1.111, -3.672e-6
-1.110, -3.514e-6
-1.109, -3.524e-6
-1.108, -3.692e-6
-1.107, -3.465e-6
-1.106, -3.731e-6
-1.105, -3.504e-6
-1.104, -3.583e-6
-1.103, -3.573e-6
-1.102, -3.564e-6
-1.101, -3.741e-6
-1.100, -3.534e-6
-1.099, -3.435e-6
-1.098, -3.544e-6
-1.097, -3.406e-6
-1.096, -3.672e-6
-1.095, -3.573e-6
-1.094, -3.820e-6
-1.093, -3.544e-6
-1.092, -3.564e-6
-1.091, -3.790e-6
-1.090, -3.603e-6
-1.089, -3.583e-6
-1.088, -3.731e-6
-1.087, -3.633e-6
-1.086, -3.721e-6
-1.085, -3.712e-6
-1.084, -3.623e-6
-1.083, -3.593e-6
-1.082, -3.603e-6
-1.081, -3.731e-6
-1.080, -3.741e-6
-1.079, -3.721e-6
-1.078, -3.465e-6
-1.077, -3.702e-6
-1.076, -3.751e-6
-1.075, -3.721e-6
-1.074, -3.662e-6
-1.073, -3.761e-6
-1.072, -3.583e-6
-1.071, -3.751e-6
-1.070, -3.840e-6
-1.069, -3.781e-6
-1.068, -3.761e-6
-1.067, -3.672e-6
-1.066, -3.860e-6
-1.065, -3.879e-6
-1.064, -3.869e-6
-1.063, -3.692e-6
-1.062, -3.583e-6
-1.061, -3.938e-6
-1.060, -3.603e-6
-1.059, -3.830e-6
-1.058, -3.751e-6
-1.057, -3.810e-6
-1.056, -3.781e-6
-1.055, -3.761e-6
-1.054, -3.810e-6
-1.053, -3.504e-6
-1.052, -3.554e-6
-1.051, -3.781e-6
-1.050, -3.623e-6
-1.049, -3.889e-6
-1.048, -3.761e-6
-1.047, -3.751e-6
-1.046, -4.126e-6
-1.045, -3.840e-6
-1.044, -3.800e-6
-1.043, -3.889e-6
-1.042, -3.781e-6
-1.041, -3.938e-6
-1.040, -3.672e-6
-1.039, -3.800e-6
-1.038, -3.919e-6
-1.037, -3.721e-6
-1.036, -4.027e-6
-1.035, -3.850e-6
-1.034, -3.820e-6
-1.033, -3.830e-6
-1.032, -3.702e-6
-1.031, -3.988e-6
-1.030, -3.879e-6
-1.029, -3.998e-6
-1.028, -3.800e-6
-1.027, -3.820e-6
-1.026, -3.820e-6
-1.025, -3.879e-6
-1.024, -3.958e-6
-1.023, -3.751e-6
-1.022, -4.017e-6
-1.021, -4.077e-6
-1.020, -3.909e-6
-1.019, -4.086e-6
-1.018, -3.919e-6
-1.017, -3.879e-6
-1.016, -4.067e-6
-1.015, -3.800e-6
-1.014, -3.850e-6
-1.013, -3.830e-6
-1.012, -3.721e-6
-1.011, -4.057e-6
-1.010, -3.958e-6
-1.009, -4.136e-6
-1.008, -4.008e-6
-1.007, -3.889e-6
-1.006, -4.077e-6
-1.005, -3.998e-6
-1.004, -4.165e-6
-1.003, -4.017e-6
-1.002, -3.899e-6
-1.001, -4.215e-6
