Potential V vs RHE, Current mA cm-2
0.013299999999999867,1.7627302796318356
0.012299999999999978,0.8962196084645007
0.011299999999999866,0.3655613998851255
0.010299999999999976,-0.03290618483486075
0.009299999999999864,-0.39583622170223726
0.008299999999999974,-0.7234833587509798
0.007299999999999862,-1.0060012053340277
0.006299999999999972,-1.2391456275517858
0.00529999999999986,-1.4345172580631471
0.0042999999999999705,-1.6453092417430377
0.0032999999999998586,-1.8589306480226582
0.0022999999999999687,-2.049916673504438
0.0012999999999998568,-2.205534916489592
0.00029999999999996696,-2.3413472012766356
-0.000700000000000145,-2.49413602166206
-0.0017000000000000348,-2.662486666345999
-0.0027000000000001467,-2.8011283737327726
-0.0037000000000000366,-2.9185494116215707
-0.0047000000000001485,-3.021823336511718
-0.005700000000000038,-3.1434885083001114
-0.00670000000000015,-3.2821302156868852
-0.00770000000000004,-3.3967218309759533
-0.008700000000000152,-3.4900927767670455
-0.009700000000000042,-3.569316609559488
-0.010700000000000154,-3.6824935135486903
-0.011700000000000044,-3.794255706238028
-0.012700000000000156,-3.8975296311281755
-0.013700000000000045,-3.9725093300210226
-0.014700000000000157,-4.046074317614004
-0.015700000000000047,-4.135201129505503
-0.01670000000000016,-4.225742652696865
-0.01770000000000005,-4.303551774189442
-0.01870000000000016,-4.374287339182693
-0.01970000000000005,-4.433705213777024
-0.020700000000000163,-4.515758469169198
-0.021700000000000053,-4.60629999236056
-0.022700000000000164,-4.682694402553271
-0.023700000000000054,-4.727965164148953
-0.024700000000000166,-4.774650637044499
-0.025700000000000056,-4.84821562463748
-0.026700000000000168,-4.921780612230462
-0.027700000000000058,-4.99393088852358
-0.02870000000000017,-5.03071338232007
-0.02970000000000006,-5.0618370309171015
-0.03070000000000017,-5.118425482911703
-0.03170000000000006,-5.189161047904955
-0.03270000000000017,-5.252823056398881
-0.03370000000000006,-5.278287859796452
-0.034700000000000175,-5.2980938179945625
-0.035700000000000065,-5.347608713489839
-0.03670000000000018,-5.411270721983764
-0.03770000000000007,-5.459370906179177
-0.03870000000000018,-5.479176864377286
-0.03970000000000007,-5.487665132176478
-0.04070000000000018,-5.517374069473643
-0.04170000000000007,-5.564059542369189
-0.04270000000000018,-5.59518319096622
-0.04370000000000007,-5.610745015264735
-0.044700000000000184,-5.607915592665005
-0.045700000000000074,-5.629136262162981
-0.046700000000000186,-5.6715776011589325
-0.047700000000000076,-5.699871827156233
-0.04870000000000019,-5.697042404556503
-0.04970000000000008,-5.682895291557853
-0.05070000000000019,-5.6913835593570425
-0.05170000000000008,-5.723921919253939
-0.05270000000000019,-5.7309954757532635
-0.05370000000000008,-5.719677785354343
-0.05470000000000019,-5.704115961055828
-0.05570000000000008,-5.704115961055828
-0.056700000000000195,-5.722507207954074
-0.057700000000000085,-5.728166053153534
-0.058700000000000196,-5.704115961055828
-0.059700000000000086,-5.6715776011589325
-0.0607000000000002,-5.670162889859067
-0.06170000000000009,-5.687139425457448
-0.0627000000000002,-5.692798270656908
-0.06370000000000009,-5.651771642960822
-0.0647000000000002,-5.613574437864465
-0.06570000000000009,-5.602256747465545
-0.0667000000000002,-5.602256747465545
-0.0677000000000001,-5.58952434576676
-0.0687000000000002,-5.5541565632701335
-0.0697000000000001,-5.510300512974317
-0.07070000000000021,-5.498982822575398
-0.0717000000000001,-5.483420998276882
-0.07270000000000021,-5.479176864377286
-0.0737000000000001,-5.438150236681202
-0.07470000000000021,-5.3815617846866
-0.0757000000000001,-5.3631705377883545
-0.07670000000000021,-5.360341115188624
-0.0777000000000001,-5.339120445690648
-0.07870000000000021,-5.296679106694698
-0.0797000000000001,-5.2457494998995555
-0.08070000000000022,-5.23018767560104
-0.0817000000000001,-5.217455273902255
-0.08270000000000022,-5.191990470504685
-0.08370000000000011,-5.141060863709543
-0.08470000000000022,-5.087301834314672
-0.08570000000000011,-5.057592897017507
-0.08670000000000022,-5.053348763117911
-0.08770000000000011,-5.034957516219666
-0.08870000000000022,-4.991101465923849
-0.08970000000000011,-4.937342436528978
-0.09070000000000022,-4.899145231432622
-0.09170000000000011,-4.8977305201327574
-0.09270000000000023,-4.872265716735186
-0.09370000000000012,-4.82558024383964
-0.09470000000000023,-4.785968327443419
-0.09570000000000012,-4.736453431948143
-0.09670000000000023,-4.730794586748683
-0.09770000000000012,-4.709573917250707
-0.09870000000000023,-4.664303155655026
-0.09970000000000012,-4.6091294149602895
-0.10070000000000023,-4.586494034162449
-0.10170000000000012,-4.570932209863933
-0.10270000000000024,-4.556785096865283
-0.10370000000000013,-4.5044407787702765
-0.10470000000000024,-4.459170017174596
-0.10570000000000013,-4.436534636376755
-0.10670000000000024,-4.428046368577565
-0.10770000000000013,-4.413899255578914
-0.10870000000000024,-4.370043205283098
-0.10970000000000013,-4.317698887188092
-0.11070000000000024,-4.297892928989982
-0.11170000000000013,-4.283745815991331
-0.11270000000000002,-4.271013414292546
-0.11370000000000013,-4.2285720752965945
-0.11470000000000002,-4.177642468501453
-0.11570000000000014,-4.163495355502803
-0.11670000000000003,-4.149348242504152
-0.11770000000000014,-4.138030552105232
-0.11870000000000003,-4.111151037407797
-0.11970000000000014,-4.06163614191252
-0.12070000000000003,-4.024853648116029
-0.12170000000000014,-4.024853648116029
-0.12270000000000003,-4.014950669016974
-0.12370000000000014,-3.982412309120079
-0.12470000000000003,-3.9385562588242617
-0.12570000000000014,-3.9244091458256123
-0.12670000000000003,-3.922994434525747
-0.12770000000000015,-3.915920878026421
-0.12870000000000004,-3.8748942503303354
-0.12970000000000015,-3.8296234887346547
-0.13070000000000004,-3.8027439740372184
-0.13170000000000015,-3.8041586853370832
-0.13270000000000004,-3.7928409949381634
-0.13370000000000015,-3.765961480240728
-0.13470000000000004,-3.7263495638445066
-0.13570000000000015,-3.713617162145721
-0.13670000000000004,-3.7178612960453163
-0.13770000000000016,-3.710787739545991
-0.13870000000000005,-3.6754199570493657
-0.13970000000000016,-3.6343933293532795
-0.14070000000000005,-3.6244903502542236
-0.14170000000000016,-3.623075638954359
-0.14270000000000005,-3.6145873711551686
-0.14370000000000016,-3.5848784338580026
-0.14470000000000005,-3.550925362661242
-0.14570000000000016,-3.542437094862052
-0.14670000000000005,-3.548095940061512
-0.14770000000000016,-3.546681228761647
-0.14870000000000005,-3.519801714064211
-0.14970000000000017,-3.4773603750682605
-0.15070000000000006,-3.4717015298688
-0.15170000000000017,-3.475945663768395
-0.15270000000000006,-3.4745309524685304
-0.15370000000000017,-3.4490661490709593
-0.15470000000000006,-3.412283655274469
-0.15570000000000017,-3.4108689439746036
-0.15670000000000006,-3.4193572117737934
-0.15770000000000017,-3.4179425004739286
-0.15870000000000006,-3.408039521374873
-0.15970000000000018,-3.371257027578382
-0.16070000000000007,-3.3670128936787878
-0.16170000000000018,-3.3755011614779775
-0.16270000000000007,-3.371257027578382
-0.16370000000000018,-3.3542804919800018
-0.16470000000000007,-3.3330598224820265
-0.16570000000000018,-3.321742132083106
-0.16670000000000007,-3.3387186676814866
-0.16770000000000018,-3.335889245081757
-0.16870000000000007,-3.314668575583781
-0.16970000000000018,-3.2892037721862106
-0.17070000000000007,-3.2821302156868852
-0.17170000000000019,-3.2991067512852656
-0.17270000000000008,-3.3047655964847262
-0.1737000000000002,-3.2849596382866153
-0.17470000000000008,-3.2637389687886396
-0.1757000000000002,-3.2665683913883696
-0.17670000000000008,-3.2849596382866153
-0.1777000000000002,-3.2920331947859403
-0.17870000000000008,-3.267983102688235
-0.1797000000000002,-3.2510065670898545
-0.18070000000000008,-3.2510065670898545
-0.1817000000000002,-3.273641947887695
-0.18270000000000008,-3.28354492698675
-0.1837000000000002,-3.267983102688235
-0.1847000000000001,-3.243933010590529
-0.1857000000000002,-3.253835989689584
-0.1867000000000001,-3.270812525287965
-0.1877000000000002,-3.2906184834860754
-0.1887000000000001,-3.279300793087155
-0.1897000000000002,-3.2594948348890447
-0.1907000000000001,-3.267983102688235
-0.1917000000000001,-3.28637434958648
-0.19269999999999998,-3.3047655964847262
-0.1937000000000001,-3.2976920399854004
-0.19469999999999998,-3.27505665918756
-0.1957000000000001,-3.28637434958648
-0.19669999999999999,-3.321742132083106
-0.1977000000000001,-3.3316451111821612
-0.1987,-3.328815688582431
-0.1997000000000001,-3.310424441684186
-0.2007,-3.325986265982701
-0.2017000000000001,-3.362768759779192
-0.2027,-3.3783305840777076
-0.2037000000000001,-3.3726717388782474
-0.2047,-3.3641834710790572
-0.2057000000000001,-3.3783305840777076
-0.2067,-3.4136983665743337
-0.2077000000000001,-3.434919036072309
-0.2087,-3.430674902172714
-0.2097000000000001,-3.432089613472579
-0.2107,-3.4490661490709593
-0.2117000000000001,-3.4816045089678553
-0.2127,-3.4985810445662353
-0.2137000000000001,-3.507069312365426
-0.2147,-3.512728157564886
-0.2157000000000001,-3.541022383562187
-0.2167,-3.572146032159218
-0.21770000000000012,-3.6046843920561136
-0.2187,-3.6004402581565187
-0.21970000000000012,-3.6046843920561136
-0.2207,-3.630149195453684
-0.22170000000000012,-3.669761111849905
-0.2227,-3.7051288943465317
-0.22370000000000012,-3.7051288943465317
-0.2247,-3.710787739545991
-0.22570000000000012,-3.747570233342482
-0.2267,-3.7871821497387033
-0.22770000000000012,-3.8296234887346547
-0.22870000000000001,-3.838111756533844
-0.22970000000000013,-3.840941179133574
-0.23070000000000002,-3.884797229429391
-0.23170000000000013,-3.932897413624801
-0.23270000000000002,-3.9725093300210226
-0.23370000000000013,-3.992315288219133
-0.23470000000000002,-4.002218267318188
-0.23570000000000013,-4.040415472414544
-0.23670000000000002,-4.102662769608606
-0.2376999999999999,-4.142274686004828
-0.23870000000000002,-4.173398334601859
-0.2396999999999999,-4.184716025000778
-0.24070000000000003,-4.224327941396999
-0.24169999999999991,-4.286575238591061
-0.24270000000000003,-4.331846000186743
-0.24369999999999992,-4.357310803584314
-0.24470000000000003,-4.382775606981883
-0.24569999999999992,-4.430875791177296
-0.24670000000000003,-4.5044407787702765
-0.24769999999999992,-4.561029230764878
-0.24870000000000003,-4.579420477663124
-0.24969999999999992,-4.61478826015975
-0.25070000000000003,-4.668547289554621
-0.2516999999999999,-4.7463564110471985
-0.25270000000000004,-4.811433130840991
-0.2536999999999999,-4.84821562463748
-0.25470000000000004,-4.882168695834241
-0.2556999999999999,-4.9571483947270885
-0.25670000000000004,-5.023639825820745
-0.25769999999999993,-5.084472411714942
-0.25870000000000004,-5.139646152409678
-0.25969999999999993,-5.1934051818045495
-0.26070000000000004,-5.275458437196722
-0.26169999999999993,-5.361755826488489
-0.26270000000000004,-5.436735525381336
-0.26369999999999993,-5.490494554776207
-0.26470000000000005,-5.5414241615713475
-0.26569999999999994,-5.6333803960625755
-0.26670000000000005,-5.739483743552454
-0.26769999999999994,-5.824366421544356
-0.26870000000000005,-5.883784296138688
-0.26969999999999994,-5.961593417631265
-0.27070000000000005,-6.062037919921682
-0.27169999999999994,-6.1709706900112895
-0.27270000000000005,-6.282732882700628
-0.27369999999999994,-6.366200849392665
-0.27470000000000006,-6.442595259585377
-0.27569999999999995,-6.568504565273366
-0.27670000000000006,-6.702902138760544
-0.27769999999999995,-6.831640867048262
-0.27870000000000006,-6.941988348437734
-0.27969999999999995,-7.049506407227478
-0.28070000000000006,-7.188148114614252
-0.28169999999999995,-7.35649875929819
-0.28270000000000006,-7.507872868383751
-0.28369999999999995,-7.652173420969983
-0.28470000000000006,-7.795059262256351
-0.28569999999999995,-7.986045287738133
-0.28670000000000007,-8.186934292318968
-0.28769999999999996,-8.383579163000208
-0.28870000000000007,-8.563247498083067
-0.28969999999999996,-8.765551213963766
-0.29070000000000007,-8.989075599342444
-0.29169999999999996,-9.25504132371707
-0.29270000000000007,-9.523836470691428
-0.29369999999999996,-9.781313927266863
-0.2947000000000001,-10.02464427084365
-0.29569999999999996,-10.317489509915713
-0.2967000000000001,-10.682485025280892
-0.29769999999999996,-11.077189477943236
-0.2987000000000001,-11.4266231690099
-0.29969999999999997,-11.855280692869009
-0.3007000000000001,-12.320720710524604
-0.30169999999999997,-12.810210820277907
-0.3027000000000001,-13.34214226902716
-0.30369999999999997,-13.896709098574254
-0.3047000000000001,-14.500790823616628
-0.30569999999999997,-15.236440699546446
-0.3067000000000001,-16.04282614046952
-0.3077,-16.919947146385837
-0.3087000000000001,-17.797068152302163
-0.3097,-18.815660288204988
-0.3107000000000001,-19.961576441095666
-0.3117,-21.2348166109742
-0.3127000000000001,-22.607086571843286
-0.3137,-24.035944984706973
-0.3147000000000001,-25.46480339757066
-0.3157,-27.0209858274222
-0.3167000000000001,-28.647903822266994
-0.3177,-30.317263156107735
-0.3187000000000001,-32.00076960294713
-0.3197,-33.726717388782475
-0.3207000000000001,-35.49510651361377
-0.3217,-37.334231203438314
-0.3227000000000001,-39.187503006261515
-0.3237,-41.04077480908471
-0.3247000000000001,-42.95063506390252
-0.3257,-44.81805397972436
-0.3267000000000001,-46.65717866954891
-0.3277,-48.48215624637481
-0.3287000000000001,-50.335428049198
-0.3297,-52.1038171740293
-0.3307000000000001,-53.84391207286329
-0.3317,-55.65474253669055
-0.3327000000000001,-57.45142588751914
-0.3337,-59.16322656035583
-0.3347000000000001,-60.889174346191176
-0.3357,-62.77074037501168
-0.3367000000000001,-64.45424682185109
-0.3377,-65.9821350257053
-0.3387000000000001,-67.48172900356225
-0.3397,-69.03791143341378
-0.3407000000000001,-70.59409386326533
-0.3417,-72.12198206711957
-0.3427000000000001,-74.00354809594008
-0.3437,-75.14946424883075
-0.3447000000000001,-76.46514575770523
-0.3457,-77.61106191059591
-0.3467000000000001,-79.25212701843935
-0.3477,-80.9497805782774
-0.3487000000000001,-82.39278610413973
-0.3497,-83.94896853399128
-0.3507000000000001,-85.56173941583742
-0.3517,-87.13206895868761
-0.3527000000000001,-88.51848603255536
-0.3537,-89.97563867141633
-0.3547000000000001,-91.33376151928677
-0.3557,-92.76261993215046
-0.35670000000000013,-94.20562545801279
-0.3577,-95.66277809687378
-0.35870000000000013,-97.10578362273613
-0.3597,-99.18540923353773
-0.36070000000000013,-100.34547249942706
-0.3617,-101.60456555630694
-0.3626999999999999,-103.01927685617197
-0.3637,-104.151045896064
-0.3646999999999999,-105.39599183994524
-0.3657,-106.61264355782916
-0.3666999999999999,-108.04150197069285
-0.3677,-109.47036038355654
-0.3686999999999999,-110.94166013541617
-0.36970000000000003,-112.39881277427718
-0.3706999999999999,-113.79937696114357
-0.37170000000000003,-115.19994114800993
-0.3726999999999999,-116.77027069086012
-0.37370000000000003,-117.93033395674945
-0.3746999999999999,-119.13283856163473
-0.37570000000000003,-120.39193161851462
-0.3766999999999999,-121.59443622339991
-0.37770000000000004,-122.89597061927573
-0.3786999999999999,-124.12676945015832
-0.37970000000000004,-125.6122163150166
-0.3806999999999999,-126.84301514589919
-0.38170000000000004,-128.17284376777232
-0.38269999999999993,-129.81390887561577
-0.38370000000000004,-130.53541163854695
-0.38469999999999993,-132.19062385938904
-0.38570000000000004,-133.5063053682635
-0.38669999999999993,-133.20921599529186
-0.38570000000000004,-130.90323657651186
-0.38469999999999993,-128.76702251371566
-0.38370000000000004,-127.04107472788029
-0.38269999999999993,-125.58392208901931
-0.38170000000000004,-123.97115120717316
-0.3806999999999999,-122.51399856831216
-0.37970000000000004,-121.09928726844714
-0.3786999999999999,-119.72701730757805
-0.37770000000000004,-118.26986466871706
-0.3766999999999999,-117.25127253281424
-0.37570000000000003,-115.7516785549573
-0.3746999999999999,-113.94084809113006
-0.37370000000000003,-112.39881277427718
-0.3726999999999999,-110.96995436141347
-0.37170000000000003,-109.42791904456058
-0.3706999999999999,-107.81514816271445
-0.36970000000000003,-106.38628974985076
-0.3686999999999999,-105.5799043089277
-0.3677,-103.92469208808559
-0.3666999999999999,-101.84506647728399
-0.3657,-99.85032354447429
-0.3646999999999999,-98.5063478096025
-0.3637,-97.28969609171857
-0.3626999999999999,-96.11548571283059
-0.3617,-94.7432157519615
-0.36070000000000013,-93.55485826007487
-0.3597,-92.15429407320849
-0.35870000000000013,-90.7537298863421
-0.3577,-89.33901858647707
-0.35670000000000013,-88.06577841659853
-0.3557,-86.99059782870111
-0.3547000000000001,-85.81638744981312
-0.3537,-84.50070594093864
-0.3527000000000001,-83.22746577106011
-0.3517,-81.89763714918698
-0.3507000000000001,-80.70927965730034
-0.3497,-79.69068752139752
-0.3487000000000001,-78.17694643054192
-0.3477,-76.9037062606634
-0.3467000000000001,-75.81437855976732
-0.3457,-74.62602106788069
-0.3447000000000001,-73.38107512399945
-0.3437,-72.13612918011822
-0.3427000000000001,-70.84874189724104
-0.3417,-70.04235645631796
-0.3407000000000001,-68.9813229814192
-0.3397,-67.70808281154066
-0.3387000000000001,-66.34995996367022
-0.3377,-65.11916113278764
-0.3367000000000001,-63.88836230190506
-0.3357,-62.68585769701977
-0.3347000000000001,-61.525794431130436
-0.3337,-60.521349408226264
-0.3327000000000001,-59.5734928373167
-0.3317,-58.68222471840172
-0.3307000000000001,-57.45142588751914
-0.3297,-56.44698086461496
-0.3287000000000001,-55.73962521468245
-0.3277,-54.43809081880661
-0.3267000000000001,-53.37705734390783
-0.3257,-52.528230563988814
-0.3247000000000001,-51.566226880080585
-0.3237,-50.47689917918451
-0.3227000000000001,-50.038338676226346
-0.3217,-48.93486386233162
-0.3207000000000001,-47.95871306542474
-0.3197,-46.82694402553272
-0.3187000000000001,-45.666880759643384
-0.3177,-44.634141510741905
-0.3167000000000001,-43.74287339182693
-0.3157,-42.97892928989981
-0.3147000000000001,-41.90374870200238
-0.3137,-41.12565748707661
-0.3127000000000001,-40.26268359415894
-0.3117,-39.44215104023723
-0.3107000000000001,-38.607471373316855
-0.3097,-37.631320576409976
-0.3087000000000001,-36.754199570493654
-0.3077,-35.806342999584075
-0.3067000000000001,-34.99995755866101
-0.30569999999999997,-34.25016056973254
-0.3047000000000001,-33.40133378981351
-0.30369999999999997,-32.56665412289314
-0.3027000000000001,-31.731974455972775
-0.30169999999999997,-30.939736128048356
-0.3007000000000001,-30.17579202612123
-0.29969999999999997,-29.440142150191413
-0.2987000000000001,-28.647903822266994
-0.29769999999999996,-27.940548172334477
-0.2967000000000001,-27.219045409403304
-0.29569999999999996,-26.469248420474838
-0.2947000000000001,-25.705304318547718
-0.29369999999999996,-24.997948668615198
-0.29270000000000007,-24.304740131681328
-0.29169999999999996,-23.597384481748815
-0.29070000000000007,-22.904175944814945
-0.28969999999999996,-22.225114520879725
-0.28870000000000007,-21.574347322941808
-0.28769999999999996,-21.079198367989047
-0.28670000000000007,-20.400136944053827
-0.28569999999999995,-19.848399537106463
-0.28470000000000006,-19.211779452167196
-0.28369999999999995,-18.603453593225233
-0.28270000000000006,-18.009274847281915
-0.28169999999999995,-17.4433903273359
-0.28070000000000006,-16.99068271137909
-0.27969999999999995,-16.438945304431726
-0.27870000000000006,-15.901355010483012
-0.27769999999999995,-15.3920589425316
-0.27670000000000006,-14.882762874580186
-0.27569999999999995,-14.415908145624723
-0.27470000000000006,-13.936321014970476
-0.27369999999999994,-13.439757348717848
-0.27270000000000005,-12.936120125965894
-0.27169999999999994,-12.496144911707868
-0.27070000000000005,-12.049096140950518
-0.26969999999999994,-11.602047370193167
-0.26870000000000005,-11.15075446553622
-0.26769999999999994,-10.731999920776168
-0.26670000000000005,-10.327392489014768
-0.26569999999999994,-9.949664571950803
