Aug. 11, 2024   02:33:55
Linear Sweep Voltammetry
File: c:/users/guazh/data/20240802_batch_500/2024-08-02-exp78\regeneratedgce-2024-08-11t02_27_37-lsvinkoh\regeneratedgce_lsv_50mvs_efin_-2100mv.bin
Data Source:  Experiment
Instrument Model:  CHI760E
Header: LSV ran at 50 mVs with Efin at -2100mV
Note: 

Init E (V) = -0.6
Final E (V) = -2.1
Scan Rate (V/s) = 0.05
Sample Interval (V) = 0.001
Quiet Time (sec) = 2
Sensitivity (A/V) = 1e-4
Comp R (ohm) = 1.6

Results:

Channel 1:
Ep = -1.961V
ip = 9.214e-4A
Ah = 9.140e-4C

Potential/V, Current/A

-0.600, -3.876e-7
-0.601, -2.347e-7
-0.602, -1.748e-7
-0.603, -1.431e-7
-0.604, -1.187e-7
-0.605, -9.809e-8
-0.606, -7.411e-8
-0.607, -5.517e-8
-0.608, -4.067e-8
-0.609, -2.636e-8
-0.610, -1.531e-8
-0.611, 5.722e-10
-0.612, 1.527e-8
-0.613, 2.386e-8
-0.614, 3.451e-8
-0.615, 4.635e-8
-0.616, 5.829e-8
-0.617, 7.102e-8
-0.618, 7.684e-8
-0.619, 8.394e-8
-0.620, 9.331e-8
-0.621, 1.033e-7
-0.622, 1.148e-7
-0.623, 1.201e-7
-0.624, 1.260e-7
-0.625, 1.343e-7
-0.626, 1.426e-7
-0.627, 1.534e-7
-0.628, 1.580e-7
-0.629, 1.634e-7
-0.630, 1.692e-7
-0.631, 1.779e-7
-0.632, 1.861e-7
-0.633, 1.919e-7
-0.634, 1.961e-7
-0.635, 2.033e-7
-0.636, 2.110e-7
-0.637, 2.191e-7
-0.638, 2.232e-7
-0.639, 2.258e-7
-0.640, 2.311e-7
-0.641, 2.400e-7
-0.642, 2.451e-7
-0.643, 2.496e-7
-0.644, 2.525e-7
-0.645, 2.577e-7
-0.646, 2.648e-7
-0.647, 2.711e-7
-0.648, 2.741e-7
-0.649, 2.768e-7
-0.650, 2.806e-7
-0.651, 2.884e-7
-0.652, 2.960e-7
-0.653, 2.969e-7
-0.654, 2.998e-7
-0.655, 3.032e-7
-0.656, 3.106e-7
-0.657, 3.174e-7
-0.658, 3.178e-7
-0.659, 3.204e-7
-0.660, 3.233e-7
-0.661, 3.306e-7
-0.662, 3.365e-7
-0.663, 3.382e-7
-0.664, 3.406e-7
-0.665, 3.432e-7
-0.666, 3.513e-7
-0.667, 3.558e-7
-0.668, 3.573e-7
-0.669, 3.588e-7
-0.670, 3.628e-7
-0.671, 3.665e-7
-0.672, 3.728e-7
-0.673, 3.745e-7
-0.674, 3.754e-7
-0.675, 3.789e-7
-0.676, 3.846e-7
-0.677, 3.893e-7
-0.678, 3.911e-7
-0.679, 3.923e-7
-0.680, 3.938e-7
-0.681, 4.009e-7
-0.682, 4.046e-7
-0.683, 4.062e-7
-0.684, 4.077e-7
-0.685, 4.097e-7
-0.686, 4.151e-7
-0.687, 4.191e-7
-0.688, 4.206e-7
-0.689, 4.229e-7
-0.690, 4.246e-7
-0.691, 4.308e-7
-0.692, 4.345e-7
-0.693, 4.352e-7
-0.694, 4.361e-7
-0.695, 4.389e-7
-0.696, 4.437e-7
-0.697, 4.489e-7
-0.698, 4.494e-7
-0.699, 4.502e-7
-0.700, 4.517e-7
-0.701, 4.564e-7
-0.702, 4.625e-7
-0.703, 4.620e-7
-0.704, 4.636e-7
-0.705, 4.679e-7
-0.706, 4.716e-7
-0.707, 4.762e-7
-0.708, 4.756e-7
-0.709, 4.758e-7
-0.710, 4.781e-7
-0.711, 4.815e-7
-0.712, 4.871e-7
-0.713, 4.866e-7
-0.714, 4.861e-7
-0.715, 4.893e-7
-0.716, 4.941e-7
-0.717, 4.977e-7
-0.718, 4.983e-7
-0.719, 4.976e-7
-0.720, 4.995e-7
-0.721, 5.050e-7
-0.722, 5.083e-7
-0.723, 5.091e-7
-0.724, 5.094e-7
-0.725, 5.102e-7
-0.726, 5.161e-7
-0.727, 5.194e-7
-0.728, 5.188e-7
-0.729, 5.200e-7
-0.730, 5.223e-7
-0.731, 5.277e-7
-0.732, 5.315e-7
-0.733, 5.308e-7
-0.734, 5.327e-7
-0.735, 5.325e-7
-0.736, 5.385e-7
-0.737, 5.423e-7
-0.738, 5.407e-7
-0.739, 5.426e-7
-0.740, 5.432e-7
-0.741, 5.489e-7
-0.742, 5.524e-7
-0.743, 5.526e-7
-0.744, 5.529e-7
-0.745, 5.534e-7
-0.746, 5.585e-7
-0.747, 5.626e-7
-0.748, 5.618e-7
-0.749, 5.618e-7
-0.750, 5.646e-7
-0.751, 5.669e-7
-0.752, 5.706e-7
-0.753, 5.716e-7
-0.754, 5.711e-7
-0.755, 5.732e-7
-0.756, 5.780e-7
-0.757, 5.818e-7
-0.758, 5.818e-7
-0.759, 5.824e-7
-0.760, 5.827e-7
-0.761, 5.880e-7
-0.762, 5.907e-7
-0.763, 5.909e-7
-0.764, 5.914e-7
-0.765, 5.917e-7
-0.766, 5.974e-7
-0.767, 5.999e-7
-0.768, 6.018e-7
-0.769, 6.028e-7
-0.770, 6.012e-7
-0.771, 6.070e-7
-0.772, 6.099e-7
-0.773, 6.092e-7
-0.774, 6.102e-7
-0.775, 6.112e-7
-0.776, 6.163e-7
-0.777, 6.201e-7
-0.778, 6.182e-7
-0.779, 6.191e-7
-0.780, 6.217e-7
-0.781, 6.246e-7
-0.782, 6.296e-7
-0.783, 6.285e-7
-0.784, 6.289e-7
-0.785, 6.304e-7
-0.786, 6.350e-7
-0.787, 6.383e-7
-0.788, 6.392e-7
-0.789, 6.378e-7
-0.790, 6.402e-7
-0.791, 6.431e-7
-0.792, 6.470e-7
-0.793, 6.475e-7
-0.794, 6.479e-7
-0.795, 6.495e-7
-0.796, 6.536e-7
-0.797, 6.571e-7
-0.798, 6.570e-7
-0.799, 6.570e-7
-0.800, 6.587e-7
-0.801, 6.628e-7
-0.802, 6.652e-7
-0.803, 6.664e-7
-0.804, 6.663e-7
-0.805, 6.666e-7
-0.806, 6.718e-7
-0.807, 6.746e-7
-0.808, 6.745e-7
-0.809, 6.751e-7
-0.810, 6.758e-7
-0.811, 6.810e-7
-0.812, 6.841e-7
-0.813, 6.836e-7
-0.814, 6.855e-7
-0.815, 6.852e-7
-0.816, 6.885e-7
-0.817, 6.925e-7
-0.818, 6.916e-7
-0.819, 6.965e-7
-0.820, 6.980e-7
-0.821, 7.002e-7
-0.822, 7.035e-7
-0.823, 7.026e-7
-0.824, 7.015e-7
-0.825, 7.048e-7
-0.826, 7.081e-7
-0.827, 7.107e-7
-0.828, 7.103e-7
-0.829, 7.111e-7
-0.830, 7.122e-7
-0.831, 7.161e-7
-0.832, 7.195e-7
-0.833, 7.204e-7
-0.834, 7.182e-7
-0.835, 7.208e-7
-0.836, 7.252e-7
-0.837, 7.281e-7
-0.838, 7.281e-7
-0.839, 7.269e-7
-0.840, 7.286e-7
-0.841, 7.332e-7
-0.842, 7.355e-7
-0.843, 7.352e-7
-0.844, 7.372e-7
-0.845, 7.377e-7
-0.846, 7.438e-7
-0.847, 7.456e-7
-0.848, 7.451e-7
-0.849, 7.455e-7
-0.850, 7.457e-7
-0.851, 7.523e-7
-0.852, 7.545e-7
-0.853, 7.544e-7
-0.854, 7.554e-7
-0.855, 7.560e-7
-0.856, 7.605e-7
-0.857, 7.632e-7
-0.858, 7.630e-7
-0.859, 7.644e-7
-0.860, 7.653e-7
-0.861, 7.694e-7
-0.862, 7.729e-7
-0.863, 7.724e-7
-0.864, 7.731e-7
-0.865, 7.754e-7
-0.866, 7.793e-7
-0.867, 7.835e-7
-0.868, 7.824e-7
-0.869, 7.824e-7
-0.870, 7.866e-7
-0.871, 7.920e-7
-0.872, 7.945e-7
-0.873, 7.960e-7
-0.874, 7.961e-7
-0.875, 7.968e-7
-0.876, 8.009e-7
-0.877, 8.036e-7
-0.878, 8.040e-7
-0.879, 8.043e-7
-0.880, 8.049e-7
-0.881, 8.096e-7
-0.882, 8.127e-7
-0.883, 8.136e-7
-0.884, 8.140e-7
-0.885, 8.145e-7
-0.886, 8.202e-7
-0.887, 8.232e-7
-0.888, 8.224e-7
-0.889, 8.236e-7
-0.890, 8.225e-7
-0.891, 8.284e-7
-0.892, 8.324e-7
-0.893, 8.308e-7
-0.894, 8.323e-7
-0.895, 8.341e-7
-0.896, 8.389e-7
-0.897, 8.432e-7
-0.898, 8.421e-7
-0.899, 8.431e-7
-0.900, 8.451e-7
-0.901, 8.486e-7
-0.902, 8.529e-7
-0.903, 8.514e-7
-0.904, 8.537e-7
-0.905, 8.549e-7
-0.906, 8.580e-7
-0.907, 8.622e-7
-0.908, 8.620e-7
-0.909, 8.626e-7
-0.910, 8.653e-7
-0.911, 8.688e-7
-0.912, 8.727e-7
-0.913, 8.724e-7
-0.914, 8.722e-7
-0.915, 8.760e-7
-0.916, 8.804e-7
-0.917, 8.826e-7
-0.918, 8.841e-7
-0.919, 8.838e-7
-0.920, 8.847e-7
-0.921, 8.908e-7
-0.922, 8.949e-7
-0.923, 8.962e-7
-0.924, 8.967e-7
-0.925, 8.976e-7
-0.926, 9.021e-7
-0.927, 9.062e-7
-0.928, 9.060e-7
-0.929, 9.091e-7
-0.930, 9.090e-7
-0.931, 9.149e-7
-0.932, 9.182e-7
-0.933, 9.184e-7
-0.934, 9.210e-7
-0.935, 9.230e-7
-0.936, 9.292e-7
-0.937, 9.325e-7
-0.938, 9.318e-7
-0.939, 9.342e-7
-0.940, 9.369e-7
-0.941, 9.409e-7
-0.942, 9.447e-7
-0.943, 9.463e-7
-0.944, 9.475e-7
-0.945, 9.503e-7
-0.946, 9.541e-7
-0.947, 9.590e-7
-0.948, 9.602e-7
-0.949, 9.601e-7
-0.950, 9.636e-7
-0.951, 9.682e-7
-0.952, 9.716e-7
-0.953, 9.740e-7
-0.954, 9.747e-7
-0.955, 9.771e-7
-0.956, 9.816e-7
-0.957, 9.852e-7
-0.958, 9.876e-7
-0.959, 9.880e-7
-0.960, 9.907e-7
-0.961, 9.985e-7
-0.962, 1.001e-6
-0.963, 1.002e-6
-0.964, 1.004e-6
-0.965, 1.005e-6
-0.966, 1.011e-6
-0.967, 1.015e-6
-0.968, 1.016e-6
-0.969, 1.019e-6
-0.970, 1.019e-6
-0.971, 1.026e-6
-0.972, 1.030e-6
-0.973, 1.034e-6
-0.974, 1.034e-6
-0.975, 1.036e-6
-0.976, 1.043e-6
-0.977, 1.047e-6
-0.978, 1.047e-6
-0.979, 1.050e-6
-0.980, 1.053e-6
-0.981, 1.057e-6
-0.982, 1.063e-6
-0.983, 1.063e-6
-0.984, 1.064e-6
-0.985, 1.068e-6
-0.986, 1.073e-6
-0.987, 1.078e-6
-0.988, 1.079e-6
-0.989, 1.079e-6
-0.990, 1.082e-6
-0.991, 1.088e-6
-0.992, 1.092e-6
-0.993, 1.093e-6
-0.994, 1.095e-6
-0.995, 1.097e-6
-0.996, 1.102e-6
-0.997, 1.107e-6
-0.998, 1.110e-6
-0.999, 1.111e-6
-1.000, 1.114e-6
-1.001, 1.119e-6
-1.002, 1.124e-6
-1.003, 1.125e-6
-1.004, 1.128e-6
-1.005, 1.129e-6
-1.006, 1.134e-6
-1.007, 1.138e-6
-1.008, 1.141e-6
-1.009, 1.143e-6
-1.010, 1.144e-6
-1.011, 1.151e-6
-1.012, 1.157e-6
-1.013, 1.157e-6
-1.014, 1.161e-6
-1.015, 1.162e-6
-1.016, 1.169e-6
-1.017, 1.176e-6
-1.018, 1.177e-6
-1.019, 1.181e-6
-1.020, 1.183e-6
-1.021, 1.188e-6
-1.022, 1.192e-6
-1.023, 1.193e-6
-1.024, 1.198e-6
-1.025, 1.200e-6
-1.026, 1.205e-6
-1.027, 1.211e-6
-1.028, 1.213e-6
-1.029, 1.214e-6
-1.030, 1.218e-6
-1.031, 1.224e-6
-1.032, 1.229e-6
-1.033, 1.231e-6
-1.034, 1.231e-6
-1.035, 1.234e-6
-1.036, 1.239e-6
-1.037, 1.246e-6
-1.038, 1.247e-6
-1.039, 1.250e-6
-1.040, 1.253e-6
-1.041, 1.259e-6
-1.042, 1.262e-6
-1.043, 1.266e-6
-1.044, 1.266e-6
-1.045, 1.270e-6
-1.046, 1.278e-6
-1.047, 1.281e-6
-1.048, 1.282e-6
-1.049, 1.285e-6
-1.050, 1.289e-6
-1.051, 1.295e-6
-1.052, 1.302e-6
-1.053, 1.302e-6
-1.054, 1.306e-6
-1.055, 1.308e-6
-1.056, 1.314e-6
-1.057, 1.319e-6
-1.058, 1.320e-6
-1.059, 1.322e-6
-1.060, 1.326e-6
-1.061, 1.332e-6
-1.062, 1.337e-6
-1.063, 1.338e-6
-1.064, 1.341e-6
-1.065, 1.345e-6
-1.066, 1.348e-6
-1.067, 1.353e-6
-1.068, 1.356e-6
-1.069, 1.359e-6
-1.070, 1.362e-6
-1.071, 1.367e-6
-1.072, 1.373e-6
-1.073, 1.375e-6
-1.074, 1.377e-6
-1.075, 1.381e-6
-1.076, 1.389e-6
-1.077, 1.392e-6
-1.078, 1.393e-6
-1.079, 1.395e-6
-1.080, 1.397e-6
-1.081, 1.403e-6
-1.082, 1.407e-6
-1.083, 1.411e-6
-1.084, 1.412e-6
-1.085, 1.414e-6
-1.086, 1.421e-6
-1.087, 1.425e-6
-1.088, 1.427e-6
-1.089, 1.430e-6
-1.090, 1.432e-6
-1.091, 1.438e-6
-1.092, 1.444e-6
-1.093, 1.446e-6
-1.094, 1.448e-6
-1.095, 1.450e-6
-1.096, 1.455e-6
-1.097, 1.462e-6
-1.098, 1.463e-6
-1.099, 1.466e-6
-1.100, 1.468e-6
-1.101, 1.475e-6
-1.102, 1.481e-6
-1.103, 1.481e-6
-1.104, 1.484e-6
-1.105, 1.487e-6
-1.106, 1.493e-6
-1.107, 1.498e-6
-1.108, 1.502e-6
-1.109, 1.504e-6
-1.110, 1.506e-6
-1.111, 1.513e-6
-1.112, 1.517e-6
-1.113, 1.519e-6
-1.114, 1.520e-6
-1.115, 1.523e-6
-1.116, 1.529e-6
-1.117, 1.535e-6
-1.118, 1.538e-6
-1.119, 1.541e-6
-1.120, 1.543e-6
-1.121, 1.550e-6
-1.122, 1.554e-6
-1.123, 1.556e-6
-1.124, 1.557e-6
-1.125, 1.562e-6
-1.126, 1.570e-6
-1.127, 1.575e-6
-1.128, 1.576e-6
-1.129, 1.580e-6
-1.130, 1.582e-6
-1.131, 1.589e-6
-1.132, 1.594e-6
-1.133, 1.597e-6
-1.134, 1.599e-6
-1.135, 1.601e-6
-1.136, 1.609e-6
-1.137, 1.615e-6
-1.138, 1.615e-6
-1.139, 1.619e-6
-1.140, 1.622e-6
-1.141, 1.628e-6
-1.142, 1.634e-6
-1.143, 1.635e-6
-1.144, 1.638e-6
-1.145, 1.642e-6
-1.146, 1.649e-6
-1.147, 1.655e-6
-1.148, 1.656e-6
-1.149, 1.658e-6
-1.150, 1.663e-6
-1.151, 1.669e-6
-1.152, 1.676e-6
-1.153, 1.680e-6
-1.154, 1.682e-6
-1.155, 1.686e-6
-1.156, 1.692e-6
-1.157, 1.698e-6
-1.158, 1.700e-6
-1.159, 1.702e-6
-1.160, 1.706e-6
-1.161, 1.714e-6
-1.162, 1.720e-6
-1.163, 1.724e-6
-1.164, 1.727e-6
-1.165, 1.730e-6
-1.166, 1.739e-6
-1.167, 1.743e-6
-1.168, 1.747e-6
-1.169, 1.750e-6
-1.170, 1.754e-6
-1.171, 1.762e-6
-1.172, 1.770e-6
-1.173, 1.771e-6
-1.174, 1.774e-6
-1.175, 1.777e-6
-1.176, 1.785e-6
-1.177, 1.793e-6
-1.178, 1.799e-6
-1.179, 1.801e-6
-1.180, 1.804e-6
-1.181, 1.812e-6
-1.182, 1.819e-6
-1.183, 1.821e-6
-1.184, 1.826e-6
-1.185, 1.830e-6
-1.186, 1.837e-6
-1.187, 1.845e-6
-1.188, 1.849e-6
-1.189, 1.851e-6
-1.190, 1.857e-6
-1.191, 1.865e-6
-1.192, 1.872e-6
-1.193, 1.877e-6
-1.194, 1.881e-6
-1.195, 1.885e-6
-1.196, 1.894e-6
-1.197, 1.901e-6
-1.198, 1.905e-6
-1.199, 1.907e-6
-1.200, 1.912e-6
-1.201, 1.921e-6
-1.202, 1.929e-6
-1.203, 1.935e-6
-1.204, 1.939e-6
-1.205, 1.942e-6
-1.206, 1.953e-6
-1.207, 1.959e-6
-1.208, 1.962e-6
-1.209, 1.968e-6
-1.210, 1.973e-6
-1.211, 1.983e-6
-1.212, 1.992e-6
-1.213, 1.995e-6
-1.214, 2.000e-6
-1.215, 2.005e-6
-1.216, 2.015e-6
-1.217, 2.025e-6
-1.218, 2.028e-6
-1.219, 2.033e-6
-1.220, 2.039e-6
-1.221, 2.050e-6
-1.222, 2.059e-6
-1.223, 2.064e-6
-1.224, 2.070e-6
-1.225, 2.076e-6
-1.226, 2.085e-6
-1.227, 2.095e-6
-1.228, 2.100e-6
-1.229, 2.113e-6
-1.230, 2.118e-6
-1.231, 2.125e-6
-1.232, 2.135e-6
-1.233, 2.142e-6
-1.234, 2.146e-6
-1.235, 2.153e-6
-1.236, 2.161e-6
-1.237, 2.169e-6
-1.238, 2.177e-6
-1.239, 2.181e-6
-1.240, 2.187e-6
-1.241, 2.198e-6
-1.242, 2.208e-6
-1.243, 2.213e-6
-1.244, 2.220e-6
-1.245, 2.224e-6
-1.246, 2.235e-6
-1.247, 2.245e-6
-1.248, 2.252e-6
-1.249, 2.257e-6
-1.250, 2.262e-6
-1.251, 2.273e-6
-1.252, 2.284e-6
-1.253, 2.289e-6
-1.254, 2.298e-6
-1.255, 2.305e-6
-1.256, 2.314e-6
-1.257, 2.325e-6
-1.258, 2.329e-6
-1.259, 2.337e-6
-1.260, 2.343e-6
-1.261, 2.353e-6
-1.262, 2.365e-6
-1.263, 2.371e-6
-1.264, 2.378e-6
-1.265, 2.386e-6
-1.266, 2.396e-6
-1.267, 2.407e-6
-1.268, 2.412e-6
-1.269, 2.416e-6
-1.270, 2.422e-6
-1.271, 2.431e-6
-1.272, 2.441e-6
-1.273, 2.447e-6
-1.274, 2.451e-6
-1.275, 2.457e-6
-1.276, 2.465e-6
-1.277, 2.475e-6
-1.278, 2.479e-6
-1.279, 2.482e-6
-1.280, 2.491e-6
-1.281, 2.501e-6
-1.282, 2.507e-6
-1.283, 2.513e-6
-1.284, 2.517e-6
-1.285, 2.520e-6
-1.286, 2.530e-6
-1.287, 2.538e-6
-1.288, 2.542e-6
-1.289, 2.545e-6
-1.290, 2.551e-6
-1.291, 2.561e-6
-1.292, 2.571e-6
-1.293, 2.576e-6
-1.294, 2.579e-6
-1.295, 2.579e-6
-1.296, 2.588e-6
-1.297, 2.595e-6
-1.298, 2.597e-6
-1.299, 2.600e-6
-1.300, 2.604e-6
-1.301, 2.611e-6
-1.302, 2.620e-6
-1.303, 2.622e-6
-1.304, 2.625e-6
-1.305, 2.629e-6
-1.306, 2.635e-6
-1.307, 2.643e-6
-1.308, 2.644e-6
-1.309, 2.644e-6
-1.310, 2.647e-6
-1.311, 2.654e-6
-1.312, 2.662e-6
-1.313, 2.665e-6
-1.314, 2.667e-6
-1.315, 2.670e-6
-1.316, 2.675e-6
-1.317, 2.681e-6
-1.318, 2.682e-6
-1.319, 2.684e-6
-1.320, 2.686e-6
-1.321, 2.692e-6
-1.322, 2.696e-6
-1.323, 2.698e-6
-1.324, 2.700e-6
-1.325, 2.702e-6
-1.326, 2.709e-6
-1.327, 2.714e-6
-1.328, 2.718e-6
-1.329, 2.720e-6
-1.330, 2.722e-6
-1.331, 2.730e-6
-1.332, 2.737e-6
-1.333, 2.738e-6
-1.334, 2.740e-6
-1.335, 2.741e-6
-1.336, 2.746e-6
-1.337, 2.756e-6
-1.338, 2.756e-6
-1.339, 2.759e-6
-1.340, 2.762e-6
-1.341, 2.769e-6
-1.342, 2.780e-6
-1.343, 2.781e-6
-1.344, 2.784e-6
-1.345, 2.788e-6
-1.346, 2.795e-6
-1.347, 2.803e-6
-1.348, 2.808e-6
-1.349, 2.809e-6
-1.350, 2.815e-6
-1.351, 2.823e-6
-1.352, 2.839e-6
-1.353, 2.851e-6
-1.354, 2.856e-6
-1.355, 2.860e-6
-1.356, 2.863e-6
-1.357, 2.869e-6
-1.358, 2.869e-6
-1.359, 2.870e-6
-1.360, 2.874e-6
-1.361, 2.883e-6
-1.362, 2.892e-6
-1.363, 2.898e-6
-1.364, 2.901e-6
-1.365, 2.902e-6
-1.366, 2.910e-6
-1.367, 2.917e-6
-1.368, 2.919e-6
-1.369, 2.925e-6
-1.370, 2.930e-6
-1.371, 2.941e-6
-1.372, 2.949e-6
-1.373, 2.953e-6
-1.374, 2.957e-6
-1.375, 2.961e-6
-1.376, 2.970e-6
-1.377, 2.979e-6
-1.378, 2.984e-6
-1.379, 2.989e-6
-1.380, 2.994e-6
-1.381, 3.002e-6
-1.382, 3.016e-6
-1.383, 3.020e-6
-1.384, 3.023e-6
-1.385, 3.028e-6
-1.386, 3.038e-6
-1.387, 3.051e-6
-1.388, 3.057e-6
-1.389, 3.060e-6
-1.390, 3.068e-6
-1.391, 3.075e-6
-1.392, 3.087e-6
-1.393, 3.093e-6
-1.394, 3.097e-6
-1.395, 3.104e-6
-1.396, 3.118e-6
-1.397, 3.129e-6
-1.398, 3.135e-6
-1.399, 3.138e-6
-1.400, 3.144e-6
-1.401, 3.160e-6
-1.402, 3.171e-6
-1.403, 3.179e-6
-1.404, 3.186e-6
-1.405, 3.194e-6
-1.406, 3.210e-6
-1.407, 3.221e-6
-1.408, 3.230e-6
-1.409, 3.235e-6
-1.410, 3.239e-6
-1.411, 3.249e-6
-1.412, 3.261e-6
-1.413, 3.270e-6
-1.414, 3.278e-6
-1.415, 3.285e-6
-1.416, 3.299e-6
-1.417, 3.312e-6
-1.418, 3.320e-6
-1.419, 3.329e-6
-1.420, 3.338e-6
-1.421, 3.352e-6
-1.422, 3.368e-6
-1.423, 3.375e-6
-1.424, 3.383e-6
-1.425, 3.393e-6
-1.426, 3.406e-6
-1.427, 3.422e-6
-1.428, 3.433e-6
-1.429, 3.440e-6
-1.430, 3.451e-6
-1.431, 3.463e-6
-1.432, 3.479e-6
-1.433, 3.492e-6
-1.434, 3.504e-6
-1.435, 3.514e-6
-1.436, 3.528e-6
-1.437, 3.544e-6
-1.438, 3.559e-6
-1.439, 3.570e-6
-1.440, 3.589e-6
-1.441, 3.610e-6
-1.442, 3.624e-6
-1.443, 3.634e-6
-1.444, 3.640e-6
-1.445, 3.648e-6
-1.446, 3.663e-6
-1.447, 3.679e-6
-1.448, 3.693e-6
-1.449, 3.706e-6
-1.450, 3.717e-6
-1.451, 3.734e-6
-1.452, 3.752e-6
-1.453, 3.766e-6
-1.454, 3.776e-6
-1.455, 3.787e-6
-1.456, 3.807e-6
-1.457, 3.828e-6
-1.458, 3.840e-6
-1.459, 3.852e-6
-1.460, 3.865e-6
-1.461, 3.882e-6
-1.462, 3.903e-6
-1.463, 3.914e-6
-1.464, 3.926e-6
-1.465, 3.942e-6
-1.466, 3.957e-6
-1.467, 3.979e-6
-1.468, 3.993e-6
-1.469, 4.005e-6
-1.470, 4.020e-6
-1.471, 4.038e-6
-1.472, 4.058e-6
-1.473, 4.073e-6
-1.474, 4.086e-6
-1.475, 4.101e-6
-1.476, 4.121e-6
-1.477, 4.142e-6
-1.478, 4.160e-6
-1.479, 4.171e-6
-1.480, 4.186e-6
-1.481, 4.208e-6
-1.482, 4.225e-6
-1.483, 4.245e-6
-1.484, 4.259e-6
-1.485, 4.281e-6
-1.486, 4.303e-6
-1.487, 4.324e-6
-1.488, 4.341e-6
-1.489, 4.354e-6
-1.490, 4.366e-6
-1.491, 4.388e-6
-1.492, 4.409e-6
-1.493, 4.427e-6
-1.494, 4.443e-6
-1.495, 4.457e-6
-1.496, 4.479e-6
-1.497, 4.504e-6
-1.498, 4.523e-6
-1.499, 4.542e-6
-1.500, 4.558e-6
-1.501, 4.577e-6
-1.502, 4.603e-6
-1.503, 4.620e-6
-1.504, 4.636e-6
-1.505, 4.655e-6
-1.506, 4.677e-6
-1.507, 4.704e-6
-1.508, 4.726e-6
-1.509, 4.741e-6
-1.510, 4.761e-6
-1.511, 4.785e-6
-1.512, 4.810e-6
-1.513, 4.833e-6
-1.514, 4.847e-6
-1.515, 4.868e-6
-1.516, 4.891e-6
-1.517, 4.915e-6
-1.518, 4.936e-6
-1.519, 4.952e-6
-1.520, 4.974e-6
-1.521, 5.002e-6
-1.522, 5.026e-6
-1.523, 5.051e-6
-1.524, 5.069e-6
-1.525, 5.086e-6
-1.526, 5.110e-6
-1.527, 5.137e-6
-1.528, 5.164e-6
-1.529, 5.192e-6
-1.530, 5.217e-6
-1.531, 5.243e-6
-1.532, 5.268e-6
-1.533, 5.284e-6
-1.534, 5.303e-6
-1.535, 5.319e-6
-1.536, 5.347e-6
-1.537, 5.377e-6
-1.538, 5.399e-6
-1.539, 5.420e-6
-1.540, 5.442e-6
-1.541, 5.469e-6
-1.542, 5.502e-6
-1.543, 5.523e-6
-1.544, 5.543e-6
-1.545, 5.567e-6
-1.546, 5.593e-6
-1.547, 5.624e-6
-1.548, 5.649e-6
-1.549, 5.671e-6
-1.550, 5.696e-6
-1.551, 5.723e-6
-1.552, 5.755e-6
-1.553, 5.783e-6
-1.554, 5.805e-6
-1.555, 5.829e-6
-1.556, 5.857e-6
-1.557, 5.887e-6
-1.558, 5.915e-6
-1.559, 5.936e-6
-1.560, 5.963e-6
-1.561, 5.996e-6
-1.562, 6.032e-6
-1.563, 6.061e-6
-1.564, 6.086e-6
-1.565, 6.111e-6
-1.566, 6.144e-6
-1.567, 6.175e-6
-1.568, 6.203e-6
-1.569, 6.231e-6
-1.570, 6.253e-6
-1.571, 6.288e-6
-1.572, 6.322e-6
-1.573, 6.350e-6
-1.574, 6.379e-6
-1.575, 6.409e-6
-1.576, 6.444e-6
-1.577, 6.483e-6
-1.578, 6.512e-6
-1.579, 6.539e-6
-1.580, 6.568e-6
-1.581, 6.604e-6
-1.582, 6.644e-6
-1.583, 6.676e-6
-1.584, 6.707e-6
-1.585, 6.742e-6
-1.586, 6.778e-6
-1.587, 6.821e-6
-1.588, 6.856e-6
-1.589, 6.882e-6
-1.590, 6.913e-6
-1.591, 6.953e-6
-1.592, 6.996e-6
-1.593, 7.032e-6
-1.594, 7.062e-6
-1.595, 7.095e-6
-1.596, 7.136e-6
-1.597, 7.180e-6
-1.598, 7.220e-6
-1.599, 7.252e-6
-1.600, 7.287e-6
-1.601, 7.329e-6
-1.602, 7.374e-6
-1.603, 7.415e-6
-1.604, 7.452e-6
-1.605, 7.489e-6
-1.606, 7.535e-6
-1.607, 7.584e-6
-1.608, 7.633e-6
-1.609, 7.681e-6
-1.610, 7.724e-6
-1.611, 7.773e-6
-1.612, 7.820e-6
-1.613, 7.860e-6
-1.614, 7.903e-6
-1.615, 7.941e-6
-1.616, 7.993e-6
-1.617, 8.047e-6
-1.618, 8.092e-6
-1.619, 8.139e-6
-1.620, 8.183e-6
-1.621, 8.238e-6
-1.622, 8.295e-6
-1.623, 8.340e-6
-1.624, 8.387e-6
-1.625, 8.437e-6
-1.626, 8.492e-6
-1.627, 8.551e-6
-1.628, 8.603e-6
-1.629, 8.649e-6
-1.630, 8.701e-6
-1.631, 8.760e-6
-1.632, 8.824e-6
-1.633, 8.879e-6
-1.634, 8.926e-6
-1.635, 8.987e-6
-1.636, 9.048e-6
-1.637, 9.113e-6
-1.638, 9.180e-6
-1.639, 9.248e-6
-1.640, 9.301e-6
-1.641, 9.363e-6
-1.642, 9.429e-6
-1.643, 9.494e-6
-1.644, 9.556e-6
-1.645, 9.617e-6
-1.646, 9.685e-6
-1.647, 9.762e-6
-1.648, 9.834e-6
-1.649, 9.895e-6
-1.650, 9.958e-6
-1.651, 1.004e-5
-1.652, 1.011e-5
-1.653, 1.018e-5
-1.654, 1.026e-5
-1.655, 1.033e-5
-1.656, 1.041e-5
-1.657, 1.049e-5
-1.658, 1.057e-5
-1.659, 1.065e-5
-1.660, 1.073e-5
-1.661, 1.081e-5
-1.662, 1.091e-5
-1.663, 1.099e-5
-1.664, 1.107e-5
-1.665, 1.116e-5
-1.666, 1.125e-5
-1.667, 1.135e-5
-1.668, 1.145e-5
-1.669, 1.155e-5
-1.670, 1.165e-5
-1.671, 1.174e-5
-1.672, 1.184e-5
-1.673, 1.194e-5
-1.674, 1.202e-5
-1.675, 1.211e-5
-1.676, 1.222e-5
-1.677, 1.233e-5
-1.678, 1.245e-5
-1.679, 1.256e-5
-1.680, 1.267e-5
-1.681, 1.278e-5
-1.682, 1.290e-5
-1.683, 1.302e-5
-1.684, 1.313e-5
-1.685, 1.325e-5
-1.686, 1.338e-5
-1.687, 1.351e-5
-1.688, 1.365e-5
-1.689, 1.377e-5
-1.690, 1.391e-5
-1.691, 1.405e-5
-1.692, 1.419e-5
-1.693, 1.433e-5
-1.694, 1.447e-5
-1.695, 1.461e-5
-1.696, 1.477e-5
-1.697, 1.493e-5
-1.698, 1.508e-5
-1.699, 1.523e-5
-1.700, 1.539e-5
-1.701, 1.555e-5
-1.702, 1.573e-5
-1.703, 1.591e-5
-1.704, 1.608e-5
-1.705, 1.625e-5
-1.706, 1.642e-5
-1.707, 1.662e-5
-1.708, 1.681e-5
-1.709, 1.700e-5
-1.710, 1.719e-5
-1.711, 1.739e-5
-1.712, 1.759e-5
-1.713, 1.780e-5
-1.714, 1.800e-5
-1.715, 1.822e-5
-1.716, 1.843e-5
-1.717, 1.866e-5
-1.718, 1.889e-5
-1.719, 1.912e-5
-1.720, 1.935e-5
-1.721, 1.959e-5
-1.722, 1.984e-5
-1.723, 2.009e-5
-1.724, 2.033e-5
-1.725, 2.059e-5
-1.726, 2.087e-5
-1.727, 2.115e-5
-1.728, 2.142e-5
-1.729, 2.170e-5
-1.730, 2.197e-5
-1.731, 2.225e-5
-1.732, 2.255e-5
-1.733, 2.286e-5
-1.734, 2.316e-5
-1.735, 2.347e-5
-1.736, 2.380e-5
-1.737, 2.414e-5
-1.738, 2.448e-5
-1.739, 2.482e-5
-1.740, 2.516e-5
-1.741, 2.552e-5
-1.742, 2.588e-5
-1.743, 2.624e-5
-1.744, 2.660e-5
-1.745, 2.697e-5
-1.746, 2.735e-5
-1.747, 2.776e-5
-1.748, 2.815e-5
-1.749, 2.856e-5
-1.750, 2.896e-5
-1.751, 2.937e-5
-1.752, 2.981e-5
-1.753, 3.026e-5
-1.754, 3.069e-5
-1.755, 3.115e-5
-1.756, 3.161e-5
-1.757, 3.211e-5
-1.758, 3.260e-5
-1.759, 3.308e-5
-1.760, 3.363e-5
-1.761, 3.403e-5
-1.762, 3.446e-5
-1.763, 3.503e-5
-1.764, 3.553e-5
-1.765, 3.607e-5
-1.766, 3.656e-5
-1.767, 3.712e-5
-1.768, 3.772e-5
-1.769, 3.830e-5
-1.770, 3.886e-5
-1.771, 3.945e-5
-1.772, 4.014e-5
-1.773, 4.073e-5
-1.774, 4.139e-5
-1.775, 4.203e-5
-1.776, 4.267e-5
-1.777, 4.341e-5
-1.778, 4.407e-5
-1.779, 4.474e-5
-1.780, 4.545e-5
-1.781, 4.619e-5
-1.782, 4.695e-5
-1.783, 4.771e-5
-1.784, 4.848e-5
-1.785, 4.921e-5
-1.786, 4.994e-5
-1.787, 5.070e-5
-1.788, 5.150e-5
-1.789, 5.234e-5
-1.790, 5.319e-5
-1.791, 5.399e-5
-1.792, 5.459e-5
-1.793, 5.544e-5
-1.794, 5.631e-5
-1.795, 5.721e-5
-1.796, 5.813e-5
-1.797, 5.904e-5
-1.798, 5.997e-5
-1.799, 6.093e-5
-1.800, 6.193e-5
-1.801, 6.297e-5
-1.802, 6.402e-5
-1.803, 6.510e-5
-1.804, 6.617e-5
-1.805, 6.720e-5
-1.806, 6.828e-5
-1.807, 6.942e-5
-1.808, 7.061e-5
-1.809, 7.179e-5
-1.810, 7.302e-5
-1.811, 7.429e-5
-1.812, 7.557e-5
-1.813, 7.684e-5
-1.814, 7.816e-5
-1.815, 7.951e-5
-1.816, 8.093e-5
-1.817, 8.241e-5
-1.818, 8.384e-5
-1.819, 8.524e-5
-1.820, 8.667e-5
-1.821, 8.817e-5
-1.822, 8.976e-5
-1.823, 9.132e-5
-1.824, 9.299e-5
-1.825, 9.460e-5
-1.826, 9.632e-5
-1.827, 9.807e-5
-1.828, 9.980e-5
-1.829, 1.015e-4
-1.830, 1.033e-4
-1.831, 1.050e-4
-1.832, 1.069e-4
-1.833, 1.088e-4
-1.834, 1.107e-4
-1.835, 1.128e-4
-1.836, 1.148e-4
-1.837, 1.169e-4
-1.838, 1.191e-4
-1.839, 1.214e-4
-1.840, 1.236e-4
-1.841, 1.258e-4
-1.842, 1.281e-4
-1.843, 1.305e-4
-1.844, 1.329e-4
-1.845, 1.353e-4
-1.846, 1.378e-4
-1.847, 1.402e-4
-1.848, 1.429e-4
-1.849, 1.455e-4
-1.850, 1.481e-4
-1.851, 1.508e-4
-1.852, 1.535e-4
-1.853, 1.564e-4
-1.854, 1.593e-4
-1.855, 1.623e-4
-1.856, 1.653e-4
-1.857, 1.684e-4
-1.858, 1.714e-4
-1.859, 1.744e-4
-1.860, 1.774e-4
-1.861, 1.806e-4
-1.862, 1.838e-4
-1.863, 1.870e-4
-1.864, 1.905e-4
-1.865, 1.939e-4
-1.866, 1.973e-4
-1.867, 2.009e-4
-1.868, 2.044e-4
-1.869, 2.080e-4
-1.870, 2.117e-4
-1.871, 2.157e-4
-1.872, 2.197e-4
-1.873, 2.236e-4
-1.874, 2.273e-4
-1.875, 2.312e-4
-1.876, 2.351e-4
-1.877, 2.391e-4
-1.878, 2.434e-4
-1.879, 2.477e-4
-1.880, 2.520e-4
-1.881, 2.566e-4
-1.882, 2.613e-4
-1.883, 2.659e-4
-1.884, 2.706e-4
-1.885, 2.755e-4
-1.886, 2.805e-4
-1.887, 2.855e-4
-1.888, 2.906e-4
-1.889, 2.960e-4
-1.890, 3.011e-4
-1.891, 3.063e-4
-1.892, 3.121e-4
-1.893, 3.177e-4
-1.894, 3.233e-4
-1.895, 3.291e-4
-1.896, 3.349e-4
-1.897, 3.407e-4
-1.898, 3.468e-4
-1.899, 3.529e-4
-1.900, 3.588e-4
-1.901, 3.645e-4
-1.902, 3.703e-4
-1.903, 3.767e-4
-1.904, 3.832e-4
-1.905, 3.899e-4
-1.906, 3.969e-4
-1.907, 4.037e-4
-1.908, 4.105e-4
-1.909, 4.177e-4
-1.910, 4.249e-4
-1.911, 4.323e-4
-1.912, 4.397e-4
-1.913, 4.476e-4
-1.914, 4.555e-4
-1.915, 4.628e-4
-1.916, 4.703e-4
-1.917, 4.785e-4
-1.918, 4.867e-4
-1.919, 4.951e-4
-1.920, 5.034e-4
-1.921, 5.120e-4
-1.922, 5.208e-4
-1.923, 5.296e-4
-1.924, 5.384e-4
-1.925, 5.479e-4
-1.926, 5.576e-4
-1.927, 5.672e-4
-1.928, 5.770e-4
-1.929, 5.868e-4
-1.930, 5.967e-4
-1.931, 6.070e-4
-1.932, 6.174e-4
-1.933, 6.286e-4
-1.934, 6.399e-4
-1.935, 6.511e-4
-1.936, 6.628e-4
-1.937, 6.748e-4
-1.938, 6.865e-4
-1.939, 6.983e-4
-1.940, 7.105e-4
-1.941, 7.223e-4
-1.942, 7.351e-4
-1.943, 7.482e-4
-1.944, 7.616e-4
-1.945, 7.751e-4
-1.946, 7.890e-4
-1.947, 8.030e-4
-1.948, 8.176e-4
-1.949, 8.325e-4
-1.950, 8.471e-4
-1.951, 8.625e-4
-1.952, 8.783e-4
-1.953, 8.942e-4
-1.954, 9.104e-4
-1.955, 9.270e-4
-1.956, 9.446e-4
-1.957, 9.626e-4
-1.958, 9.799e-4
-1.959, 9.969e-4
-1.960, 1.010e-3
-1.961, 1.011e-3
-1.962, 1.011e-3
-1.963, 1.011e-3
-1.964, 1.011e-3
-1.965, 1.011e-3
-1.966, 1.011e-3
-1.967, 1.011e-3
-1.968, 1.011e-3
-1.969, 1.011e-3
-1.970, 1.011e-3
-1.971, 1.011e-3
-1.972, 1.011e-3
-1.973, 1.011e-3
-1.974, 1.011e-3
-1.975, 1.011e-3
-1.976, 1.011e-3
-1.977, 1.011e-3
-1.978, 1.011e-3
-1.979, 1.011e-3
-1.980, 1.011e-3
-1.981, 1.011e-3
-1.982, 1.011e-3
-1.983, 1.011e-3
-1.984, 1.011e-3
-1.985, 1.011e-3
-1.986, 1.011e-3
-1.987, 1.011e-3
-1.988, 1.011e-3
-1.989, 1.011e-3
-1.990, 1.011e-3
-1.991, 1.011e-3
-1.992, 1.011e-3
-1.993, 1.011e-3
-1.994, 1.011e-3
-1.995, 1.011e-3
-1.996, 1.011e-3
-1.997, 1.011e-3
-1.998, 1.011e-3
-1.999, 1.011e-3
-2.000, 1.011e-3
-2.001, 1.011e-3
-2.002, 1.011e-3
-2.003, 1.011e-3
-2.004, 1.011e-3
-2.005, 1.011e-3
-2.006, 1.011e-3
-2.007, 1.011e-3
-2.008, 1.011e-3
-2.009, 1.011e-3
-2.010, 1.011e-3
-2.011, 1.011e-3
-2.012, 1.011e-3
-2.013, 1.011e-3
-2.014, 1.011e-3
-2.015, 1.011e-3
-2.016, 1.011e-3
-2.017, 1.011e-3
-2.018, 1.011e-3
-2.019, 1.011e-3
-2.020, 1.011e-3
-2.021, 1.011e-3
-2.022, 1.011e-3
-2.023, 1.011e-3
-2.024, 1.011e-3
-2.025, 1.011e-3
-2.026, 1.011e-3
-2.027, 1.011e-3
-2.028, 1.011e-3
-2.029, 1.011e-3
-2.030, 1.011e-3
-2.031, 1.011e-3
-2.032, 1.011e-3
-2.033, 1.011e-3
-2.034, 1.011e-3
-2.035, 1.011e-3
-2.036, 1.011e-3
-2.037, 1.011e-3
-2.038, 1.011e-3
-2.039, 1.011e-3
-2.040, 1.011e-3
-2.041, 1.011e-3
-2.042, 1.011e-3
-2.043, 1.011e-3
-2.044, 1.011e-3
-2.045, 1.011e-3
-2.046, 1.011e-3
-2.047, 1.011e-3
-2.048, 1.011e-3
-2.049, 1.011e-3
-2.050, 1.011e-3
-2.051, 1.011e-3
-2.052, 1.011e-3
-2.053, 1.011e-3
-2.054, 1.011e-3
-2.055, 1.011e-3
-2.056, 1.011e-3
-2.057, 1.011e-3
-2.058, 1.011e-3
-2.059, 1.011e-3
-2.060, 1.011e-3
-2.061, 1.011e-3
-2.062, 1.011e-3
-2.063, 1.011e-3
-2.064, 1.011e-3
-2.065, 1.011e-3
-2.066, 1.011e-3
-2.067, 1.011e-3
-2.068, 1.011e-3
-2.069, 1.011e-3
-2.070, 1.011e-3
-2.071, 1.011e-3
-2.072, 1.011e-3
-2.073, 1.011e-3
-2.074, 1.011e-3
-2.075, 1.011e-3
-2.076, 1.011e-3
-2.077, 1.011e-3
-2.078, 1.011e-3
-2.079, 1.011e-3
-2.080, 1.011e-3
-2.081, 1.011e-3
-2.082, 1.011e-3
-2.083, 1.011e-3
-2.084, 1.011e-3
-2.085, 1.011e-3
-2.086, 1.011e-3
-2.087, 1.011e-3
-2.088, 1.011e-3
-2.089, 1.011e-3
-2.090, 1.011e-3
-2.091, 1.011e-3
-2.092, 1.011e-3
-2.093, 1.011e-3
-2.094, 1.011e-3
-2.095, 1.011e-3
-2.096, 1.011e-3
-2.097, 1.011e-3
-2.098, 1.011e-3
-2.099, 1.011e-3
