Mar. 15, 2025   11:42:05
Cyclic Voltammetry
File: c:/users/guazh/data/banditlqround7_x0exp891_r5/2025-03-03-exp902\exp902-2025-03-15t11_31_37-h2koh\exp902_cv_sr_300mvs_efin_-1500mv.bin
Data Source:  Experiment
Instrument Model:  CHI760E
Header: CV ran at 300 mVs
Note: 

Init E (V) = -1
High E (V) = -1
Low E (V) = -1.5
Final E (V) = -1
Init P/N = N
Scan Rate (V/s) = 0.3
Segment = 3
Sample Interval (V) = 0.001
Quiet Time (sec) = 2
Sensitivity (A/V) = 0.01
Comp R (ohm) = 2.0

Results:

Channel 1:
Segment 1:

Segment 2:

Segment 3:

Potential/V, Current/A

-1.000, 2.174e-5
-1.001, 4.332e-5
-1.002, 4.640e-5
-1.003, 4.640e-5
-1.004, 4.640e-5
-1.005, 4.949e-5
-1.006, 4.949e-5
-1.007, 4.949e-5
-1.008, 4.949e-5
-1.009, 4.949e-5
-1.010, 4.949e-5
-1.011, 5.257e-5
-1.012, 5.257e-5
-1.013, 4.640e-5
-1.014, 4.640e-5
-1.015, 4.949e-5
-1.016, 4.949e-5
-1.017, 4.949e-5
-1.018, 4.949e-5
-1.019, 4.949e-5
-1.020, 5.257e-5
-1.021, 5.257e-5
-1.022, 5.257e-5
-1.023, 5.257e-5
-1.024, 4.949e-5
-1.025, 5.257e-5
-1.026, 5.257e-5
-1.027, 5.257e-5
-1.028, 4.949e-5
-1.029, 4.640e-5
-1.030, 4.949e-5
-1.031, 5.257e-5
-1.032, 5.257e-5
-1.033, 5.257e-5
-1.034, 4.949e-5
-1.035, 5.257e-5
-1.036, 5.257e-5
-1.037, 5.257e-5
-1.038, 4.949e-5
-1.039, 4.949e-5
-1.040, 4.949e-5
-1.041, 5.257e-5
-1.042, 5.257e-5
-1.043, 4.949e-5
-1.044, 4.949e-5
-1.045, 5.257e-5
-1.046, 5.257e-5
-1.047, 5.257e-5
-1.048, 4.949e-5
-1.049, 4.949e-5
-1.050, 5.257e-5
-1.051, 5.257e-5
-1.052, 5.257e-5
-1.053, 4.949e-5
-1.054, 4.949e-5
-1.055, 4.949e-5
-1.056, 5.257e-5
-1.057, 5.257e-5
-1.058, 4.949e-5
-1.059, 4.949e-5
-1.060, 5.257e-5
-1.061, 5.257e-5
-1.062, 5.257e-5
-1.063, 4.949e-5
-1.064, 4.949e-5
-1.065, 5.257e-5
-1.066, 5.257e-5
-1.067, 5.257e-5
-1.068, 5.257e-5
-1.069, 4.949e-5
-1.070, 5.257e-5
-1.071, 5.257e-5
-1.072, 5.257e-5
-1.073, 5.257e-5
-1.074, 4.949e-5
-1.075, 5.257e-5
-1.076, 5.257e-5
-1.077, 5.257e-5
-1.078, 5.257e-5
-1.079, 4.949e-5
-1.080, 4.949e-5
-1.081, 5.257e-5
-1.082, 5.257e-5
-1.083, 5.257e-5
-1.084, 4.949e-5
-1.085, 5.257e-5
-1.086, 5.565e-5
-1.087, 5.565e-5
-1.088, 5.257e-5
-1.089, 4.949e-5
-1.090, 5.257e-5
-1.091, 5.257e-5
-1.092, 5.257e-5
-1.093, 5.257e-5
-1.094, 4.949e-5
-1.095, 5.257e-5
-1.096, 5.257e-5
-1.097, 5.257e-5
-1.098, 4.949e-5
-1.099, 4.949e-5
-1.100, 5.257e-5
-1.101, 5.257e-5
-1.102, 5.257e-5
-1.103, 5.257e-5
-1.104, 4.949e-5
-1.105, 5.257e-5
-1.106, 5.257e-5
-1.107, 5.257e-5
-1.108, 5.257e-5
-1.109, 4.949e-5
-1.110, 5.257e-5
-1.111, 5.565e-5
-1.112, 5.257e-5
-1.113, 5.257e-5
-1.114, 4.949e-5
-1.115, 5.257e-5
-1.116, 5.565e-5
-1.117, 5.257e-5
-1.118, 5.257e-5
-1.119, 5.257e-5
-1.120, 5.257e-5
-1.121, 5.565e-5
-1.122, 5.257e-5
-1.123, 5.257e-5
-1.124, 5.257e-5
-1.125, 5.257e-5
-1.126, 5.565e-5
-1.127, 5.565e-5
-1.128, 5.257e-5
-1.129, 5.257e-5
-1.130, 5.257e-5
-1.131, 5.565e-5
-1.132, 5.257e-5
-1.133, 5.257e-5
-1.134, 5.257e-5
-1.135, 5.565e-5
-1.136, 5.565e-5
-1.137, 5.565e-5
-1.138, 5.565e-5
-1.139, 5.257e-5
-1.140, 5.565e-5
-1.141, 5.565e-5
-1.142, 5.565e-5
-1.143, 5.257e-5
-1.144, 5.257e-5
-1.145, 5.565e-5
-1.146, 5.565e-5
-1.147, 5.565e-5
-1.148, 5.565e-5
-1.149, 5.257e-5
-1.150, 5.873e-5
-1.151, 5.873e-5
-1.152, 5.873e-5
-1.153, 5.565e-5
-1.154, 5.257e-5
-1.155, 5.565e-5
-1.156, 5.873e-5
-1.157, 5.565e-5
-1.158, 5.565e-5
-1.159, 5.565e-5
-1.160, 5.873e-5
-1.161, 5.873e-5
-1.162, 5.873e-5
-1.163, 5.873e-5
-1.164, 5.873e-5
-1.165, 5.873e-5
-1.166, 6.182e-5
-1.167, 5.873e-5
-1.168, 5.873e-5
-1.169, 5.873e-5
-1.170, 5.873e-5
-1.171, 6.182e-5
-1.172, 6.182e-5
-1.173, 5.873e-5
-1.174, 5.873e-5
-1.175, 6.182e-5
-1.176, 6.490e-5
-1.177, 6.490e-5
-1.178, 6.182e-5
-1.179, 6.182e-5
-1.180, 6.182e-5
-1.181, 6.490e-5
-1.182, 6.490e-5
-1.183, 6.182e-5
-1.184, 6.182e-5
-1.185, 6.490e-5
-1.186, 6.490e-5
-1.187, 6.490e-5
-1.188, 6.798e-5
-1.189, 6.490e-5
-1.190, 6.798e-5
-1.191, 7.107e-5
-1.192, 6.798e-5
-1.193, 7.107e-5
-1.194, 6.798e-5
-1.195, 7.415e-5
-1.196, 7.415e-5
-1.197, 7.107e-5
-1.198, 7.107e-5
-1.199, 7.107e-5
-1.200, 7.107e-5
-1.201, 8.032e-5
-1.202, 7.723e-5
-1.203, 7.415e-5
-1.204, 7.415e-5
-1.205, 7.723e-5
-1.206, 8.032e-5
-1.207, 8.032e-5
-1.208, 8.032e-5
-1.209, 7.723e-5
-1.210, 8.032e-5
-1.211, 8.340e-5
-1.212, 8.340e-5
-1.213, 8.340e-5
-1.214, 8.340e-5
-1.215, 8.648e-5
-1.216, 8.957e-5
-1.217, 8.957e-5
-1.218, 8.957e-5
-1.219, 8.957e-5
-1.220, 9.265e-5
-1.221, 9.265e-5
-1.222, 9.573e-5
-1.223, 9.573e-5
-1.224, 9.573e-5
-1.225, 9.882e-5
-1.226, 1.019e-4
-1.227, 1.019e-4
-1.228, 1.019e-4
-1.229, 1.019e-4
-1.230, 1.050e-4
-1.231, 1.111e-4
-1.232, 1.111e-4
-1.233, 1.111e-4
-1.234, 1.111e-4
-1.235, 1.173e-4
-1.236, 1.173e-4
-1.237, 1.173e-4
-1.238, 1.204e-4
-1.239, 1.235e-4
-1.240, 1.235e-4
-1.241, 1.296e-4
-1.242, 1.327e-4
-1.243, 1.327e-4
-1.244, 1.327e-4
-1.245, 1.358e-4
-1.246, 1.389e-4
-1.247, 1.420e-4
-1.248, 1.389e-4
-1.249, 1.420e-4
-1.250, 1.451e-4
-1.251, 1.481e-4
-1.252, 1.512e-4
-1.253, 1.512e-4
-1.254, 1.543e-4
-1.255, 1.574e-4
-1.256, 1.636e-4
-1.257, 1.666e-4
-1.258, 1.697e-4
-1.259, 1.697e-4
-1.260, 1.759e-4
-1.261, 1.790e-4
-1.262, 1.821e-4
-1.263, 1.821e-4
-1.264, 1.882e-4
-1.265, 1.913e-4
-1.266, 1.975e-4
-1.267, 2.006e-4
-1.268, 2.036e-4
-1.269, 2.067e-4
-1.270, 2.098e-4
-1.271, 2.160e-4
-1.272, 2.191e-4
-1.273, 2.191e-4
-1.274, 2.221e-4
-1.275, 2.221e-4
-1.276, 2.345e-4
-1.277, 2.406e-4
-1.278, 2.437e-4
-1.279, 2.468e-4
-1.280, 2.530e-4
-1.281, 2.591e-4
-1.282, 2.653e-4
-1.283, 2.715e-4
-1.284, 2.715e-4
-1.285, 2.776e-4
-1.286, 2.869e-4
-1.287, 2.900e-4
-1.288, 2.961e-4
-1.289, 3.023e-4
-1.290, 3.115e-4
-1.291, 3.177e-4
-1.292, 3.239e-4
-1.293, 3.300e-4
-1.294, 3.331e-4
-1.295, 3.393e-4
-1.296, 3.455e-4
-1.297, 3.516e-4
-1.298, 3.547e-4
-1.299, 3.609e-4
-1.300, 3.670e-4
-1.301, 3.763e-4
-1.302, 3.825e-4
-1.303, 3.948e-4
-1.304, 4.133e-4
-1.305, 4.225e-4
-1.306, 4.287e-4
-1.307, 4.349e-4
-1.308, 4.410e-4
-1.309, 4.472e-4
-1.310, 4.565e-4
-1.311, 4.626e-4
-1.312, 4.719e-4
-1.313, 4.811e-4
-1.314, 4.904e-4
-1.315, 5.027e-4
-1.316, 5.181e-4
-1.317, 5.335e-4
-1.318, 5.459e-4
-1.319, 5.551e-4
-1.320, 5.674e-4
-1.321, 5.798e-4
-1.322, 5.890e-4
-1.323, 5.983e-4
-1.324, 6.075e-4
-1.325, 6.199e-4
-1.326, 6.353e-4
-1.327, 6.476e-4
-1.328, 6.569e-4
-1.329, 6.692e-4
-1.330, 6.846e-4
-1.331, 6.969e-4
-1.332, 7.093e-4
-1.333, 7.216e-4
-1.334, 7.278e-4
-1.335, 7.339e-4
-1.336, 7.432e-4
-1.337, 7.617e-4
-1.338, 7.833e-4
-1.339, 8.018e-4
-1.340, 8.233e-4
-1.341, 8.418e-4
-1.342, 8.603e-4
-1.343, 8.758e-4
-1.344, 8.881e-4
-1.345, 9.035e-4
-1.346, 9.189e-4
-1.347, 9.343e-4
-1.348, 9.528e-4
-1.349, 9.652e-4
-1.350, 9.837e-4
-1.351, 9.991e-4
-1.352, 1.018e-3
-1.353, 1.039e-3
-1.354, 1.055e-3
-1.355, 1.073e-3
-1.356, 1.092e-3
-1.357, 1.107e-3
-1.358, 1.122e-3
-1.359, 1.135e-3
-1.360, 1.147e-3
-1.361, 1.162e-3
-1.362, 1.196e-3
-1.363, 1.212e-3
-1.364, 1.227e-3
-1.365, 1.255e-3
-1.366, 1.295e-3
-1.367, 1.314e-3
-1.368, 1.320e-3
-1.369, 1.338e-3
-1.370, 1.363e-3
-1.371, 1.400e-3
-1.372, 1.428e-3
-1.373, 1.449e-3
-1.374, 1.471e-3
-1.375, 1.489e-3
-1.376, 1.514e-3
-1.377, 1.536e-3
-1.378, 1.557e-3
-1.379, 1.576e-3
-1.380, 1.594e-3
-1.381, 1.619e-3
-1.382, 1.628e-3
-1.383, 1.656e-3
-1.384, 1.690e-3
-1.385, 1.711e-3
-1.386, 1.739e-3
-1.387, 1.761e-3
-1.388, 1.776e-3
-1.389, 1.795e-3
-1.390, 1.813e-3
-1.391, 1.841e-3
-1.392, 1.850e-3
-1.393, 1.884e-3
-1.394, 1.906e-3
-1.395, 1.930e-3
-1.396, 1.970e-3
-1.397, 2.007e-3
-1.398, 2.035e-3
-1.399, 2.057e-3
-1.400, 2.100e-3
-1.401, 2.131e-3
-1.402, 2.158e-3
-1.403, 2.183e-3
-1.404, 2.214e-3
-1.405, 2.238e-3
-1.406, 2.269e-3
-1.407, 2.291e-3
-1.408, 2.309e-3
-1.409, 2.331e-3
-1.410, 2.346e-3
-1.411, 2.374e-3
-1.412, 2.433e-3
-1.413, 2.491e-3
-1.414, 2.513e-3
-1.415, 2.534e-3
-1.416, 2.568e-3
-1.417, 2.602e-3
-1.418, 2.633e-3
-1.419, 2.658e-3
-1.420, 2.695e-3
-1.421, 2.729e-3
-1.422, 2.760e-3
-1.423, 2.787e-3
-1.424, 2.815e-3
-1.425, 2.849e-3
-1.426, 2.880e-3
-1.427, 2.911e-3
-1.428, 2.941e-3
-1.429, 2.975e-3
-1.430, 3.006e-3
-1.431, 3.028e-3
-1.432, 3.071e-3
-1.433, 3.096e-3
-1.434, 3.117e-3
-1.435, 3.151e-3
-1.436, 3.173e-3
-1.437, 3.207e-3
-1.438, 3.244e-3
-1.439, 3.284e-3
-1.440, 3.333e-3
-1.441, 3.376e-3
-1.442, 3.413e-3
-1.443, 3.441e-3
-1.444, 3.475e-3
-1.445, 3.524e-3
-1.446, 3.546e-3
-1.447, 3.564e-3
-1.448, 3.580e-3
-1.449, 3.601e-3
-1.450, 3.610e-3
-1.451, 3.666e-3
-1.452, 3.737e-3
-1.453, 3.786e-3
-1.454, 3.826e-3
-1.455, 3.876e-3
-1.456, 3.922e-3
-1.457, 3.959e-3
-1.458, 3.996e-3
-1.459, 4.039e-3
-1.460, 4.076e-3
-1.461, 4.119e-3
-1.462, 4.162e-3
-1.463, 4.202e-3
-1.464, 4.239e-3
-1.465, 4.280e-3
-1.466, 4.317e-3
-1.467, 4.357e-3
-1.468, 4.387e-3
-1.469, 4.424e-3
-1.470, 4.461e-3
-1.471, 4.471e-3
-1.472, 4.492e-3
-1.473, 4.560e-3
-1.474, 4.609e-3
-1.475, 4.646e-3
-1.476, 4.693e-3
-1.477, 4.742e-3
-1.478, 4.785e-3
-1.479, 4.828e-3
-1.480, 4.865e-3
-1.481, 4.912e-3
-1.482, 4.949e-3
-1.483, 4.970e-3
-1.484, 5.001e-3
-1.485, 5.050e-3
-1.486, 5.109e-3
-1.487, 5.171e-3
-1.488, 5.223e-3
-1.489, 5.269e-3
-1.490, 5.328e-3
-1.491, 5.386e-3
-1.492, 5.430e-3
-1.493, 5.470e-3
-1.494, 5.510e-3
-1.495, 5.544e-3
-1.496, 5.578e-3
-1.497, 5.614e-3
-1.498, 5.661e-3
-1.499, 5.704e-3
-1.500, 5.698e-3
-1.499, 5.636e-3
-1.498, 5.584e-3
-1.497, 5.531e-3
-1.496, 5.470e-3
-1.495, 5.417e-3
-1.494, 5.377e-3
-1.493, 5.328e-3
-1.492, 5.269e-3
-1.491, 5.226e-3
-1.490, 5.171e-3
-1.489, 5.115e-3
-1.488, 5.050e-3
-1.487, 4.970e-3
-1.486, 4.899e-3
-1.485, 4.819e-3
-1.484, 4.730e-3
-1.483, 4.643e-3
-1.482, 4.588e-3
-1.481, 4.551e-3
-1.480, 4.523e-3
-1.479, 4.498e-3
-1.478, 4.471e-3
-1.477, 4.415e-3
-1.476, 4.360e-3
-1.475, 4.317e-3
-1.474, 4.280e-3
-1.473, 4.252e-3
-1.472, 4.199e-3
-1.471, 4.159e-3
-1.470, 4.107e-3
-1.469, 4.064e-3
-1.468, 4.011e-3
-1.467, 3.968e-3
-1.466, 3.919e-3
-1.465, 3.869e-3
-1.464, 3.826e-3
-1.463, 3.774e-3
-1.462, 3.728e-3
-1.461, 3.684e-3
-1.460, 3.647e-3
-1.459, 3.614e-3
-1.458, 3.580e-3
-1.457, 3.546e-3
-1.456, 3.515e-3
-1.455, 3.481e-3
-1.454, 3.432e-3
-1.453, 3.388e-3
-1.452, 3.333e-3
-1.451, 3.278e-3
-1.450, 3.231e-3
-1.449, 3.182e-3
-1.448, 3.154e-3
-1.447, 3.099e-3
-1.446, 3.089e-3
-1.445, 3.062e-3
-1.444, 3.049e-3
-1.443, 3.000e-3
-1.442, 2.957e-3
-1.441, 2.911e-3
-1.440, 2.911e-3
-1.439, 2.852e-3
-1.438, 2.818e-3
-1.437, 2.769e-3
-1.436, 2.719e-3
-1.435, 2.682e-3
-1.434, 2.676e-3
-1.433, 2.667e-3
-1.432, 2.633e-3
-1.431, 2.602e-3
-1.430, 2.575e-3
-1.429, 2.541e-3
-1.428, 2.510e-3
-1.427, 2.470e-3
-1.426, 2.430e-3
-1.425, 2.383e-3
-1.424, 2.365e-3
-1.423, 2.343e-3
-1.422, 2.316e-3
-1.421, 2.285e-3
-1.420, 2.251e-3
-1.419, 2.220e-3
-1.418, 2.189e-3
-1.417, 2.164e-3
-1.416, 2.128e-3
-1.415, 2.103e-3
-1.414, 2.078e-3
-1.413, 2.041e-3
-1.412, 2.026e-3
-1.411, 1.998e-3
-1.410, 1.983e-3
-1.409, 1.961e-3
-1.408, 1.943e-3
-1.407, 1.909e-3
-1.406, 1.881e-3
-1.405, 1.859e-3
-1.404, 1.841e-3
-1.403, 1.816e-3
-1.402, 1.788e-3
-1.401, 1.745e-3
-1.400, 1.711e-3
-1.399, 1.690e-3
-1.398, 1.665e-3
-1.397, 1.634e-3
-1.396, 1.619e-3
-1.395, 1.606e-3
-1.394, 1.579e-3
-1.393, 1.548e-3
-1.392, 1.523e-3
-1.391, 1.508e-3
-1.390, 1.486e-3
-1.389, 1.462e-3
-1.388, 1.443e-3
-1.387, 1.415e-3
-1.386, 1.391e-3
-1.385, 1.378e-3
-1.384, 1.357e-3
-1.383, 1.341e-3
-1.382, 1.326e-3
-1.381, 1.304e-3
-1.380, 1.286e-3
-1.379, 1.267e-3
-1.378, 1.243e-3
-1.377, 1.221e-3
-1.376, 1.196e-3
-1.375, 1.178e-3
-1.374, 1.156e-3
-1.373, 1.138e-3
-1.372, 1.116e-3
-1.371, 1.098e-3
-1.370, 1.076e-3
-1.369, 1.051e-3
-1.368, 1.033e-3
-1.367, 1.018e-3
-1.366, 1.011e-3
-1.365, 9.898e-4
-1.364, 9.775e-4
-1.363, 9.621e-4
-1.362, 9.405e-4
-1.361, 9.220e-4
-1.360, 9.066e-4
-1.359, 8.943e-4
-1.358, 8.758e-4
-1.357, 8.603e-4
-1.356, 8.480e-4
-1.355, 8.326e-4
-1.354, 8.295e-4
-1.353, 8.079e-4
-1.352, 7.833e-4
-1.351, 7.709e-4
-1.350, 7.555e-4
-1.349, 7.463e-4
-1.348, 7.370e-4
-1.347, 7.216e-4
-1.346, 7.062e-4
-1.345, 6.969e-4
-1.344, 6.877e-4
-1.343, 6.723e-4
-1.342, 6.569e-4
-1.341, 6.445e-4
-1.340, 6.353e-4
-1.339, 6.291e-4
-1.338, 6.260e-4
-1.337, 6.168e-4
-1.336, 5.952e-4
-1.335, 5.798e-4
-1.334, 5.674e-4
-1.333, 5.551e-4
-1.332, 5.428e-4
-1.331, 5.335e-4
-1.330, 5.212e-4
-1.329, 5.120e-4
-1.328, 4.996e-4
-1.327, 4.873e-4
-1.326, 4.780e-4
-1.325, 4.780e-4
-1.324, 4.657e-4
-1.323, 4.534e-4
-1.322, 4.410e-4
-1.321, 4.349e-4
-1.320, 4.287e-4
-1.319, 4.225e-4
-1.318, 4.102e-4
-1.317, 4.010e-4
-1.316, 3.886e-4
-1.315, 3.794e-4
-1.314, 3.732e-4
-1.313, 3.640e-4
-1.312, 3.547e-4
-1.311, 3.485e-4
-1.310, 3.424e-4
-1.309, 3.362e-4
-1.308, 3.270e-4
-1.307, 3.177e-4
-1.306, 3.115e-4
-1.305, 3.023e-4
-1.304, 3.023e-4
-1.303, 2.961e-4
-1.302, 2.838e-4
-1.301, 2.776e-4
-1.300, 2.684e-4
-1.299, 2.653e-4
-1.298, 2.530e-4
-1.297, 2.468e-4
-1.296, 2.406e-4
-1.295, 2.345e-4
-1.294, 2.283e-4
-1.293, 2.252e-4
-1.292, 2.160e-4
-1.291, 2.098e-4
-1.290, 2.036e-4
-1.289, 2.006e-4
-1.288, 1.944e-4
-1.287, 1.913e-4
-1.286, 1.821e-4
-1.285, 1.790e-4
-1.284, 1.728e-4
-1.283, 1.666e-4
-1.282, 1.605e-4
-1.281, 1.605e-4
-1.280, 1.543e-4
-1.279, 1.512e-4
-1.278, 1.481e-4
-1.277, 1.451e-4
-1.276, 1.389e-4
-1.275, 1.327e-4
-1.274, 1.296e-4
-1.273, 1.235e-4
-1.272, 1.173e-4
-1.271, 1.142e-4
-1.270, 1.111e-4
-1.269, 1.081e-4
-1.268, 1.050e-4
-1.267, 9.882e-5
-1.266, 9.573e-5
-1.265, 9.265e-5
-1.264, 9.265e-5
-1.263, 8.957e-5
-1.262, 8.340e-5
-1.261, 7.723e-5
-1.260, 7.415e-5
-1.259, 7.415e-5
-1.258, 7.107e-5
-1.257, 6.798e-5
-1.256, 6.182e-5
-1.255, 6.182e-5
-1.254, 5.873e-5
-1.253, 5.565e-5
-1.252, 5.257e-5
-1.251, 4.949e-5
-1.250, 4.949e-5
-1.249, 4.640e-5
-1.248, 4.332e-5
-1.247, 4.024e-5
-1.246, 3.715e-5
-1.245, 3.407e-5
-1.244, 3.407e-5
-1.243, 3.407e-5
-1.242, 2.790e-5
-1.241, 2.482e-5
-1.240, 2.482e-5
-1.239, 2.482e-5
-1.238, 2.174e-5
-1.237, 1.865e-5
-1.236, 1.557e-5
-1.235, 1.557e-5
-1.234, 1.249e-5
-1.233, 1.249e-5
-1.232, 9.405e-6
-1.231, 6.322e-6
-1.230, 6.322e-6
-1.229, 3.239e-6
-1.228, 3.239e-6
-1.227, 1.559e-7
-1.226, -2.927e-6
-1.225, -2.927e-6
-1.224, -2.927e-6
-1.223, -2.927e-6
-1.222, -6.010e-6
-1.221, -9.093e-6
-1.220, -9.093e-6
-1.219, -9.093e-6
-1.218, -1.218e-5
-1.217, -1.526e-5
-1.216, -1.526e-5
-1.215, -1.526e-5
-1.214, -1.526e-5
-1.213, -1.834e-5
-1.212, -2.143e-5
-1.211, -2.143e-5
-1.210, -2.143e-5
-1.209, -2.143e-5
-1.208, -2.143e-5
-1.207, -2.451e-5
-1.206, -2.451e-5
-1.205, -2.451e-5
-1.204, -2.451e-5
-1.203, -2.451e-5
-1.202, -3.068e-5
-1.201, -3.068e-5
-1.200, -3.068e-5
-1.199, -2.759e-5
-1.198, -3.068e-5
-1.197, -3.376e-5
-1.196, -3.376e-5
-1.195, -3.376e-5
-1.194, -3.068e-5
-1.193, -3.376e-5
-1.192, -3.376e-5
-1.191, -3.684e-5
-1.190, -3.684e-5
-1.189, -3.684e-5
-1.188, -3.684e-5
-1.187, -3.684e-5
-1.186, -4.301e-5
-1.185, -3.992e-5
-1.184, -3.992e-5
-1.183, -3.992e-5
-1.182, -4.609e-5
-1.181, -4.609e-5
-1.180, -4.301e-5
-1.179, -4.301e-5
-1.178, -4.301e-5
-1.177, -4.609e-5
-1.176, -4.609e-5
-1.175, -4.609e-5
-1.174, -4.301e-5
-1.173, -4.609e-5
-1.172, -4.609e-5
-1.171, -4.609e-5
-1.170, -4.609e-5
-1.169, -4.609e-5
-1.168, -4.609e-5
-1.167, -4.917e-5
-1.166, -4.917e-5
-1.165, -4.917e-5
-1.164, -4.609e-5
-1.163, -4.917e-5
-1.162, -4.917e-5
-1.161, -5.226e-5
-1.160, -5.226e-5
-1.159, -4.917e-5
-1.158, -4.917e-5
-1.157, -5.226e-5
-1.156, -5.226e-5
-1.155, -5.226e-5
-1.154, -4.917e-5
-1.153, -4.917e-5
-1.152, -5.226e-5
-1.151, -5.226e-5
-1.150, -5.226e-5
-1.149, -5.226e-5
-1.148, -5.226e-5
-1.147, -5.226e-5
-1.146, -5.534e-5
-1.145, -5.226e-5
-1.144, -5.226e-5
-1.143, -5.226e-5
-1.142, -5.534e-5
-1.141, -5.534e-5
-1.140, -5.534e-5
-1.139, -5.226e-5
-1.138, -5.226e-5
-1.137, -5.534e-5
-1.136, -5.534e-5
-1.135, -5.534e-5
-1.134, -5.226e-5
-1.133, -5.226e-5
-1.132, -5.534e-5
-1.131, -5.534e-5
-1.130, -5.534e-5
-1.129, -5.534e-5
-1.128, -5.534e-5
-1.127, -5.534e-5
-1.126, -5.534e-5
-1.125, -5.534e-5
-1.124, -5.534e-5
-1.123, -5.534e-5
-1.122, -5.534e-5
-1.121, -5.842e-5
-1.120, -5.534e-5
-1.119, -5.534e-5
-1.118, -5.534e-5
-1.117, -5.534e-5
-1.116, -5.842e-5
-1.115, -5.534e-5
-1.114, -5.534e-5
-1.113, -5.534e-5
-1.112, -5.534e-5
-1.111, -5.842e-5
-1.110, -5.842e-5
-1.109, -5.534e-5
-1.108, -5.534e-5
-1.107, -5.534e-5
-1.106, -5.842e-5
-1.105, -5.842e-5
-1.104, -5.534e-5
-1.103, -5.534e-5
-1.102, -5.842e-5
-1.101, -6.151e-5
-1.100, -7.384e-5
-1.099, -6.767e-5
-1.098, -6.151e-5
-1.097, -5.842e-5
-1.096, -5.842e-5
-1.095, -5.842e-5
-1.094, -5.842e-5
-1.093, -5.842e-5
-1.092, -5.842e-5
-1.091, -5.842e-5
-1.090, -5.842e-5
-1.089, -5.842e-5
-1.088, -6.151e-5
-1.087, -6.151e-5
-1.086, -6.151e-5
-1.085, -5.842e-5
-1.084, -5.842e-5
-1.083, -5.534e-5
-1.082, -5.842e-5
-1.081, -6.151e-5
-1.080, -5.842e-5
-1.079, -5.534e-5
-1.078, -5.842e-5
-1.077, -6.151e-5
-1.076, -6.151e-5
-1.075, -6.151e-5
-1.074, -5.842e-5
-1.073, -5.842e-5
-1.072, -5.842e-5
-1.071, -6.151e-5
-1.070, -5.842e-5
-1.069, -5.842e-5
-1.068, -5.842e-5
-1.067, -6.151e-5
-1.066, -6.151e-5
-1.065, -6.151e-5
-1.064, -5.842e-5
-1.063, -5.842e-5
-1.062, -6.151e-5
-1.061, -6.151e-5
-1.060, -6.151e-5
-1.059, -6.459e-5
-1.058, -6.459e-5
-1.057, -6.459e-5
-1.056, -6.459e-5
-1.055, -6.459e-5
-1.054, -6.151e-5
-1.053, -6.151e-5
-1.052, -6.151e-5
-1.051, -6.459e-5
-1.050, -6.151e-5
-1.049, -6.151e-5
-1.048, -6.151e-5
-1.047, -6.459e-5
-1.046, -6.459e-5
-1.045, -6.151e-5
-1.044, -6.151e-5
-1.043, -6.151e-5
-1.042, -6.459e-5
-1.041, -6.459e-5
-1.040, -6.151e-5
-1.039, -6.151e-5
-1.038, -6.151e-5
-1.037, -6.151e-5
-1.036, -6.459e-5
-1.035, -6.151e-5
-1.034, -6.151e-5
-1.033, -6.151e-5
-1.032, -6.151e-5
-1.031, -6.459e-5
-1.030, -6.151e-5
-1.029, -6.151e-5
-1.028, -6.151e-5
-1.027, -6.151e-5
-1.026, -6.459e-5
-1.025, -6.459e-5
-1.024, -6.151e-5
-1.023, -6.459e-5
-1.022, -6.459e-5
-1.021, -6.459e-5
-1.020, -6.459e-5
-1.019, -6.151e-5
-1.018, -6.151e-5
-1.017, -6.459e-5
-1.016, -6.459e-5
-1.015, -6.459e-5
-1.014, -6.151e-5
-1.013, -6.459e-5
-1.012, -6.459e-5
-1.011, -6.459e-5
-1.010, -6.459e-5
-1.009, -6.459e-5
-1.008, -6.459e-5
-1.007, -6.459e-5
-1.006, -6.459e-5
-1.005, -6.459e-5
-1.004, -6.459e-5
-1.003, -6.459e-5
-1.002, -6.459e-5
-1.001, -6.459e-5
