Dec. 20, 2024   15:16:48
Cyclic Voltammetry
File: c:/users/guazh/data/banditlqround7_x0exp667_r5/2024-12-16-exp712\exp712-2024-12-20t15_06_18-arkoh\exp712_cv_sr_300mvs_efin_-1500mv.bin
Data Source:  Experiment
Instrument Model:  CHI760E
Header: CV ran at 300 mVs
Note: 

Init E (V) = -1
High E (V) = -1
Low E (V) = -1.5
Final E (V) = -1
Init P/N = N
Scan Rate (V/s) = 0.3
Segment = 3
Sample Interval (V) = 0.001
Quiet Time (sec) = 2
Sensitivity (A/V) = 0.01
Comp R (ohm) = 1.3

Results:

Channel 1:
Segment 1:

Segment 2:

Segment 3:

Potential/V, Current/A

-1.000, -9.063e-4
-1.001, -8.015e-4
-1.002, -7.028e-4
-1.003, -6.165e-4
-1.004, -5.486e-4
-1.005, -4.839e-4
-1.006, -4.099e-4
-1.007, -3.359e-4
-1.008, -2.742e-4
-1.009, -2.187e-4
-1.010, -1.663e-4
-1.011, -1.047e-4
-1.012, -3.992e-5
-1.013, 1.557e-5
-1.014, 5.873e-5
-1.015, 1.050e-4
-1.016, 1.605e-4
-1.017, 2.160e-4
-1.018, 2.622e-4
-1.019, 3.023e-4
-1.020, 3.424e-4
-1.021, 3.917e-4
-1.022, 4.441e-4
-1.023, 4.873e-4
-1.024, 5.212e-4
-1.025, 5.551e-4
-1.026, 6.014e-4
-1.027, 6.507e-4
-1.028, 6.877e-4
-1.029, 7.185e-4
-1.030, 7.524e-4
-1.031, 7.956e-4
-1.032, 8.418e-4
-1.033, 8.758e-4
-1.034, 9.066e-4
-1.035, 9.374e-4
-1.036, 9.775e-4
-1.037, 1.024e-3
-1.038, 1.058e-3
-1.039, 1.085e-3
-1.040, 1.113e-3
-1.041, 1.150e-3
-1.042, 1.193e-3
-1.043, 1.224e-3
-1.044, 1.252e-3
-1.045, 1.280e-3
-1.046, 1.320e-3
-1.047, 1.360e-3
-1.048, 1.394e-3
-1.049, 1.418e-3
-1.050, 1.446e-3
-1.051, 1.483e-3
-1.052, 1.526e-3
-1.053, 1.560e-3
-1.054, 1.582e-3
-1.055, 1.606e-3
-1.056, 1.643e-3
-1.057, 1.684e-3
-1.058, 1.714e-3
-1.059, 1.742e-3
-1.060, 1.773e-3
-1.061, 1.810e-3
-1.062, 1.853e-3
-1.063, 1.884e-3
-1.064, 1.909e-3
-1.065, 1.936e-3
-1.066, 1.970e-3
-1.067, 2.010e-3
-1.068, 2.038e-3
-1.069, 2.063e-3
-1.070, 2.091e-3
-1.071, 2.128e-3
-1.072, 2.168e-3
-1.073, 2.201e-3
-1.074, 2.226e-3
-1.075, 2.254e-3
-1.076, 2.288e-3
-1.077, 2.325e-3
-1.078, 2.359e-3
-1.079, 2.386e-3
-1.080, 2.417e-3
-1.081, 2.451e-3
-1.082, 2.494e-3
-1.083, 2.531e-3
-1.084, 2.556e-3
-1.085, 2.581e-3
-1.086, 2.618e-3
-1.087, 2.661e-3
-1.088, 2.692e-3
-1.089, 2.716e-3
-1.090, 2.741e-3
-1.091, 2.778e-3
-1.092, 2.821e-3
-1.093, 2.849e-3
-1.094, 2.874e-3
-1.095, 2.901e-3
-1.096, 2.945e-3
-1.097, 2.988e-3
-1.098, 3.025e-3
-1.099, 3.049e-3
-1.100, 3.080e-3
-1.101, 3.114e-3
-1.102, 3.154e-3
-1.103, 3.191e-3
-1.104, 3.219e-3
-1.105, 3.253e-3
-1.106, 3.293e-3
-1.107, 3.339e-3
-1.108, 3.379e-3
-1.109, 3.407e-3
-1.110, 3.438e-3
-1.111, 3.478e-3
-1.112, 3.521e-3
-1.113, 3.561e-3
-1.114, 3.589e-3
-1.115, 3.623e-3
-1.116, 3.666e-3
-1.117, 3.709e-3
-1.118, 3.746e-3
-1.119, 3.771e-3
-1.120, 3.802e-3
-1.121, 3.845e-3
-1.122, 3.891e-3
-1.123, 3.931e-3
-1.124, 3.959e-3
-1.125, 3.984e-3
-1.126, 4.027e-3
-1.127, 4.073e-3
-1.128, 4.113e-3
-1.129, 4.144e-3
-1.130, 4.175e-3
-1.131, 4.212e-3
-1.132, 4.252e-3
-1.133, 4.283e-3
-1.134, 4.310e-3
-1.135, 4.347e-3
-1.136, 4.384e-3
-1.137, 4.431e-3
-1.138, 4.464e-3
-1.139, 4.495e-3
-1.140, 4.523e-3
-1.141, 4.560e-3
-1.142, 4.609e-3
-1.143, 4.649e-3
-1.144, 4.677e-3
-1.145, 4.711e-3
-1.146, 4.748e-3
-1.147, 4.794e-3
-1.148, 4.834e-3
-1.149, 4.868e-3
-1.150, 4.902e-3
-1.151, 4.949e-3
-1.152, 4.989e-3
-1.153, 5.029e-3
-1.154, 5.063e-3
-1.155, 5.093e-3
-1.156, 5.130e-3
-1.157, 5.171e-3
-1.158, 5.214e-3
-1.159, 5.251e-3
-1.160, 5.285e-3
-1.161, 5.325e-3
-1.162, 5.356e-3
-1.163, 5.386e-3
-1.164, 5.414e-3
-1.165, 5.445e-3
-1.166, 5.491e-3
-1.167, 5.541e-3
-1.168, 5.587e-3
-1.169, 5.621e-3
-1.170, 5.651e-3
-1.171, 5.695e-3
-1.172, 5.741e-3
-1.173, 5.781e-3
-1.174, 5.815e-3
-1.175, 5.849e-3
-1.176, 5.892e-3
-1.177, 5.938e-3
-1.178, 5.975e-3
-1.179, 6.009e-3
-1.180, 6.043e-3
-1.181, 6.089e-3
-1.182, 6.139e-3
-1.183, 6.182e-3
-1.184, 6.213e-3
-1.185, 6.247e-3
-1.186, 6.290e-3
-1.187, 6.339e-3
-1.188, 6.379e-3
-1.189, 6.416e-3
-1.190, 6.456e-3
-1.191, 6.506e-3
-1.192, 6.546e-3
-1.193, 6.573e-3
-1.194, 6.595e-3
-1.195, 6.629e-3
-1.196, 6.681e-3
-1.197, 6.731e-3
-1.198, 6.774e-3
-1.199, 6.808e-3
-1.200, 6.820e-3
-1.201, 6.848e-3
-1.202, 6.897e-3
-1.203, 6.949e-3
-1.204, 7.002e-3
-1.205, 7.039e-3
-1.206, 7.079e-3
-1.207, 7.119e-3
-1.208, 7.156e-3
-1.209, 7.199e-3
-1.210, 7.242e-3
-1.211, 7.282e-3
-1.212, 7.323e-3
-1.213, 7.353e-3
-1.214, 7.384e-3
-1.215, 7.421e-3
-1.216, 7.464e-3
-1.217, 7.514e-3
-1.218, 7.551e-3
-1.219, 7.588e-3
-1.220, 7.631e-3
-1.221, 7.683e-3
-1.222, 7.739e-3
-1.223, 7.776e-3
-1.224, 7.797e-3
-1.225, 7.828e-3
-1.226, 7.878e-3
-1.227, 7.933e-3
-1.228, 7.973e-3
-1.229, 8.013e-3
-1.230, 8.053e-3
-1.231, 8.106e-3
-1.232, 8.155e-3
-1.233, 8.201e-3
-1.234, 8.232e-3
-1.235, 8.247e-3
-1.236, 8.294e-3
-1.237, 8.346e-3
-1.238, 8.399e-3
-1.239, 8.432e-3
-1.240, 8.454e-3
-1.241, 8.516e-3
-1.242, 8.571e-3
-1.243, 8.593e-3
-1.244, 8.627e-3
-1.245, 8.679e-3
-1.246, 8.735e-3
-1.247, 8.784e-3
-1.248, 8.824e-3
-1.249, 8.849e-3
-1.250, 8.873e-3
-1.251, 8.904e-3
-1.252, 8.950e-3
-1.253, 8.997e-3
-1.254, 9.031e-3
-1.255, 9.064e-3
-1.256, 9.105e-3
-1.257, 9.148e-3
-1.258, 9.182e-3
-1.259, 9.209e-3
-1.260, 9.253e-3
-1.261, 9.308e-3
-1.262, 9.367e-3
-1.263, 9.410e-3
-1.264, 9.431e-3
-1.265, 9.465e-3
-1.266, 9.512e-3
-1.267, 9.564e-3
-1.268, 9.598e-3
-1.269, 9.626e-3
-1.270, 9.669e-3
-1.271, 9.724e-3
-1.272, 9.783e-3
-1.273, 9.841e-3
-1.274, 9.882e-3
-1.275, 9.906e-3
-1.276, 9.928e-3
-1.277, 9.968e-3
-1.278, 1.001e-2
-1.279, 1.004e-2
-1.280, 1.009e-2
-1.281, 1.013e-2
-1.282, 1.019e-2
-1.283, 1.022e-2
-1.284, 1.025e-2
-1.285, 1.029e-2
-1.286, 1.034e-2
-1.287, 1.039e-2
-1.288, 1.042e-2
-1.289, 1.045e-2
-1.290, 1.048e-2
-1.291, 1.052e-2
-1.292, 1.058e-2
-1.293, 1.062e-2
-1.294, 1.066e-2
-1.295, 1.068e-2
-1.296, 1.072e-2
-1.297, 1.076e-2
-1.298, 1.080e-2
-1.299, 1.084e-2
-1.300, 1.088e-2
-1.301, 1.091e-2
-1.302, 1.096e-2
-1.303, 1.099e-2
-1.304, 1.102e-2
-1.305, 1.105e-2
-1.306, 1.108e-2
-1.307, 1.111e-2
-1.308, 1.115e-2
-1.309, 1.119e-2
-1.310, 1.124e-2
-1.311, 1.128e-2
-1.312, 1.132e-2
-1.313, 1.134e-2
-1.314, 1.138e-2
-1.315, 1.141e-2
-1.316, 1.147e-2
-1.317, 1.154e-2
-1.318, 1.159e-2
-1.319, 1.161e-2
-1.320, 1.162e-2
-1.321, 1.165e-2
-1.322, 1.169e-2
-1.323, 1.173e-2
-1.324, 1.177e-2
-1.325, 1.179e-2
-1.326, 1.182e-2
-1.327, 1.185e-2
-1.328, 1.188e-2
-1.329, 1.190e-2
-1.330, 1.193e-2
-1.331, 1.197e-2
-1.332, 1.202e-2
-1.333, 1.204e-2
-1.334, 1.206e-2
-1.335, 1.207e-2
-1.336, 1.209e-2
-1.337, 1.213e-2
-1.338, 1.215e-2
-1.339, 1.218e-2
-1.340, 1.219e-2
-1.341, 1.223e-2
-1.342, 1.227e-2
-1.343, 1.229e-2
-1.344, 1.230e-2
-1.345, 1.231e-2
-1.346, 1.232e-2
-1.347, 1.235e-2
-1.348, 1.239e-2
-1.349, 1.240e-2
-1.350, 1.242e-2
-1.351, 1.244e-2
-1.352, 1.247e-2
-1.353, 1.249e-2
-1.354, 1.251e-2
-1.355, 1.253e-2
-1.356, 1.256e-2
-1.357, 1.259e-2
-1.358, 1.261e-2
-1.359, 1.261e-2
-1.360, 1.262e-2
-1.361, 1.263e-2
-1.362, 1.266e-2
-1.363, 1.269e-2
-1.364, 1.269e-2
-1.365, 1.270e-2
-1.366, 1.271e-2
-1.367, 1.272e-2
-1.368, 1.273e-2
-1.369, 1.274e-2
-1.370, 1.275e-2
-1.371, 1.277e-2
-1.372, 1.279e-2
-1.373, 1.279e-2
-1.374, 1.280e-2
-1.375, 1.280e-2
-1.376, 1.281e-2
-1.377, 1.283e-2
-1.378, 1.284e-2
-1.379, 1.283e-2
-1.380, 1.281e-2
-1.381, 1.281e-2
-1.382, 1.284e-2
-1.383, 1.286e-2
-1.384, 1.285e-2
-1.385, 1.284e-2
-1.386, 1.284e-2
-1.387, 1.285e-2
-1.388, 1.284e-2
-1.389, 1.283e-2
-1.390, 1.283e-2
-1.391, 1.283e-2
-1.392, 1.282e-2
-1.393, 1.281e-2
-1.394, 1.280e-2
-1.395, 1.279e-2
-1.396, 1.279e-2
-1.397, 1.278e-2
-1.398, 1.277e-2
-1.399, 1.275e-2
-1.400, 1.274e-2
-1.401, 1.274e-2
-1.402, 1.274e-2
-1.403, 1.273e-2
-1.404, 1.271e-2
-1.405, 1.268e-2
-1.406, 1.267e-2
-1.407, 1.267e-2
-1.408, 1.265e-2
-1.409, 1.263e-2
-1.410, 1.260e-2
-1.411, 1.258e-2
-1.412, 1.258e-2
-1.413, 1.258e-2
-1.414, 1.257e-2
-1.415, 1.254e-2
-1.416, 1.252e-2
-1.417, 1.251e-2
-1.418, 1.249e-2
-1.419, 1.247e-2
-1.420, 1.245e-2
-1.421, 1.243e-2
-1.422, 1.241e-2
-1.423, 1.239e-2
-1.424, 1.235e-2
-1.425, 1.233e-2
-1.426, 1.231e-2
-1.427, 1.232e-2
-1.428, 1.231e-2
-1.429, 1.227e-2
-1.430, 1.225e-2
-1.431, 1.223e-2
-1.432, 1.222e-2
-1.433, 1.219e-2
-1.434, 1.215e-2
-1.435, 1.213e-2
-1.436, 1.211e-2
-1.437, 1.211e-2
-1.438, 1.209e-2
-1.439, 1.207e-2
-1.440, 1.204e-2
-1.441, 1.202e-2
-1.442, 1.202e-2
-1.443, 1.200e-2
-1.444, 1.198e-2
-1.445, 1.195e-2
-1.446, 1.192e-2
-1.447, 1.190e-2
-1.448, 1.188e-2
-1.449, 1.188e-2
-1.450, 1.188e-2
-1.451, 1.190e-2
-1.452, 1.193e-2
-1.453, 1.189e-2
-1.454, 1.181e-2
-1.455, 1.177e-2
-1.456, 1.179e-2
-1.457, 1.182e-2
-1.458, 1.182e-2
-1.459, 1.178e-2
-1.460, 1.173e-2
-1.461, 1.169e-2
-1.462, 1.170e-2
-1.463, 1.173e-2
-1.464, 1.174e-2
-1.465, 1.173e-2
-1.466, 1.171e-2
-1.467, 1.171e-2
-1.468, 1.169e-2
-1.469, 1.170e-2
-1.470, 1.173e-2
-1.471, 1.175e-2
-1.472, 1.173e-2
-1.473, 1.170e-2
-1.474, 1.167e-2
-1.475, 1.169e-2
-1.476, 1.172e-2
-1.477, 1.173e-2
-1.478, 1.173e-2
-1.479, 1.171e-2
-1.480, 1.170e-2
-1.481, 1.174e-2
-1.482, 1.180e-2
-1.483, 1.182e-2
-1.484, 1.181e-2
-1.485, 1.181e-2
-1.486, 1.181e-2
-1.487, 1.183e-2
-1.488, 1.186e-2
-1.489, 1.188e-2
-1.490, 1.189e-2
-1.491, 1.193e-2
-1.492, 1.195e-2
-1.493, 1.195e-2
-1.494, 1.194e-2
-1.495, 1.195e-2
-1.496, 1.198e-2
-1.497, 1.201e-2
-1.498, 1.202e-2
-1.499, 1.202e-2
-1.500, 1.194e-2
-1.499, 1.175e-2
-1.498, 1.159e-2
-1.497, 1.142e-2
-1.496, 1.124e-2
-1.495, 1.105e-2
-1.494, 1.087e-2
-1.493, 1.072e-2
-1.492, 1.061e-2
-1.491, 1.048e-2
-1.490, 1.033e-2
-1.489, 1.019e-2
-1.488, 1.005e-2
-1.487, 9.919e-3
-1.486, 9.783e-3
-1.485, 9.666e-3
-1.484, 9.555e-3
-1.483, 9.434e-3
-1.482, 9.302e-3
-1.481, 9.151e-3
-1.480, 9.012e-3
-1.479, 8.904e-3
-1.478, 8.802e-3
-1.477, 8.691e-3
-1.476, 8.565e-3
-1.475, 8.439e-3
-1.474, 8.331e-3
-1.473, 8.229e-3
-1.472, 8.124e-3
-1.471, 8.004e-3
-1.470, 7.884e-3
-1.469, 7.773e-3
-1.468, 7.668e-3
-1.467, 7.569e-3
-1.466, 7.480e-3
-1.465, 7.387e-3
-1.464, 7.301e-3
-1.463, 7.208e-3
-1.462, 7.107e-3
-1.461, 6.999e-3
-1.460, 6.891e-3
-1.459, 6.801e-3
-1.458, 6.715e-3
-1.457, 6.620e-3
-1.456, 6.512e-3
-1.455, 6.410e-3
-1.454, 6.321e-3
-1.453, 6.240e-3
-1.452, 6.151e-3
-1.451, 6.055e-3
-1.450, 5.957e-3
-1.449, 5.870e-3
-1.448, 5.790e-3
-1.447, 5.704e-3
-1.446, 5.608e-3
-1.445, 5.513e-3
-1.444, 5.436e-3
-1.443, 5.362e-3
-1.442, 5.275e-3
-1.441, 5.180e-3
-1.440, 5.093e-3
-1.439, 5.019e-3
-1.438, 4.949e-3
-1.437, 4.875e-3
-1.436, 4.791e-3
-1.435, 4.705e-3
-1.434, 4.631e-3
-1.433, 4.560e-3
-1.432, 4.489e-3
-1.431, 4.403e-3
-1.430, 4.323e-3
-1.429, 4.249e-3
-1.428, 4.184e-3
-1.427, 4.116e-3
-1.426, 4.033e-3
-1.425, 3.950e-3
-1.424, 3.882e-3
-1.423, 3.820e-3
-1.422, 3.755e-3
-1.421, 3.678e-3
-1.420, 3.601e-3
-1.419, 3.536e-3
-1.418, 3.475e-3
-1.417, 3.410e-3
-1.416, 3.336e-3
-1.415, 3.262e-3
-1.414, 3.197e-3
-1.413, 3.139e-3
-1.412, 3.074e-3
-1.411, 3.003e-3
-1.410, 2.935e-3
-1.409, 2.880e-3
-1.408, 2.827e-3
-1.407, 2.766e-3
-1.406, 2.695e-3
-1.405, 2.630e-3
-1.404, 2.575e-3
-1.403, 2.522e-3
-1.402, 2.464e-3
-1.401, 2.396e-3
-1.400, 2.334e-3
-1.399, 2.285e-3
-1.398, 2.238e-3
-1.397, 2.183e-3
-1.396, 2.118e-3
-1.395, 2.050e-3
-1.394, 1.998e-3
-1.393, 1.952e-3
-1.392, 1.902e-3
-1.391, 1.841e-3
-1.390, 1.782e-3
-1.389, 1.736e-3
-1.388, 1.693e-3
-1.387, 1.643e-3
-1.386, 1.579e-3
-1.385, 1.520e-3
-1.384, 1.474e-3
-1.383, 1.431e-3
-1.382, 1.384e-3
-1.381, 1.329e-3
-1.380, 1.273e-3
-1.379, 1.224e-3
-1.378, 1.187e-3
-1.377, 1.141e-3
-1.376, 1.085e-3
-1.375, 1.033e-3
-1.374, 9.929e-4
-1.373, 9.559e-4
-1.372, 9.128e-4
-1.371, 8.573e-4
-1.370, 8.048e-4
-1.369, 7.617e-4
-1.368, 7.309e-4
-1.367, 6.877e-4
-1.366, 6.384e-4
-1.365, 5.890e-4
-1.364, 5.489e-4
-1.363, 5.181e-4
-1.362, 4.780e-4
-1.361, 4.287e-4
-1.360, 3.825e-4
-1.359, 3.455e-4
-1.358, 3.146e-4
-1.357, 2.776e-4
-1.356, 2.314e-4
-1.355, 1.851e-4
-1.354, 1.481e-4
-1.353, 1.173e-4
-1.352, 8.340e-5
-1.351, 4.024e-5
-1.350, -6.010e-6
-1.349, -3.992e-5
-1.348, -6.767e-5
-1.347, -1.016e-4
-1.346, -1.448e-4
-1.345, -1.879e-4
-1.344, -2.187e-4
-1.343, -2.465e-4
-1.342, -2.773e-4
-1.341, -3.174e-4
-1.340, -3.606e-4
-1.339, -3.914e-4
-1.338, -4.161e-4
-1.337, -4.469e-4
-1.336, -4.870e-4
-1.335, -5.271e-4
-1.334, -5.548e-4
-1.333, -5.764e-4
-1.332, -6.072e-4
-1.331, -6.442e-4
-1.330, -6.843e-4
-1.329, -7.120e-4
-1.328, -7.336e-4
-1.327, -7.614e-4
-1.326, -7.984e-4
-1.325, -8.354e-4
-1.324, -8.631e-4
-1.323, -8.816e-4
-1.322, -9.094e-4
-1.321, -9.464e-4
-1.320, -9.772e-4
-1.319, -1.005e-3
-1.318, -1.027e-3
-1.317, -1.051e-3
-1.316, -1.085e-3
-1.315, -1.122e-3
-1.314, -1.144e-3
-1.313, -1.159e-3
-1.312, -1.184e-3
-1.311, -1.218e-3
-1.310, -1.249e-3
-1.309, -1.273e-3
-1.308, -1.292e-3
-1.307, -1.313e-3
-1.306, -1.347e-3
-1.305, -1.378e-3
-1.304, -1.396e-3
-1.303, -1.415e-3
-1.302, -1.440e-3
-1.301, -1.470e-3
-1.300, -1.501e-3
-1.299, -1.523e-3
-1.298, -1.538e-3
-1.297, -1.563e-3
-1.296, -1.591e-3
-1.295, -1.618e-3
-1.294, -1.637e-3
-1.293, -1.649e-3
-1.292, -1.671e-3
-1.291, -1.705e-3
-1.290, -1.739e-3
-1.289, -1.754e-3
-1.288, -1.763e-3
-1.287, -1.782e-3
-1.286, -1.813e-3
-1.285, -1.840e-3
-1.284, -1.862e-3
-1.283, -1.874e-3
-1.282, -1.893e-3
-1.281, -1.921e-3
-1.280, -1.945e-3
-1.279, -1.967e-3
-1.278, -1.979e-3
-1.277, -1.998e-3
-1.276, -2.022e-3
-1.275, -2.050e-3
-1.274, -2.066e-3
-1.273, -2.078e-3
-1.272, -2.096e-3
-1.271, -2.127e-3
-1.270, -2.155e-3
-1.269, -2.170e-3
-1.268, -2.177e-3
-1.267, -2.195e-3
-1.266, -2.220e-3
-1.265, -2.247e-3
-1.264, -2.269e-3
-1.263, -2.278e-3
-1.262, -2.297e-3
-1.261, -2.321e-3
-1.260, -2.343e-3
-1.259, -2.358e-3
-1.258, -2.371e-3
-1.257, -2.386e-3
-1.256, -2.414e-3
-1.255, -2.442e-3
-1.254, -2.451e-3
-1.253, -2.460e-3
-1.252, -2.479e-3
-1.251, -2.509e-3
-1.250, -2.540e-3
-1.249, -2.559e-3
-1.248, -2.562e-3
-1.247, -2.577e-3
-1.246, -2.599e-3
-1.245, -2.624e-3
-1.244, -2.642e-3
-1.243, -2.654e-3
-1.242, -2.673e-3
-1.241, -2.698e-3
-1.240, -2.722e-3
-1.239, -2.738e-3
-1.238, -2.747e-3
-1.237, -2.765e-3
-1.236, -2.796e-3
-1.235, -2.821e-3
-1.234, -2.836e-3
-1.233, -2.842e-3
-1.232, -2.861e-3
-1.231, -2.892e-3
-1.230, -2.923e-3
-1.229, -2.941e-3
-1.228, -2.953e-3
-1.227, -2.966e-3
-1.226, -2.990e-3
-1.225, -3.018e-3
-1.224, -3.034e-3
-1.223, -3.046e-3
-1.222, -3.064e-3
-1.221, -3.089e-3
-1.220, -3.117e-3
-1.219, -3.132e-3
-1.218, -3.151e-3
-1.217, -3.169e-3
-1.216, -3.200e-3
-1.215, -3.228e-3
-1.214, -3.249e-3
-1.213, -3.265e-3
-1.212, -3.283e-3
-1.211, -3.311e-3
-1.210, -3.342e-3
-1.209, -3.364e-3
-1.208, -3.379e-3
-1.207, -3.397e-3
-1.206, -3.428e-3
-1.205, -3.462e-3
-1.204, -3.484e-3
-1.203, -3.496e-3
-1.202, -3.518e-3
-1.201, -3.545e-3
-1.200, -3.573e-3
-1.199, -3.601e-3
-1.198, -3.622e-3
-1.197, -3.650e-3
-1.196, -3.681e-3
-1.195, -3.712e-3
-1.194, -3.733e-3
-1.193, -3.752e-3
-1.192, -3.774e-3
-1.191, -3.804e-3
-1.190, -3.835e-3
-1.189, -3.863e-3
-1.188, -3.881e-3
-1.187, -3.909e-3
-1.186, -3.952e-3
-1.185, -3.992e-3
-1.184, -4.014e-3
-1.183, -4.029e-3
-1.182, -4.057e-3
-1.181, -4.091e-3
-1.180, -4.131e-3
-1.179, -4.162e-3
-1.178, -4.187e-3
-1.177, -4.211e-3
-1.176, -4.245e-3
-1.175, -4.282e-3
-1.174, -4.313e-3
-1.173, -4.335e-3
-1.172, -4.366e-3
-1.171, -4.409e-3
-1.170, -4.446e-3
-1.169, -4.470e-3
-1.168, -4.489e-3
-1.167, -4.523e-3
-1.166, -4.566e-3
-1.165, -4.606e-3
-1.164, -4.637e-3
-1.163, -4.652e-3
-1.162, -4.686e-3
-1.161, -4.742e-3
-1.160, -4.803e-3
-1.159, -4.846e-3
-1.158, -4.865e-3
-1.157, -4.890e-3
-1.156, -4.917e-3
-1.155, -4.945e-3
-1.154, -4.979e-3
-1.153, -5.022e-3
-1.152, -5.065e-3
-1.151, -5.109e-3
-1.150, -5.149e-3
-1.149, -5.173e-3
-1.148, -5.198e-3
-1.147, -5.232e-3
-1.146, -5.284e-3
-1.145, -5.337e-3
-1.144, -5.371e-3
-1.143, -5.395e-3
-1.142, -5.426e-3
-1.141, -5.482e-3
-1.140, -5.540e-3
-1.139, -5.583e-3
-1.138, -5.620e-3
-1.137, -5.651e-3
-1.136, -5.688e-3
-1.135, -5.731e-3
-1.134, -5.768e-3
-1.133, -5.802e-3
-1.132, -5.842e-3
-1.131, -5.886e-3
-1.130, -5.926e-3
-1.129, -5.959e-3
-1.128, -5.993e-3
-1.127, -6.040e-3
-1.126, -6.089e-3
-1.125, -6.138e-3
-1.124, -6.175e-3
-1.123, -6.203e-3
-1.122, -6.234e-3
-1.121, -6.277e-3
-1.120, -6.326e-3
-1.119, -6.363e-3
-1.118, -6.394e-3
-1.117, -6.431e-3
-1.116, -6.481e-3
-1.115, -6.527e-3
-1.114, -6.558e-3
-1.113, -6.585e-3
-1.112, -6.625e-3
-1.111, -6.672e-3
-1.110, -6.715e-3
-1.109, -6.743e-3
-1.108, -6.767e-3
-1.107, -6.804e-3
-1.106, -6.844e-3
-1.105, -6.888e-3
-1.104, -6.934e-3
-1.103, -6.971e-3
-1.102, -7.014e-3
-1.101, -7.057e-3
-1.100, -7.097e-3
-1.099, -7.131e-3
-1.098, -7.165e-3
-1.097, -7.208e-3
-1.096, -7.267e-3
-1.095, -7.319e-3
-1.094, -7.353e-3
-1.093, -7.372e-3
-1.092, -7.396e-3
-1.091, -7.436e-3
-1.090, -7.489e-3
-1.089, -7.529e-3
-1.088, -7.557e-3
-1.087, -7.584e-3
-1.086, -7.627e-3
-1.085, -7.677e-3
-1.084, -7.717e-3
-1.083, -7.754e-3
-1.082, -7.788e-3
-1.081, -7.828e-3
-1.080, -7.859e-3
-1.079, -7.890e-3
-1.078, -7.917e-3
-1.077, -7.957e-3
-1.076, -8.007e-3
-1.075, -8.056e-3
-1.074, -8.087e-3
-1.073, -8.112e-3
-1.072, -8.133e-3
-1.071, -8.182e-3
-1.070, -8.235e-3
-1.069, -8.259e-3
-1.068, -8.287e-3
-1.067, -8.324e-3
-1.066, -8.352e-3
-1.065, -8.395e-3
-1.064, -8.448e-3
-1.063, -8.491e-3
-1.062, -8.522e-3
-1.061, -8.540e-3
-1.060, -8.562e-3
-1.059, -8.583e-3
-1.058, -8.611e-3
-1.057, -8.654e-3
-1.056, -8.700e-3
-1.055, -8.740e-3
-1.054, -8.756e-3
-1.053, -8.768e-3
-1.052, -8.802e-3
-1.051, -8.845e-3
-1.050, -8.885e-3
-1.049, -8.913e-3
-1.048, -8.938e-3
-1.047, -8.966e-3
-1.046, -9.006e-3
-1.045, -9.055e-3
-1.044, -9.089e-3
-1.043, -9.110e-3
-1.042, -9.132e-3
-1.041, -9.169e-3
-1.040, -9.212e-3
-1.039, -9.240e-3
-1.038, -9.262e-3
-1.037, -9.289e-3
-1.036, -9.320e-3
-1.035, -9.354e-3
-1.034, -9.385e-3
-1.033, -9.416e-3
-1.032, -9.443e-3
-1.031, -9.474e-3
-1.030, -9.508e-3
-1.029, -9.536e-3
-1.028, -9.567e-3
-1.027, -9.594e-3
-1.026, -9.625e-3
-1.025, -9.662e-3
-1.024, -9.684e-3
-1.023, -9.687e-3
-1.022, -9.709e-3
-1.021, -9.749e-3
-1.020, -9.795e-3
-1.019, -9.826e-3
-1.018, -9.850e-3
-1.017, -9.878e-3
-1.016, -9.909e-3
-1.015, -9.943e-3
-1.014, -9.961e-3
-1.013, -9.964e-3
-1.012, -9.983e-3
-1.011, -1.002e-2
-1.010, -1.005e-2
-1.009, -1.008e-2
-1.008, -1.009e-2
-1.007, -1.011e-2
-1.006, -1.014e-2
-1.005, -1.017e-2
-1.004, -1.020e-2
-1.003, -1.021e-2
-1.002, -1.023e-2
-1.001, -1.024e-2
