Potential V vs RHE, Current mA cm-2
0.013299999999999867,12.080219789547549
0.012299999999999978,10.46603419640154
0.011299999999999866,8.983416754142983
0.010299999999999976,7.630952751472008
0.009299999999999864,6.278488748801033
0.008299999999999974,5.057592897017507
0.007299999999999862,3.8366970452339793
0.006299999999999972,2.70209858274222
0.00529999999999986,1.6113561705462767
0.0042999999999999705,0.5211796428702795
0.0032999999999998586,-0.5692798270656908
0.0022999999999999687,-1.6156003044458718
0.0012999999999998568,-2.662486666345999
0.00029999999999996696,-3.7093730282461257
-0.000700000000000145,-4.756259390146253
-0.0017000000000000348,-5.759289701750564
-0.0027000000000001467,-6.762320013354876
-0.0037000000000000366,-7.7653503249591855
-0.0047000000000001485,-8.68208324727173
-0.005700000000000038,-9.59740145828441
-0.00670000000000015,-10.42642228000532
-0.00770000000000004,-11.299299152022046
-0.008700000000000152,-12.12831997374296
-0.009700000000000042,-12.955926084164007
-0.010700000000000154,-13.784946905884919
-0.011700000000000044,-14.65640906660178
-0.012700000000000156,-15.491088733522153
-0.013700000000000045,-16.354062626439823
-0.014700000000000157,-17.146300954364243
-0.015700000000000047,-18.009274847281915
-0.01670000000000016,-18.80151317520634
-0.01770000000000005,-19.636192842126707
-0.01870000000000016,-20.371842718056527
-0.01970000000000005,-21.065051254990397
-0.020700000000000163,-21.772406904922917
-0.021700000000000053,-22.46561544185678
-0.022700000000000164,-23.15882397879065
-0.023700000000000054,-23.908620967719123
-0.024700000000000166,-24.64427084364894
-0.025700000000000056,-25.39406783257741
-0.026700000000000168,-26.087276369511276
-0.027700000000000058,-26.86536758443705
-0.02870000000000017,-27.615164573365515
-0.02970000000000006,-28.350814449295335
-0.03070000000000017,-29.058170099227848
-0.03170000000000006,-29.751378636161718
-0.03270000000000017,-30.402145834099635
-0.03370000000000006,-31.052913032037555
-0.034700000000000175,-31.717827342974125
-0.035700000000000065,-32.32615320191609
-0.03670000000000018,-32.97692039985401
-0.03770000000000007,-33.58524625879597
-0.03870000000000018,-34.278454795729836
-0.03970000000000007,-34.94336910666641
-0.04070000000000018,-35.679018982596226
-0.04170000000000007,-36.329786180534136
-0.04270000000000018,-37.037141830466666
-0.04370000000000007,-37.73035036740053
-0.044700000000000184,-38.38111756533845
-0.045700000000000074,-39.046031876275016
-0.046700000000000186,-39.654357735216976
-0.047700000000000076,-40.26268359415894
-0.04870000000000019,-40.828568114104954
-0.04970000000000008,-41.43689397304693
-0.05070000000000019,-42.04521983198889
-0.05170000000000008,-42.71013414292546
-0.05270000000000019,-43.36090134086337
-0.05370000000000008,-44.011668538801295
-0.05470000000000019,-44.74731841473111
-0.05570000000000008,-45.45467406466363
-0.056700000000000195,-46.147882601597495
-0.057700000000000085,-46.84109113853137
-0.058700000000000196,-47.46356411047198
-0.059700000000000086,-48.071889969413945
-0.0607000000000002,-48.63777448935996
-0.06170000000000009,-49.20365900930597
-0.0627000000000002,-49.81198486824794
-0.06370000000000009,-50.37786938819396
-0.0647000000000002,-50.98619524713592
-0.06570000000000009,-51.65110955807249
-0.0667000000000002,-52.30187675601041
-0.0677000000000001,-52.995085292944275
-0.0687000000000002,-53.68829382987814
-0.0697000000000001,-54.39564947981066
-0.07070000000000021,-55.088858016744524
-0.0717000000000001,-55.73962521468245
-0.07270000000000021,-56.36209818662306
-0.0737000000000001,-56.97042404556503
-0.07470000000000021,-57.57874990450699
-0.0757000000000001,-58.18707576344896
-0.07670000000000021,-58.75296028339497
-0.0777000000000001,-59.403727481332886
-0.07870000000000021,-60.11108313126541
-0.0797000000000001,-60.761850329203334
-0.08070000000000022,-61.49750020513315
-0.0817000000000001,-62.16241451606972
-0.08270000000000022,-62.855623053003576
-0.08370000000000011,-63.54883158993744
-0.08470000000000022,-64.15715744887942
-0.08570000000000011,-64.82207175981598
-0.08670000000000022,-65.43039761875795
-0.08770000000000011,-66.03872347769992
-0.08870000000000022,-66.68949067563783
-0.08970000000000011,-67.34025787357575
-0.09070000000000022,-68.0051721845123
-0.09170000000000011,-68.69838072144618
-0.09270000000000023,-69.43403059737601
-0.09370000000000012,-70.14138624730852
-0.09470000000000023,-70.87703612323833
-0.09570000000000012,-71.6268331121668
-0.09670000000000023,-72.32004164910067
-0.09770000000000012,-73.01325018603454
-0.09870000000000023,-73.6781644969711
-0.09970000000000012,-74.28649035591307
-0.10070000000000023,-74.89481621485504
-0.10170000000000012,-75.50314207379701
-0.10270000000000024,-76.11146793273898
-0.10370000000000013,-76.71979379168094
-0.10470000000000024,-77.38470810261751
-0.10570000000000013,-78.03547530055542
-0.10670000000000024,-78.77112517648524
-0.10770000000000013,-79.56336350440966
-0.10870000000000024,-80.34145471933543
-0.10970000000000013,-81.13369304725985
-0.11070000000000024,-81.91178426218562
-0.11170000000000013,-82.61913991211814
-0.11270000000000002,-83.31234844905201
-0.11370000000000013,-84.00555698598588
-0.11470000000000002,-84.6563241839238
-0.11570000000000014,-85.32123849486035
-0.11670000000000003,-85.92956435380233
-0.11770000000000014,-86.58033155174023
-0.11870000000000003,-87.23109874967815
-0.11970000000000014,-87.93845439961068
-0.12070000000000003,-88.63166293654454
-0.12170000000000014,-89.36731281247435
-0.12270000000000003,-90.07466846240689
-0.12370000000000014,-90.81031833833671
-0.12470000000000003,-91.56011532726518
-0.12570000000000014,-92.25332386419905
-0.12670000000000003,-92.94653240113291
-0.12770000000000015,-93.69632939006138
-0.12870000000000004,-94.4319792659912
-0.12970000000000015,-95.18177625491967
-0.13070000000000004,-95.87498479185354
-0.13170000000000015,-96.61063466778336
-0.13270000000000004,-97.36043165671182
-0.13370000000000015,-98.05364019364569
-0.13470000000000004,-98.7892900695755
-0.13570000000000015,-99.53908705850398
-0.13670000000000004,-100.23229559543785
-0.13770000000000016,-100.98209258436633
-0.13870000000000005,-101.71774246029614
-0.13970000000000016,-102.41095099723
-0.14070000000000005,-103.11830664716253
-0.14170000000000016,-103.76907384510045
-0.14270000000000005,-104.46228238203432
-0.14370000000000016,-105.16963803196683
-0.14470000000000005,-105.86284656890071
-0.14570000000000016,-106.64093778382647
-0.14670000000000005,-107.4331761117509
-0.14770000000000016,-108.3102971176672
-0.14870000000000005,-109.13082967158894
-0.14970000000000017,-109.9655093385093
-0.15070000000000006,-110.74360055343507
-0.15170000000000017,-111.49339754236355
-0.15270000000000006,-112.14416474030146
-0.15370000000000017,-112.83737327723534
-0.15470000000000006,-113.48814047517324
-0.15570000000000017,-114.1530547861098
-0.15670000000000006,-114.80382198404773
-0.15770000000000017,-115.4121478429897
-0.15870000000000006,-116.10535637992358
-0.15970000000000018,-116.85515336885203
-0.16070000000000007,-117.63324458377778
-0.16170000000000018,-118.42548291170223
-0.16270000000000007,-119.20357412662798
-0.16370000000000018,-120.08069513254432
-0.16470000000000007,-120.85878634747009
-0.16570000000000018,-121.65102467539451
-0.16670000000000007,-122.42911589032028
-0.16770000000000018,-123.2213542182447
-0.16870000000000007,-123.95700409417452
-0.16970000000000018,-124.70680108310299
-0.17070000000000007,-125.44245095903281
-0.17170000000000019,-126.19224794796128
-0.17270000000000008,-126.9278978238911
-0.1737000000000002,-127.72013615181551
-0.17470000000000008,-128.45578602774532
-0.1757000000000002,-129.19143590367514
-0.17670000000000008,-129.9412328926036
-0.1777000000000002,-130.67688276853346
-0.17870000000000008,-131.32764996647134
-0.1797000000000002,-132.03500561640385
-0.18070000000000008,-132.72821415333775
-0.1817000000000002,-133.4214226902716
-0.18270000000000008,-134.17121967920008
-0.1837000000000002,-134.94931089412586
-0.1847000000000001,-135.82643190004217
-0.1857000000000002,-136.70355290595847
-0.1867000000000001,-137.56652679887617
-0.1877000000000002,-138.44364780479248
-0.1887000000000001,-139.3207688107088
-0.1897000000000002,-140.18374270362645
-0.1907000000000001,-140.9759810315509
-0.1917000000000001,-141.75407224647665
-0.19269999999999998,-142.4614278964092
-0.1937000000000001,-143.16878354634173
-0.19469999999999998,-143.73466806628772
-0.1957000000000001,-144.44202371622026
-0.19669999999999999,-145.00790823616626
-0.1977000000000001,-145.7152638860988
-0.1987,-146.5640906660178
-0.1997000000000001,-147.4129174459368
-0.2007,-148.26174422585584
-0.2017000000000001,-149.1105710057749
-0.2027,-150.1008689156804
-0.2037000000000001,-150.94969569559944
-0.2047,-151.7985224755184
-0.2057000000000001,-152.64734925543743
-0.2067,-153.49617603535648
-0.2077000000000001,-154.3450028152755
-0.2087,-155.05235846520802
-0.2097000000000001,-155.90118524512707
-0.2107,-156.46706976507306
-0.2117000000000001,-157.17442541500557
-0.2127,-157.7403099349516
-0.2137000000000001,-158.4476655848841
-0.2147,-159.15502123481662
-0.2157000000000001,-160.00384801473567
-0.2167,-160.8526747946547
-0.21770000000000012,-161.70150157457368
-0.2187,-162.5503283544927
-0.21970000000000012,-163.39915513441173
-0.2207,-164.24798191433075
-0.22170000000000012,-165.09680869424977
-0.2227,-165.94563547416882
-0.22370000000000012,-166.79446225408785
-0.2247,-167.6432890340068
-0.22570000000000012,-168.49211581392586
-0.2267,-169.3409425938449
-0.22770000000000012,-170.33124050375042
-0.22870000000000001,-171.18006728366944
-0.22970000000000013,-172.0288940635885
-0.23070000000000002,-172.87772084350746
-0.23170000000000013,-173.44360536345349
-0.23270000000000002,-174.150961013386
-0.23370000000000013,-174.71684553333202
-0.23470000000000002,-175.42420118326456
-0.23570000000000013,-176.13155683319707
-0.23670000000000002,-176.98038361311612
-0.2376999999999999,-177.6877392630486
-0.23870000000000002,-178.67803717295413
-0.2396999999999999,-179.52686395287316
-0.24070000000000003,-180.37569073279218
-0.24169999999999991,-181.2245175127112
-0.24270000000000003,-182.21481542261674
-0.24369999999999992,-183.06364220253573
-0.24470000000000003,-183.91246898245475
-0.24569999999999992,-184.7612957623738
-0.24670000000000003,-185.46865141230631
-0.24769999999999992,-186.31747819222534
-0.24870000000000003,-187.16630497214436
-0.24969999999999992,-187.87366062207687
-0.25070000000000003,-188.72248740199586
-0.2516999999999999,-189.42984305192843
-0.25270000000000004,-190.13719870186094
-0.2536999999999999,-190.98602548177996
-0.25470000000000004,-191.83485226169896
-0.2556999999999999,-192.683679041618
-0.25670000000000004,-193.532505821537
-0.25769999999999993,-194.52280373144254
-0.25870000000000004,-195.37163051136156
-0.25969999999999993,-196.0789861612941
-0.26070000000000004,-196.92781294121312
-0.26169999999999993,-197.77663972113214
-0.26270000000000004,-198.48399537106465
-0.26369999999999993,-199.19135102099716
-0.26470000000000005,-200.04017780091618
-0.26569999999999994,-200.7475334508487
-0.26670000000000005,-201.59636023076774
-0.26769999999999994,-202.58665814067325
-0.26870000000000005,-203.43548492059227
-0.26969999999999994,-204.2843117005113
-0.27070000000000005,-205.13313848043032
-0.27169999999999994,-205.98196526034934
-0.27270000000000005,-206.68932091028185
-0.27369999999999994,-207.5381476902009
-0.27470000000000006,-208.24550334013338
-0.27569999999999995,-208.95285899006592
-0.27670000000000006,-209.94315689997146
-0.27769999999999995,-210.65051254990397
-0.27870000000000006,-211.499339329823
-0.27969999999999995,-212.34816610974204
-0.28070000000000006,-213.05552175967455
-0.28169999999999995,-214.04581966958003
-0.28270000000000006,-214.89464644949908
-0.28369999999999995,-215.7434732294181
-0.28470000000000006,-216.59230000933712
-0.28569999999999995,-217.29965565926966
-0.28670000000000007,-218.14848243918865
-0.28769999999999996,-218.99730921910768
-0.28870000000000007,-219.8461359990267
-0.28969999999999996,-220.5534916489592
-0.29070000000000007,-221.26084729889175
-0.29169999999999996,-222.10967407881074
-0.29270000000000007,-222.81702972874328
-0.29369999999999996,-223.6658565086623
-0.2947000000000001,-224.37321215859478
-0.29569999999999996,-225.22203893851383
-0.2967000000000001,-226.21233684841937
-0.29769999999999996,-227.06116362833836
-0.2987000000000001,-227.9099904082574
-0.29969999999999997,-228.75881718817644
-0.3007000000000001,-229.46617283810895
-0.30169999999999997,-230.31499961802797
-0.3027000000000001,-231.0223552679605
-0.30369999999999997,-231.729710917893
-0.3047000000000001,-232.57853769781204
-0.30569999999999997,-233.4273644777311
-0.3067000000000001,-234.27619125765005
-0.3077,-235.26648916755556
-0.3087000000000001,-236.1153159474746
-0.3097,-236.96414272739366
-0.3107000000000001,-237.9544406372992
-0.3117,-238.66179628723168
-0.3127000000000001,-239.5106230671507
-0.3137,-240.21797871708318
-0.3147000000000001,-240.92533436701575
-0.3157,-241.77416114693477
-0.3167000000000001,-242.62298792685377
-0.3177,-243.47181470677282
-0.3187000000000001,-244.32064148669184
-0.3197,-245.16946826661086
-0.3207000000000001,-246.01829504652986
-0.3217,-246.8671218264489
-0.3227000000000001,-247.71594860636796
-0.3237,-248.42330425630044
-0.3247000000000001,-249.13065990623298
-0.3257,-249.83801555616546
-0.3267000000000001,-250.6868423360845
-0.3277,-251.39419798601702
-0.3287000000000001,-252.10155363594956
-0.3297,-252.95038041586852
-0.3307000000000001,-253.65773606580112
-0.3317,-254.36509171573357
-0.3327000000000001,-255.21391849565262
-0.3337,-256.0627452755717
-0.3347000000000001,-257.0530431854772
-0.3357,-258.0433410953827
-0.3367000000000001,-258.8921678753017
-0.3377,-260.02393691519376
-0.3387000000000001,-260.8727636951128
-0.3397,-261.8630616050183
-0.3407000000000001,-262.8533595149238
-0.3417,-263.7021862948428
-0.3427000000000001,-264.55101307476184
-0.3437,-265.39983985468086
-0.3447000000000001,-266.2486666345999
-0.3457,-266.9560222845325
-0.3467000000000001,-267.80484906445145
-0.3477,-268.512204714384
-0.3487000000000001,-269.361031494303
-0.3497,-270.0683871442355
-0.3507000000000001,-270.9172139241545
-0.3517,-271.62456957408705
-0.3527000000000001,-272.1904540940331
-0.3537,-272.8978097439656
-0.3547000000000001,-273.60516539389806
-0.3557,-274.31252104383066
-0.35670000000000013,-275.0198766937631
-0.3577,-275.7272323436957
-0.35870000000000013,-276.7175302536012
-0.3597,-277.56635703352015
-0.36070000000000013,-278.5566549434257
-0.3617,-279.40548172334474
-0.3626999999999999,-280.3957796332503
-0.3637,-281.1031352831828
-0.3646999999999999,-281.9519620631018
-0.3657,-282.65931771303434
-0.3666999999999999,-283.3666733629668
-0.3677,-284.07402901289936
-0.3686999999999999,-284.7813846628319
-0.36970000000000003,-285.4887403127644
-0.3706999999999999,-286.196095962697
-0.37170000000000003,-287.1863938726024
-0.3726999999999999,-287.893749522535
-0.37370000000000003,-288.742576302454
-0.3746999999999999,-289.59140308237295
-0.37570000000000003,-290.44022986229203
-0.3766999999999999,-291.14758551222457
-0.37770000000000004,-291.9964122921436
-0.3786999999999999,-292.56229681208964
-0.37970000000000004,-293.26965246202207
-0.3806999999999999,-293.8355369819681
-0.38170000000000004,-294.54289263190066
-0.38269999999999993,-295.25024828183314
-0.38370000000000004,-296.0990750617522
-0.38469999999999993,-296.80643071168464
-0.38570000000000004,-297.51378636161724
-0.38669999999999993,-298.3626131415362
-0.38770000000000004,-299.06996879146874
-0.38869999999999993,-299.91879557138776
-0.38970000000000005,-300.6261512213203
-0.39069999999999994,-301.33350687125284
-0.39170000000000005,-301.8993913911989
-0.39269999999999994,-302.4652759111449
-0.39370000000000005,-303.31410269106385
-0.39469999999999994,-304.4458717309559
-0.39570000000000005,-305.57764077084795
-0.39669999999999994,-306.56793868075346
-0.39770000000000005,-307.1338232006995
-0.39869999999999994,-307.55823659065896
-0.39970000000000006,-307.69970772064545
-0.40069999999999995,-307.98264998061853
-0.40170000000000006,-308.2655922405915
-0.40269999999999995,-308.54853450056453
-0.40370000000000006,-309.255890150497
-0.40469999999999995,-310.10471693041603
-0.40570000000000006,-311.09501484032154
-0.40669999999999995,-311.94384162024056
-0.40770000000000006,-312.65119727017316
-0.40869999999999995,-313.5000240500921
-0.40970000000000006,-314.34885083001114
-0.41069999999999995,-315.19767760993017
-0.41170000000000007,-316.04650438984913
-0.41269999999999996,-316.8953311697682
-0.41370000000000007,-317.60268681970075
-0.41469999999999996,-318.02710020966026
-0.41570000000000007,-318.16857133964675
-0.41669999999999996,-318.31004246963323
-0.41770000000000007,-318.59298472960626
-0.41869999999999996,-318.8759269895793
-0.4197000000000001,-319.30034037953874
-0.42069999999999996,-320.00769602947133
-0.4217000000000001,-320.9979939393768
-0.42269999999999996,-321.8468207192958
-0.4237000000000001,-322.6956474992149
-0.42469999999999997,-323.68594540912045
-0.4257000000000001,-324.67624331902596
-0.42669999999999997,-325.3835989689584
-0.4277000000000001,-326.090954618891
-0.42869999999999997,-326.656839138837
-0.4297000000000001,-327.222723658783
-0.43069999999999997,-327.6471370487425
-0.4317000000000001,-328.071550438702
-0.4327,-328.4959638286615
-0.4337000000000001,-329.0618483486075
-0.4347,-329.62773286855355
-0.4357000000000001,-330.19361738849955
-0.4367,-330.7595019084456
-0.4377000000000001,-331.3253864283916
-0.4387,-332.03274207832413
-0.4397000000000001,-332.59862659827013
-0.4407,-333.02303998822964
-0.4417000000000001,-333.30598224820267
-0.4427,-333.5889245081757
-0.4437000000000001,-334.01333789813515
-0.4447,-334.43775128809466
-0.4457000000000001,-335.00363580804066
-0.4467,-335.2865780680136
-0.4477000000000001,-335.5695203279867
-0.4487,-335.71099145797325
-0.4497000000000001,-335.9939337179462
-0.4507,-336.4183471079057
-0.4517000000000001,-337.26717388782475
-0.4527,-338.2574717977303
-0.4537000000000001,-339.2477697076358
-0.4547,-340.3795387475279
-0.4557000000000001,-341.3698366574333
-0.4567,-342.07719230736586
-0.4577000000000001,-342.7845479572984
-0.4587,-343.2089613472579
-0.4597000000000001,-343.3504324772444
-0.4607,-343.3504324772444
-0.4617000000000001,-343.2089613472579
-0.4627,-343.2089613472579
-0.4637000000000001,-343.3504324772444
-0.4647,-343.63337473721737
-0.4657000000000001,-343.9163169971904
-0.4667,-344.1992592571634
-0.4677000000000001,-344.48220151713645
-0.4687,-344.90661490709596
-0.4697000000000001,-345.47249942704195
-0.4707,-346.03838394698795
-0.4717000000000001,-346.604268466934
-0.4727,-347.17015298688
-0.4737000000000001,-347.73603750682605
-0.4747,-348.301922026772
-0.4757000000000001,-348.72633541673156
-0.4767,-349.15074880669107
-0.4777000000000001,-349.5751621966506
-0.4787,-349.85810445662355
-0.4797000000000001,-349.9995755866101
-0.4807,-350.1410467165966
-0.48170000000000013,-350.2825178465831
-0.4827,-350.5654601065561
-0.48370000000000013,-350.8484023665291
-0.4847,-351.1313446265021
-0.48570000000000013,-351.4142868864751
-0.4867,-350.5654601065561
-0.48570000000000013,-347.73603750682605
-0.4847,-344.7651437771094
-0.48370000000000013,-341.9357211773794
-0.4827,-339.1062985776493
-0.48170000000000013,-336.27687597791925
-0.4807,-333.44745337818915
-0.4797000000000001,-330.618030778459
-0.4787,-327.9300793087155
-0.4777000000000001,-325.24212783897195
-0.4767,-322.6956474992149
-0.4757000000000001,-320.1491671594578
-0.4747,-317.74415794968724
-0.4737000000000001,-315.19767760993017
-0.4727,-312.65119727017316
-0.4717000000000001,-310.10471693041603
-0.4707,-307.69970772064545
-0.4697000000000001,-305.29469851087487
-0.4687,-302.88968930110434
-0.4677000000000001,-300.48468009133376
-0.4667,-298.07967088156323
-0.4657000000000001,-295.53319054180616
-0.4647,-293.1281813320356
