Sept. 20, 2024   20:16:32
Cyclic Voltammetry
File: c:/users/guazh/data/20240903_batch_400_500/2024-09-20-exp402\exp402-2024-09-20t20_07_45-arkoh\exp402_cv_50mvs_efin_-1600mv.bin
Data Source:  Experiment
Instrument Model:  CHI760E
Header: CV ran at 50 mVs
Note: 

Init E (V) = -1
High E (V) = -1
Low E (V) = -1.6
Final E (V) = -1
Init P/N = N
Scan Rate (V/s) = 0.05
Segment = 7
Sample Interval (V) = 0.001
Quiet Time (sec) = 60
Sensitivity (A/V) = 0.001
Comp R (ohm) = 3.0

Results:

Channel 1:
Segment 1:

Segment 2:

Segment 3:

Segment 4:

Segment 5:

Segment 6:

Segment 7:

Potential/V, Current/A

-1.000, 8.937e-7
-1.001, 9.598e-7
-1.002, 1.090e-6
-1.003, 1.068e-6
-1.004, 1.128e-6
-1.005, 1.121e-6
-1.006, 1.145e-6
-1.007, 1.180e-6
-1.008, 1.134e-6
-1.009, 1.186e-6
-1.010, 1.221e-6
-1.011, 1.154e-6
-1.012, 1.194e-6
-1.013, 1.221e-6
-1.014, 1.281e-6
-1.015, 1.276e-6
-1.016, 1.211e-6
-1.017, 1.217e-6
-1.018, 1.285e-6
-1.019, 1.322e-6
-1.020, 1.304e-6
-1.021, 1.320e-6
-1.022, 1.319e-6
-1.023, 1.293e-6
-1.024, 1.322e-6
-1.025, 1.374e-6
-1.026, 1.324e-6
-1.027, 1.347e-6
-1.028, 1.325e-6
-1.029, 1.391e-6
-1.030, 1.413e-6
-1.031, 1.347e-6
-1.032, 1.406e-6
-1.033, 1.374e-6
-1.034, 1.442e-6
-1.035, 1.434e-6
-1.036, 1.399e-6
-1.037, 1.414e-6
-1.038, 1.433e-6
-1.039, 1.429e-6
-1.040, 1.458e-6
-1.041, 1.418e-6
-1.042, 1.465e-6
-1.043, 1.477e-6
-1.044, 1.496e-6
-1.045, 1.494e-6
-1.046, 1.459e-6
-1.047, 1.470e-6
-1.048, 1.485e-6
-1.049, 1.518e-6
-1.050, 1.579e-6
-1.051, 1.498e-6
-1.052, 1.476e-6
-1.053, 1.548e-6
-1.054, 1.532e-6
-1.055, 1.577e-6
-1.056, 1.546e-6
-1.057, 1.509e-6
-1.058, 1.580e-6
-1.059, 1.547e-6
-1.060, 1.614e-6
-1.061, 1.569e-6
-1.062, 1.594e-6
-1.063, 1.656e-6
-1.064, 1.605e-6
-1.065, 1.653e-6
-1.066, 1.609e-6
-1.067, 1.653e-6
-1.068, 1.648e-6
-1.069, 1.667e-6
-1.070, 1.720e-6
-1.071, 1.663e-6
-1.072, 1.627e-6
-1.073, 1.664e-6
-1.074, 1.678e-6
-1.075, 1.746e-6
-1.076, 1.675e-6
-1.077, 1.676e-6
-1.078, 1.712e-6
-1.079, 1.721e-6
-1.080, 1.753e-6
-1.081, 1.764e-6
-1.082, 1.733e-6
-1.083, 1.734e-6
-1.084, 1.763e-6
-1.085, 1.821e-6
-1.086, 1.745e-6
-1.087, 1.777e-6
-1.088, 1.786e-6
-1.089, 1.810e-6
-1.090, 1.861e-6
-1.091, 1.815e-6
-1.092, 1.786e-6
-1.093, 1.817e-6
-1.094, 1.844e-6
-1.095, 1.869e-6
-1.096, 1.820e-6
-1.097, 1.868e-6
-1.098, 1.913e-6
-1.099, 1.896e-6
-1.100, 1.898e-6
-1.101, 1.890e-6
-1.102, 1.865e-6
-1.103, 1.880e-6
-1.104, 1.927e-6
-1.105, 1.930e-6
-1.106, 1.899e-6
-1.107, 1.882e-6
-1.108, 1.974e-6
-1.109, 1.971e-6
-1.110, 2.020e-6
-1.111, 1.970e-6
-1.112, 1.968e-6
-1.113, 1.900e-6
-1.114, 1.997e-6
-1.115, 2.012e-6
-1.116, 1.999e-6
-1.117, 1.996e-6
-1.118, 2.030e-6
-1.119, 2.049e-6
-1.120, 2.032e-6
-1.121, 2.020e-6
-1.122, 2.050e-6
-1.123, 2.066e-6
-1.124, 2.083e-6
-1.125, 2.083e-6
-1.126, 2.077e-6
-1.127, 2.077e-6
-1.128, 2.112e-6
-1.129, 2.072e-6
-1.130, 2.214e-6
-1.131, 2.110e-6
-1.132, 2.109e-6
-1.133, 2.137e-6
-1.134, 2.134e-6
-1.135, 2.206e-6
-1.136, 2.121e-6
-1.137, 2.133e-6
-1.138, 2.159e-6
-1.139, 2.189e-6
-1.140, 2.230e-6
-1.141, 2.182e-6
-1.142, 2.213e-6
-1.143, 2.224e-6
-1.144, 2.167e-6
-1.145, 2.316e-6
-1.146, 2.223e-6
-1.147, 2.245e-6
-1.148, 2.258e-6
-1.149, 2.269e-6
-1.150, 2.310e-6
-1.151, 2.278e-6
-1.152, 2.285e-6
-1.153, 2.289e-6
-1.154, 2.279e-6
-1.155, 2.364e-6
-1.156, 2.296e-6
-1.157, 2.301e-6
-1.158, 2.340e-6
-1.159, 2.352e-6
-1.160, 2.385e-6
-1.161, 2.386e-6
-1.162, 2.364e-6
-1.163, 2.350e-6
-1.164, 2.402e-6
-1.165, 2.469e-6
-1.166, 2.398e-6
-1.167, 2.421e-6
-1.168, 2.440e-6
-1.169, 2.437e-6
-1.170, 2.462e-6
-1.171, 2.434e-6
-1.172, 2.488e-6
-1.173, 2.461e-6
-1.174, 2.483e-6
-1.175, 2.495e-6
-1.176, 2.443e-6
-1.177, 2.508e-6
-1.178, 2.515e-6
-1.179, 2.513e-6
-1.180, 2.553e-6
-1.181, 2.509e-6
-1.182, 2.550e-6
-1.183, 2.550e-6
-1.184, 2.579e-6
-1.185, 2.603e-6
-1.186, 2.558e-6
-1.187, 2.618e-6
-1.188, 2.597e-6
-1.189, 2.621e-6
-1.190, 2.621e-6
-1.191, 2.682e-6
-1.192, 2.655e-6
-1.193, 2.644e-6
-1.194, 2.713e-6
-1.195, 2.704e-6
-1.196, 2.695e-6
-1.197, 2.734e-6
-1.198, 2.703e-6
-1.199, 2.779e-6
-1.200, 2.741e-6
-1.201, 2.732e-6
-1.202, 2.718e-6
-1.203, 2.762e-6
-1.204, 2.802e-6
-1.205, 2.779e-6
-1.206, 2.799e-6
-1.207, 2.770e-6
-1.208, 2.809e-6
-1.209, 2.785e-6
-1.210, 2.852e-6
-1.211, 2.865e-6
-1.212, 2.844e-6
-1.213, 2.912e-6
-1.214, 2.902e-6
-1.215, 2.900e-6
-1.216, 2.922e-6
-1.217, 2.884e-6
-1.218, 2.935e-6
-1.219, 2.930e-6
-1.220, 2.956e-6
-1.221, 3.012e-6
-1.222, 2.918e-6
-1.223, 3.009e-6
-1.224, 3.004e-6
-1.225, 3.027e-6
-1.226, 3.025e-6
-1.227, 2.982e-6
-1.228, 3.065e-6
-1.229, 3.060e-6
-1.230, 3.116e-6
-1.231, 3.065e-6
-1.232, 3.086e-6
-1.233, 3.079e-6
-1.234, 3.119e-6
-1.235, 3.168e-6
-1.236, 3.123e-6
-1.237, 3.158e-6
-1.238, 3.141e-6
-1.239, 3.206e-6
-1.240, 3.187e-6
-1.241, 3.214e-6
-1.242, 3.219e-6
-1.243, 3.179e-6
-1.244, 3.292e-6
-1.245, 3.270e-6
-1.246, 3.279e-6
-1.247, 3.275e-6
-1.248, 3.268e-6
-1.249, 3.327e-6
-1.250, 3.324e-6
-1.251, 3.293e-6
-1.252, 3.338e-6
-1.253, 3.330e-6
-1.254, 3.416e-6
-1.255, 3.385e-6
-1.256, 3.397e-6
-1.257, 3.334e-6
-1.258, 3.430e-6
-1.259, 3.442e-6
-1.260, 3.421e-6
-1.261, 3.456e-6
-1.262, 3.462e-6
-1.263, 3.472e-6
-1.264, 3.497e-6
-1.265, 3.514e-6
-1.266, 3.541e-6
-1.267, 3.509e-6
-1.268, 3.558e-6
-1.269, 3.579e-6
-1.270, 3.619e-6
-1.271, 3.579e-6
-1.272, 3.565e-6
-1.273, 3.654e-6
-1.274, 3.637e-6
-1.275, 3.638e-6
-1.276, 3.627e-6
-1.277, 3.653e-6
-1.278, 3.702e-6
-1.279, 3.700e-6
-1.280, 3.767e-6
-1.281, 3.750e-6
-1.282, 3.759e-6
-1.283, 3.798e-6
-1.284, 3.791e-6
-1.285, 3.858e-6
-1.286, 3.777e-6
-1.287, 3.849e-6
-1.288, 3.837e-6
-1.289, 3.898e-6
-1.290, 3.911e-6
-1.291, 3.865e-6
-1.292, 3.877e-6
-1.293, 3.913e-6
-1.294, 4.010e-6
-1.295, 3.982e-6
-1.296, 3.989e-6
-1.297, 3.969e-6
-1.298, 4.019e-6
-1.299, 4.056e-6
-1.300, 4.045e-6
-1.301, 4.075e-6
-1.302, 4.082e-6
-1.303, 4.141e-6
-1.304, 4.171e-6
-1.305, 4.160e-6
-1.306, 4.183e-6
-1.307, 4.149e-6
-1.308, 4.247e-6
-1.309, 4.238e-6
-1.310, 4.284e-6
-1.311, 4.263e-6
-1.312, 4.264e-6
-1.313, 4.340e-6
-1.314, 4.358e-6
-1.315, 4.342e-6
-1.316, 4.358e-6
-1.317, 4.350e-6
-1.318, 4.391e-6
-1.319, 4.476e-6
-1.320, 4.484e-6
-1.321, 4.448e-6
-1.322, 4.543e-6
-1.323, 4.555e-6
-1.324, 4.591e-6
-1.325, 4.561e-6
-1.326, 4.607e-6
-1.327, 4.615e-6
-1.328, 4.621e-6
-1.329, 4.730e-6
-1.330, 4.675e-6
-1.331, 4.714e-6
-1.332, 4.743e-6
-1.333, 4.765e-6
-1.334, 4.851e-6
-1.335, 4.847e-6
-1.336, 4.830e-6
-1.337, 4.845e-6
-1.338, 4.955e-6
-1.339, 4.935e-6
-1.340, 4.943e-6
-1.341, 4.981e-6
-1.342, 4.993e-6
-1.343, 5.096e-6
-1.344, 5.073e-6
-1.345, 5.093e-6
-1.346, 5.090e-6
-1.347, 5.121e-6
-1.348, 5.175e-6
-1.349, 5.245e-6
-1.350, 5.271e-6
-1.351, 5.297e-6
-1.352, 5.290e-6
-1.353, 5.287e-6
-1.354, 5.388e-6
-1.355, 5.407e-6
-1.356, 5.367e-6
-1.357, 5.446e-6
-1.358, 5.461e-6
-1.359, 5.589e-6
-1.360, 5.577e-6
-1.361, 5.576e-6
-1.362, 5.607e-6
-1.363, 5.679e-6
-1.364, 5.754e-6
-1.365, 5.719e-6
-1.366, 5.768e-6
-1.367, 5.801e-6
-1.368, 5.806e-6
-1.369, 5.867e-6
-1.370, 5.899e-6
-1.371, 5.940e-6
-1.372, 5.985e-6
-1.373, 6.006e-6
-1.374, 6.084e-6
-1.375, 6.082e-6
-1.376, 6.130e-6
-1.377, 6.113e-6
-1.378, 6.266e-6
-1.379, 6.286e-6
-1.380, 6.300e-6
-1.381, 6.313e-6
-1.382, 6.347e-6
-1.383, 6.461e-6
-1.384, 6.526e-6
-1.385, 6.542e-6
-1.386, 6.572e-6
-1.387, 6.685e-6
-1.388, 6.664e-6
-1.389, 6.835e-6
-1.390, 6.824e-6
-1.391, 6.848e-6
-1.392, 6.877e-6
-1.393, 6.931e-6
-1.394, 7.084e-6
-1.395, 7.042e-6
-1.396, 7.139e-6
-1.397, 7.211e-6
-1.398, 7.244e-6
-1.399, 7.314e-6
-1.400, 7.332e-6
-1.401, 7.399e-6
-1.402, 7.471e-6
-1.403, 7.503e-6
-1.404, 7.600e-6
-1.405, 7.622e-6
-1.406, 7.721e-6
-1.407, 7.779e-6
-1.408, 7.815e-6
-1.409, 7.891e-6
-1.410, 8.013e-6
-1.411, 8.022e-6
-1.412, 8.053e-6
-1.413, 8.162e-6
-1.414, 8.236e-6
-1.415, 8.285e-6
-1.416, 8.324e-6
-1.417, 8.418e-6
-1.418, 8.484e-6
-1.419, 8.605e-6
-1.420, 8.678e-6
-1.421, 8.748e-6
-1.422, 8.842e-6
-1.423, 8.963e-6
-1.424, 9.019e-6
-1.425, 9.093e-6
-1.426, 9.173e-6
-1.427, 9.267e-6
-1.428, 9.410e-6
-1.429, 9.485e-6
-1.430, 9.569e-6
-1.431, 9.600e-6
-1.432, 9.745e-6
-1.433, 9.856e-6
-1.434, 1.001e-5
-1.435, 1.007e-5
-1.436, 1.017e-5
-1.437, 1.032e-5
-1.438, 1.037e-5
-1.439, 1.057e-5
-1.440, 1.061e-5
-1.441, 1.074e-5
-1.442, 1.085e-5
-1.443, 1.100e-5
-1.444, 1.116e-5
-1.445, 1.121e-5
-1.446, 1.136e-5
-1.447, 1.150e-5
-1.448, 1.169e-5
-1.449, 1.180e-5
-1.450, 1.195e-5
-1.451, 1.198e-5
-1.452, 1.214e-5
-1.453, 1.231e-5
-1.454, 1.251e-5
-1.455, 1.273e-5
-1.456, 1.279e-5
-1.457, 1.294e-5
-1.458, 1.315e-5
-1.459, 1.339e-5
-1.460, 1.353e-5
-1.461, 1.366e-5
-1.462, 1.384e-5
-1.463, 1.409e-5
-1.464, 1.431e-5
-1.465, 1.446e-5
-1.466, 1.467e-5
-1.467, 1.497e-5
-1.468, 1.515e-5
-1.469, 1.535e-5
-1.470, 1.562e-5
-1.471, 1.586e-5
-1.472, 1.599e-5
-1.473, 1.618e-5
-1.474, 1.641e-5
-1.475, 1.654e-5
-1.476, 1.679e-5
-1.477, 1.716e-5
-1.478, 1.736e-5
-1.479, 1.775e-5
-1.480, 1.811e-5
-1.481, 1.823e-5
-1.482, 1.870e-5
-1.483, 1.889e-5
-1.484, 1.906e-5
-1.485, 1.941e-5
-1.486, 1.965e-5
-1.487, 1.997e-5
-1.488, 2.034e-5
-1.489, 2.079e-5
-1.490, 2.102e-5
-1.491, 2.131e-5
-1.492, 2.163e-5
-1.493, 2.207e-5
-1.494, 2.250e-5
-1.495, 2.302e-5
-1.496, 2.344e-5
-1.497, 2.375e-5
-1.498, 2.415e-5
-1.499, 2.455e-5
-1.500, 2.501e-5
-1.501, 2.556e-5
-1.502, 2.607e-5
-1.503, 2.643e-5
-1.504, 2.685e-5
-1.505, 2.734e-5
-1.506, 2.785e-5
-1.507, 2.837e-5
-1.508, 2.893e-5
-1.509, 2.947e-5
-1.510, 2.996e-5
-1.511, 3.067e-5
-1.512, 3.128e-5
-1.513, 3.186e-5
-1.514, 3.240e-5
-1.515, 3.293e-5
-1.516, 3.337e-5
-1.517, 3.388e-5
-1.518, 3.445e-5
-1.519, 3.492e-5
-1.520, 3.542e-5
-1.521, 3.591e-5
-1.522, 3.652e-5
-1.523, 3.697e-5
-1.524, 3.754e-5
-1.525, 3.814e-5
-1.526, 3.862e-5
-1.527, 3.911e-5
-1.528, 3.972e-5
-1.529, 4.033e-5
-1.530, 4.097e-5
-1.531, 4.152e-5
-1.532, 4.219e-5
-1.533, 4.293e-5
-1.534, 4.363e-5
-1.535, 4.433e-5
-1.536, 4.500e-5
-1.537, 4.584e-5
-1.538, 4.678e-5
-1.539, 4.754e-5
-1.540, 4.845e-5
-1.541, 4.920e-5
-1.542, 5.016e-5
-1.543, 5.112e-5
-1.544, 5.215e-5
-1.545, 5.315e-5
-1.546, 5.404e-5
-1.547, 5.502e-5
-1.548, 5.607e-5
-1.549, 5.726e-5
-1.550, 5.836e-5
-1.551, 5.957e-5
-1.552, 6.076e-5
-1.553, 6.215e-5
-1.554, 6.356e-5
-1.555, 6.485e-5
-1.556, 6.612e-5
-1.557, 6.747e-5
-1.558, 6.898e-5
-1.559, 7.043e-5
-1.560, 7.197e-5
-1.561, 7.345e-5
-1.562, 7.503e-5
-1.563, 7.673e-5
-1.564, 7.840e-5
-1.565, 8.019e-5
-1.566, 8.194e-5
-1.567, 8.439e-5
-1.568, 8.623e-5
-1.569, 8.824e-5
-1.570, 9.007e-5
-1.571, 9.179e-5
-1.572, 9.395e-5
-1.573, 9.604e-5
-1.574, 9.819e-5
-1.575, 1.006e-4
-1.576, 1.027e-4
-1.577, 1.052e-4
-1.578, 1.078e-4
-1.579, 1.104e-4
-1.580, 1.130e-4
-1.581, 1.158e-4
-1.582, 1.186e-4
-1.583, 1.212e-4
-1.584, 1.242e-4
-1.585, 1.271e-4
-1.586, 1.302e-4
-1.587, 1.332e-4
-1.588, 1.366e-4
-1.589, 1.396e-4
-1.590, 1.429e-4
-1.591, 1.464e-4
-1.592, 1.500e-4
-1.593, 1.536e-4
-1.594, 1.574e-4
-1.595, 1.613e-4
-1.596, 1.652e-4
-1.597, 1.692e-4
-1.598, 1.734e-4
-1.599, 1.777e-4
-1.600, 1.776e-4
-1.599, 1.753e-4
-1.598, 1.734e-4
-1.597, 1.716e-4
-1.596, 1.696e-4
-1.595, 1.676e-4
-1.594, 1.654e-4
-1.593, 1.633e-4
-1.592, 1.612e-4
-1.591, 1.590e-4
-1.590, 1.569e-4
-1.589, 1.547e-4
-1.588, 1.525e-4
-1.587, 1.502e-4
-1.586, 1.482e-4
-1.585, 1.460e-4
-1.584, 1.438e-4
-1.583, 1.416e-4
-1.582, 1.394e-4
-1.581, 1.374e-4
-1.580, 1.352e-4
-1.579, 1.331e-4
-1.578, 1.311e-4
-1.577, 1.290e-4
-1.576, 1.271e-4
-1.575, 1.249e-4
-1.574, 1.229e-4
-1.573, 1.209e-4
-1.572, 1.188e-4
-1.571, 1.170e-4
-1.570, 1.150e-4
-1.569, 1.130e-4
-1.568, 1.111e-4
-1.567, 1.092e-4
-1.566, 1.074e-4
-1.565, 1.056e-4
-1.564, 1.037e-4
-1.563, 1.020e-4
-1.562, 1.002e-4
-1.561, 9.846e-5
-1.560, 9.671e-5
-1.559, 9.498e-5
-1.558, 9.335e-5
-1.557, 9.167e-5
-1.556, 9.009e-5
-1.555, 8.851e-5
-1.554, 8.693e-5
-1.553, 8.533e-5
-1.552, 8.384e-5
-1.551, 8.235e-5
-1.550, 8.089e-5
-1.549, 7.941e-5
-1.548, 7.797e-5
-1.547, 7.655e-5
-1.546, 7.508e-5
-1.545, 7.375e-5
-1.544, 7.236e-5
-1.543, 7.104e-5
-1.542, 6.974e-5
-1.541, 6.851e-5
-1.540, 6.722e-5
-1.539, 6.599e-5
-1.538, 6.477e-5
-1.537, 6.349e-5
-1.536, 6.239e-5
-1.535, 6.112e-5
-1.534, 5.998e-5
-1.533, 5.886e-5
-1.532, 5.777e-5
-1.531, 5.672e-5
-1.530, 5.562e-5
-1.529, 5.458e-5
-1.528, 5.347e-5
-1.527, 5.252e-5
-1.526, 5.154e-5
-1.525, 5.050e-5
-1.524, 4.961e-5
-1.523, 4.853e-5
-1.522, 4.773e-5
-1.521, 4.678e-5
-1.520, 4.596e-5
-1.519, 4.499e-5
-1.518, 4.408e-5
-1.517, 4.332e-5
-1.516, 4.248e-5
-1.515, 4.161e-5
-1.514, 4.081e-5
-1.513, 4.000e-5
-1.512, 3.926e-5
-1.511, 3.854e-5
-1.510, 3.776e-5
-1.509, 3.700e-5
-1.508, 3.629e-5
-1.507, 3.551e-5
-1.506, 3.490e-5
-1.505, 3.415e-5
-1.504, 3.353e-5
-1.503, 3.282e-5
-1.502, 3.221e-5
-1.501, 3.163e-5
-1.500, 3.094e-5
-1.499, 3.032e-5
-1.498, 2.973e-5
-1.497, 2.911e-5
-1.496, 2.859e-5
-1.495, 2.792e-5
-1.494, 2.740e-5
-1.493, 2.680e-5
-1.492, 2.630e-5
-1.491, 2.579e-5
-1.490, 2.524e-5
-1.489, 2.475e-5
-1.488, 2.418e-5
-1.487, 2.375e-5
-1.486, 2.324e-5
-1.485, 2.279e-5
-1.484, 2.228e-5
-1.483, 2.177e-5
-1.482, 2.139e-5
-1.481, 2.091e-5
-1.480, 2.051e-5
-1.479, 2.008e-5
-1.478, 1.958e-5
-1.477, 1.923e-5
-1.476, 1.885e-5
-1.475, 1.843e-5
-1.474, 1.800e-5
-1.473, 1.764e-5
-1.472, 1.724e-5
-1.471, 1.694e-5
-1.470, 1.649e-5
-1.469, 1.620e-5
-1.468, 1.575e-5
-1.467, 1.545e-5
-1.466, 1.514e-5
-1.465, 1.475e-5
-1.464, 1.446e-5
-1.463, 1.410e-5
-1.462, 1.381e-5
-1.461, 1.353e-5
-1.460, 1.320e-5
-1.459, 1.292e-5
-1.458, 1.258e-5
-1.457, 1.232e-5
-1.456, 1.203e-5
-1.455, 1.175e-5
-1.454, 1.149e-5
-1.453, 1.117e-5
-1.452, 1.092e-5
-1.451, 1.066e-5
-1.450, 1.045e-5
-1.449, 1.014e-5
-1.448, 9.862e-6
-1.447, 9.709e-6
-1.446, 9.472e-6
-1.445, 9.201e-6
-1.444, 8.964e-6
-1.443, 8.727e-6
-1.442, 8.529e-6
-1.441, 8.327e-6
-1.440, 8.098e-6
-1.439, 7.892e-6
-1.438, 7.623e-6
-1.437, 7.463e-6
-1.436, 7.322e-6
-1.435, 7.035e-6
-1.434, 6.937e-6
-1.433, 6.632e-6
-1.432, 6.536e-6
-1.431, 6.396e-6
-1.430, 6.209e-6
-1.429, 6.059e-6
-1.428, 5.786e-6
-1.427, 5.664e-6
-1.426, 5.510e-6
-1.425, 5.333e-6
-1.424, 5.216e-6
-1.423, 4.997e-6
-1.422, 4.915e-6
-1.421, 4.739e-6
-1.420, 4.602e-6
-1.419, 4.460e-6
-1.418, 4.268e-6
-1.417, 4.189e-6
-1.416, 4.030e-6
-1.415, 3.972e-6
-1.414, 3.808e-6
-1.413, 3.660e-6
-1.412, 3.597e-6
-1.411, 3.460e-6
-1.410, 3.358e-6
-1.409, 3.218e-6
-1.408, 3.094e-6
-1.407, 2.976e-6
-1.406, 2.905e-6
-1.405, 2.774e-6
-1.404, 2.699e-6
-1.403, 2.562e-6
-1.402, 2.502e-6
-1.401, 2.389e-6
-1.400, 2.324e-6
-1.399, 2.251e-6
-1.398, 2.073e-6
-1.397, 2.045e-6
-1.396, 1.978e-6
-1.395, 1.834e-6
-1.394, 1.743e-6
-1.393, 1.649e-6
-1.392, 1.642e-6
-1.391, 1.574e-6
-1.390, 1.475e-6
-1.389, 1.430e-6
-1.388, 1.320e-6
-1.387, 1.296e-6
-1.386, 1.153e-6
-1.385, 1.106e-6
-1.384, 1.075e-6
-1.383, 9.459e-7
-1.382, 9.390e-7
-1.381, 8.552e-7
-1.380, 8.384e-7
-1.379, 7.516e-7
-1.378, 7.042e-7
-1.377, 6.016e-7
-1.376, 5.947e-7
-1.375, 5.365e-7
-1.374, 4.872e-7
-1.373, 4.438e-7
-1.372, 4.250e-7
-1.371, 3.639e-7
-1.370, 3.135e-7
-1.369, 2.899e-7
-1.368, 2.770e-7
-1.367, 2.336e-7
-1.366, 1.843e-7
-1.365, 1.754e-7
-1.364, 1.034e-7
-1.363, 3.729e-8
-1.362, 4.420e-8
-1.361, -8.090e-9
-1.360, -5.051e-8
-1.359, -1.796e-8
-1.358, -1.067e-7
-1.357, -6.137e-8
-1.356, -1.531e-7
-1.355, -1.571e-7
-1.354, -1.975e-7
-1.353, -3.070e-7
-1.352, -2.459e-7
-1.351, -2.794e-7
-1.350, -2.557e-7
-1.349, -2.656e-7
-1.348, -3.218e-7
-1.347, -2.942e-7
-1.346, -3.376e-7
-1.345, -3.603e-7
-1.344, -3.958e-7
-1.343, -4.264e-7
-1.342, -3.652e-7
-1.341, -4.264e-7
-1.340, -4.323e-7
-1.339, -4.886e-7
-1.338, -5.093e-7
-1.337, -4.994e-7
-1.336, -5.132e-7
-1.335, -5.083e-7
-1.334, -5.399e-7
-1.333, -5.527e-7
-1.332, -5.231e-7
-1.331, -5.695e-7
-1.330, -6.109e-7
-1.329, -6.070e-7
-1.328, -6.316e-7
-1.327, -5.961e-7
-1.326, -6.109e-7
-1.325, -5.951e-7
-1.324, -6.099e-7
-1.323, -6.622e-7
-1.322, -6.425e-7
-1.321, -6.484e-7
-1.320, -6.444e-7
-1.319, -6.375e-7
-1.318, -7.204e-7
-1.317, -6.711e-7
-1.316, -6.809e-7
-1.315, -7.530e-7
-1.314, -7.214e-7
-1.313, -7.589e-7
-1.312, -6.859e-7
-1.311, -7.323e-7
-1.310, -6.928e-7
-1.309, -7.362e-7
-1.308, -7.283e-7
-1.307, -7.510e-7
-1.306, -7.984e-7
-1.305, -7.658e-7
-1.304, -7.461e-7
-1.303, -7.974e-7
-1.302, -7.510e-7
-1.301, -7.826e-7
-1.300, -7.845e-7
-1.299, -7.520e-7
-1.298, -8.309e-7
-1.297, -8.062e-7
-1.296, -8.437e-7
-1.295, -7.914e-7
-1.294, -8.516e-7
-1.293, -8.526e-7
-1.292, -7.875e-7
-1.291, -8.891e-7
-1.290, -8.013e-7
-1.289, -8.556e-7
-1.288, -8.585e-7
-1.287, -8.516e-7
-1.286, -9.059e-7
-1.285, -8.783e-7
-1.284, -8.654e-7
-1.283, -8.605e-7
-1.282, -9.049e-7
-1.281, -8.960e-7
-1.280, -8.881e-7
-1.279, -9.266e-7
-1.278, -9.503e-7
-1.277, -9.483e-7
-1.276, -9.592e-7
-1.275, -9.483e-7
-1.274, -9.503e-7
-1.273, -9.720e-7
-1.272, -9.256e-7
-1.271, -9.710e-7
-1.270, -9.740e-7
-1.269, -9.641e-7
-1.268, -1.006e-6
-1.267, -9.572e-7
-1.266, -1.021e-6
-1.265, -1.022e-6
-1.264, -9.730e-7
-1.263, -1.010e-6
-1.262, -1.011e-6
-1.261, -1.019e-6
-1.260, -1.017e-6
-1.259, -1.049e-6
-1.258, -1.037e-6
-1.257, -1.036e-6
-1.256, -1.049e-6
-1.255, -1.053e-6
-1.254, -1.038e-6
-1.253, -1.081e-6
-1.252, -1.078e-6
-1.251, -1.124e-6
-1.250, -1.083e-6
-1.249, -1.085e-6
-1.248, -1.092e-6
-1.247, -1.069e-6
-1.246, -1.106e-6
-1.245, -1.092e-6
-1.244, -1.101e-6
-1.243, -1.107e-6
-1.242, -1.113e-6
-1.241, -1.173e-6
-1.240, -1.148e-6
-1.239, -1.119e-6
-1.238, -1.158e-6
-1.237, -1.118e-6
-1.236, -1.192e-6
-1.235, -1.204e-6
-1.234, -1.167e-6
-1.233, -1.233e-6
-1.232, -1.165e-6
-1.231, -1.220e-6
-1.230, -1.198e-6
-1.229, -1.245e-6
-1.228, -1.284e-6
-1.227, -1.202e-6
-1.226, -1.258e-6
-1.225, -1.275e-6
-1.224, -1.205e-6
-1.223, -1.230e-6
-1.222, -1.253e-6
-1.221, -1.300e-6
-1.220, -1.273e-6
-1.219, -1.309e-6
-1.218, -1.261e-6
-1.217, -1.274e-6
-1.216, -1.273e-6
-1.215, -1.303e-6
-1.214, -1.342e-6
-1.213, -1.331e-6
-1.212, -1.319e-6
-1.211, -1.354e-6
-1.210, -1.367e-6
-1.209, -1.329e-6
-1.208, -1.363e-6
-1.207, -1.353e-6
-1.206, -1.337e-6
-1.205, -1.346e-6
-1.204, -1.378e-6
-1.203, -1.428e-6
-1.202, -1.390e-6
-1.201, -1.424e-6
-1.200, -1.389e-6
-1.199, -1.416e-6
-1.198, -1.447e-6
-1.197, -1.400e-6
-1.196, -1.454e-6
-1.195, -1.469e-6
-1.194, -1.458e-6
-1.193, -1.494e-6
-1.192, -1.441e-6
-1.191, -1.508e-6
-1.190, -1.450e-6
-1.189, -1.499e-6
-1.188, -1.546e-6
-1.187, -1.506e-6
-1.186, -1.520e-6
-1.185, -1.539e-6
-1.184, -1.542e-6
-1.183, -1.529e-6
-1.182, -1.515e-6
-1.181, -1.581e-6
-1.180, -1.542e-6
-1.179, -1.565e-6
-1.178, -1.573e-6
-1.177, -1.637e-6
-1.176, -1.609e-6
-1.175, -1.591e-6
-1.174, -1.638e-6
-1.173, -1.625e-6
-1.172, -1.637e-6
-1.171, -1.651e-6
-1.170, -1.638e-6
-1.169, -1.680e-6
-1.168, -1.659e-6
-1.167, -1.666e-6
-1.166, -1.678e-6
-1.165, -1.674e-6
-1.164, -1.694e-6
-1.163, -1.747e-6
-1.162, -1.728e-6
-1.161, -1.738e-6
-1.160, -1.734e-6
-1.159, -1.744e-6
-1.158, -1.787e-6
-1.157, -1.694e-6
-1.156, -1.769e-6
-1.155, -1.802e-6
-1.154, -1.776e-6
-1.153, -1.832e-6
-1.152, -1.731e-6
-1.151, -1.829e-6
-1.150, -1.774e-6
-1.149, -1.802e-6
-1.148, -1.789e-6
-1.147, -1.811e-6
-1.146, -1.849e-6
-1.145, -1.842e-6
-1.144, -1.873e-6
-1.143, -1.829e-6
-1.142, -1.841e-6
-1.141, -1.881e-6
-1.140, -1.836e-6
-1.139, -1.892e-6
-1.138, -1.893e-6
-1.137, -1.905e-6
-1.136, -1.930e-6
-1.135, -1.914e-6
-1.134, -1.925e-6
-1.133, -1.935e-6
-1.132, -1.923e-6
-1.131, -1.953e-6
-1.130, -1.922e-6
-1.129, -1.944e-6
-1.128, -1.977e-6
-1.127, -1.977e-6
-1.126, -1.975e-6
-1.125, -1.965e-6
-1.124, -1.976e-6
-1.123, -2.028e-6
-1.122, -1.986e-6
-1.121, -2.035e-6
-1.120, -1.997e-6
-1.119, -2.000e-6
-1.118, -2.085e-6
-1.117, -2.009e-6
-1.116, -2.038e-6
-1.115, -2.044e-6
-1.114, -2.055e-6
-1.113, -2.088e-6
-1.112, -2.025e-6
-1.111, -2.087e-6
-1.110, -2.076e-6
-1.109, -2.076e-6
-1.108, -2.073e-6
-1.107, -2.087e-6
-1.106, -2.153e-6
-1.105, -2.110e-6
-1.104, -2.131e-6
-1.103, -2.105e-6
-1.102, -2.121e-6
-1.101, -2.110e-6
-1.100, -2.153e-6
-1.099, -2.172e-6
-1.098, -2.169e-6
-1.097, -2.161e-6
-1.096, -2.181e-6
-1.095, -2.190e-6
-1.094, -2.215e-6
-1.093, -2.177e-6
-1.092, -2.221e-6
-1.091, -2.220e-6
-1.090, -2.190e-6
-1.089, -2.225e-6
-1.088, -2.211e-6
-1.087, -2.223e-6
-1.086, -2.231e-6
-1.085, -2.233e-6
-1.084, -2.239e-6
-1.083, -2.260e-6
-1.082, -2.260e-6
-1.081, -2.262e-6
-1.080, -2.264e-6
-1.079, -2.285e-6
-1.078, -2.324e-6
-1.077, -2.248e-6
-1.076, -2.347e-6
-1.075, -2.315e-6
-1.074, -2.270e-6
-1.073, -2.347e-6
-1.072, -2.293e-6
-1.071, -2.357e-6
-1.070, -2.279e-6
-1.069, -2.378e-6
-1.068, -2.362e-6
-1.067, -2.368e-6
-1.066, -2.378e-6
-1.065, -2.375e-6
-1.064, -2.421e-6
-1.063, -2.418e-6
-1.062, -2.422e-6
-1.061, -2.440e-6
-1.060, -2.385e-6
-1.059, -2.454e-6
-1.058, -2.407e-6
-1.057, -2.465e-6
-1.056, -2.492e-6
-1.055, -2.431e-6
-1.054, -2.480e-6
-1.053, -2.483e-6
-1.052, -2.512e-6
-1.051, -2.477e-6
-1.050, -2.527e-6
-1.049, -2.510e-6
-1.048, -2.523e-6
-1.047, -2.543e-6
-1.046, -2.554e-6
-1.045, -2.547e-6
-1.044, -2.552e-6
-1.043, -2.596e-6
-1.042, -2.588e-6
-1.041, -2.586e-6
-1.040, -2.585e-6
-1.039, -2.598e-6
-1.038, -2.614e-6
-1.037, -2.605e-6
-1.036, -2.603e-6
-1.035, -2.655e-6
-1.034, -2.633e-6
-1.033, -2.675e-6
-1.032, -2.680e-6
-1.031, -2.707e-6
-1.030, -2.714e-6
-1.029, -2.694e-6
-1.028, -2.687e-6
-1.027, -2.724e-6
-1.026, -2.726e-6
-1.025, -2.739e-6
-1.024, -2.762e-6
-1.023, -2.774e-6
-1.022, -2.771e-6
-1.021, -2.836e-6
-1.020, -2.797e-6
-1.019, -2.835e-6
-1.018, -2.846e-6
-1.017, -2.802e-6
-1.016, -2.859e-6
-1.015, -2.830e-6
-1.014, -2.886e-6
-1.013, -2.860e-6
-1.012, -2.898e-6
-1.011, -2.906e-6
-1.010, -2.904e-6
-1.009, -2.927e-6
-1.008, -2.931e-6
-1.007, -2.915e-6
-1.006, -2.933e-6
-1.005, -2.954e-6
-1.004, -2.980e-6
-1.003, -2.996e-6
-1.002, -2.991e-6
-1.001, -3.006e-6
-1.000, -1.212e-6
-1.001, -7.175e-7
-1.002, -5.991e-7
-1.003, -4.491e-7
-1.004, -3.938e-7
-1.005, -2.883e-7
-1.006, -2.370e-7
-1.007, -1.561e-7
-1.008, -1.117e-7
-1.009, -1.146e-7
-1.010, 2.348e-8
-1.011, 8.682e-9
-1.012, 5.604e-8
-1.013, 1.083e-7
-1.014, 1.004e-7
-1.015, 2.366e-7
-1.016, 1.794e-7
-1.017, 2.149e-7
-1.018, 2.918e-7
-1.019, 3.056e-7
-1.020, 3.688e-7
-1.021, 3.599e-7
-1.022, 3.362e-7
-1.023, 3.944e-7
-1.024, 4.339e-7
-1.025, 4.477e-7
-1.026, 5.148e-7
-1.027, 4.665e-7
-1.028, 5.099e-7
-1.029, 5.178e-7
-1.030, 5.523e-7
-1.031, 5.849e-7
-1.032, 5.641e-7
-1.033, 6.145e-7
-1.034, 6.263e-7
-1.035, 6.352e-7
-1.036, 6.638e-7
-1.037, 6.539e-7
-1.038, 6.884e-7
-1.039, 6.648e-7
-1.040, 7.279e-7
-1.041, 7.259e-7
-1.042, 7.220e-7
-1.043, 7.772e-7
-1.044, 7.841e-7
-1.045, 8.167e-7
-1.046, 7.763e-7
-1.047, 8.108e-7
-1.048, 8.187e-7
-1.049, 8.147e-7
-1.050, 8.759e-7
-1.051, 8.315e-7
-1.052, 8.335e-7
-1.053, 8.808e-7
-1.054, 9.094e-7
-1.055, 9.252e-7
-1.056, 9.035e-7
-1.057, 9.213e-7
-1.058, 9.390e-7
-1.059, 9.755e-7
-1.060, 9.607e-7
-1.061, 9.894e-7
-1.062, 9.894e-7
-1.063, 1.032e-6
-1.064, 1.004e-6
-1.065, 1.022e-6
-1.066, 1.054e-6
-1.067, 1.045e-6
-1.068, 1.019e-6
-1.069, 1.063e-6
-1.070, 1.037e-6
-1.071, 1.056e-6
-1.072, 1.037e-6
-1.073, 1.119e-6
-1.074, 1.109e-6
-1.075, 1.118e-6
-1.076, 1.127e-6
-1.077, 1.102e-6
-1.078, 1.161e-6
-1.079, 1.159e-6
-1.080, 1.177e-6
-1.081, 1.159e-6
-1.082, 1.174e-6
-1.083, 1.174e-6
-1.084, 1.215e-6
-1.085, 1.231e-6
-1.086, 1.195e-6
-1.087, 1.225e-6
-1.088, 1.228e-6
-1.089, 1.236e-6
-1.090, 1.262e-6
-1.091, 1.244e-6
-1.092, 1.267e-6
-1.093, 1.270e-6
-1.094, 1.253e-6
-1.095, 1.303e-6
-1.096, 1.358e-6
-1.097, 1.261e-6
-1.098, 1.335e-6
-1.099, 1.347e-6
-1.100, 1.347e-6
-1.101, 1.374e-6
-1.102, 1.347e-6
-1.103, 1.396e-6
-1.104, 1.378e-6
-1.105, 1.410e-6
-1.106, 1.460e-6
-1.107, 1.387e-6
-1.108, 1.447e-6
-1.109, 1.446e-6
-1.110, 1.441e-6
-1.111, 1.492e-6
-1.112, 1.419e-6
-1.113, 1.480e-6
-1.114, 1.532e-6
-1.115, 1.513e-6
-1.116, 1.539e-6
-1.117, 1.518e-6
-1.118, 1.512e-6
-1.119, 1.583e-6
-1.120, 1.558e-6
-1.121, 1.598e-6
-1.122, 1.562e-6
-1.123, 1.633e-6
-1.124, 1.589e-6
-1.125, 1.612e-6
-1.126, 1.634e-6
-1.127, 1.644e-6
-1.128, 1.687e-6
-1.129, 1.645e-6
-1.130, 1.683e-6
-1.131, 1.692e-6
-1.132, 1.686e-6
-1.133, 1.736e-6
-1.134, 1.731e-6
-1.135, 1.731e-6
-1.136, 1.733e-6
-1.137, 1.714e-6
-1.138, 1.766e-6
-1.139, 1.763e-6
-1.140, 1.752e-6
-1.141, 1.795e-6
-1.142, 1.750e-6
-1.143, 1.841e-6
-1.144, 1.754e-6
-1.145, 1.852e-6
-1.146, 1.878e-6
-1.147, 1.777e-6
-1.148, 1.861e-6
-1.149, 1.836e-6
-1.150, 1.911e-6
-1.151, 1.889e-6
-1.152, 1.883e-6
-1.153, 1.835e-6
-1.154, 1.934e-6
-1.155, 1.909e-6
-1.156, 1.938e-6
-1.157, 1.922e-6
-1.158, 1.957e-6
-1.159, 1.985e-6
-1.160, 1.959e-6
-1.161, 1.998e-6
-1.162, 1.956e-6
-1.163, 2.015e-6
-1.164, 1.933e-6
-1.165, 2.011e-6
-1.166, 1.977e-6
-1.167, 2.021e-6
-1.168, 2.009e-6
-1.169, 2.017e-6
-1.170, 2.048e-6
-1.171, 2.027e-6
-1.172, 2.045e-6
-1.173, 2.045e-6
-1.174, 2.084e-6
-1.175, 2.069e-6
-1.176, 2.053e-6
-1.177, 2.043e-6
-1.178, 2.145e-6
-1.179, 2.067e-6
-1.180, 2.110e-6
-1.181, 2.125e-6
-1.182, 2.132e-6
-1.183, 2.093e-6
-1.184, 2.100e-6
-1.185, 2.154e-6
-1.186, 2.160e-6
-1.187, 2.124e-6
-1.188, 2.120e-6
-1.189, 2.180e-6
-1.190, 2.144e-6
-1.191, 2.151e-6
-1.192, 2.124e-6
-1.193, 2.191e-6
-1.194, 2.214e-6
-1.195, 2.204e-6
-1.196, 2.229e-6
-1.197, 2.170e-6
-1.198, 2.217e-6
-1.199, 2.226e-6
-1.200, 2.200e-6
-1.201, 2.165e-6
-1.202, 2.254e-6
-1.203, 2.198e-6
-1.204, 2.246e-6
-1.205, 2.241e-6
-1.206, 2.239e-6
-1.207, 2.190e-6
-1.208, 2.249e-6
-1.209, 2.247e-6
-1.210, 2.293e-6
-1.211, 2.282e-6
-1.212, 2.272e-6
-1.213, 2.300e-6
-1.214, 2.253e-6
-1.215, 2.357e-6
-1.216, 2.241e-6
-1.217, 2.302e-6
-1.218, 2.317e-6
-1.219, 2.327e-6
-1.220, 2.341e-6
-1.221, 2.325e-6
-1.222, 2.284e-6
-1.223, 2.348e-6
-1.224, 2.355e-6
-1.225, 2.357e-6
-1.226, 2.356e-6
-1.227, 2.309e-6
-1.228, 2.389e-6
-1.229, 2.311e-6
-1.230, 2.380e-6
-1.231, 2.384e-6
-1.232, 2.337e-6
-1.233, 2.382e-6
-1.234, 2.395e-6
-1.235, 2.383e-6
-1.236, 2.410e-6
-1.237, 2.391e-6
-1.238, 2.447e-6
-1.239, 2.432e-6
-1.240, 2.425e-6
-1.241, 2.383e-6
-1.242, 2.398e-6
-1.243, 2.424e-6
-1.244, 2.409e-6
-1.245, 2.493e-6
-1.246, 2.458e-6
-1.247, 2.418e-6
-1.248, 2.439e-6
-1.249, 2.453e-6
-1.250, 2.487e-6
-1.251, 2.481e-6
-1.252, 2.436e-6
-1.253, 2.475e-6
-1.254, 2.477e-6
-1.255, 2.464e-6
-1.256, 2.453e-6
-1.257, 2.476e-6
-1.258, 2.506e-6
-1.259, 2.487e-6
-1.260, 2.493e-6
-1.261, 2.496e-6
-1.262, 2.490e-6
-1.263, 2.523e-6
-1.264, 2.496e-6
-1.265, 2.488e-6
-1.266, 2.560e-6
-1.267, 2.514e-6
-1.268, 2.578e-6
-1.269, 2.554e-6
-1.270, 2.580e-6
-1.271, 2.557e-6
-1.272, 2.513e-6
-1.273, 2.591e-6
-1.274, 2.598e-6
-1.275, 2.601e-6
-1.276, 2.557e-6
-1.277, 2.577e-6
-1.278, 2.578e-6
-1.279, 2.604e-6
-1.280, 2.629e-6
-1.281, 2.604e-6
-1.282, 2.602e-6
-1.283, 2.637e-6
-1.284, 2.608e-6
-1.285, 2.656e-6
-1.286, 2.616e-6
-1.287, 2.653e-6
-1.288, 2.675e-6
-1.289, 2.684e-6
-1.290, 2.688e-6
-1.291, 2.691e-6
-1.292, 2.679e-6
-1.293, 2.704e-6
-1.294, 2.702e-6
-1.295, 2.739e-6
-1.296, 2.755e-6
-1.297, 2.702e-6
-1.298, 2.808e-6
-1.299, 2.697e-6
-1.300, 2.751e-6
-1.301, 2.733e-6
-1.302, 2.781e-6
-1.303, 2.794e-6
-1.304, 2.819e-6
-1.305, 2.815e-6
-1.306, 2.835e-6
-1.307, 2.792e-6
-1.308, 2.857e-6
-1.309, 2.812e-6
-1.310, 2.853e-6
-1.311, 2.895e-6
-1.312, 2.824e-6
-1.313, 2.876e-6
-1.314, 2.874e-6
-1.315, 2.913e-6
-1.316, 2.942e-6
-1.317, 2.883e-6
-1.318, 2.949e-6
-1.319, 2.924e-6
-1.320, 2.965e-6
-1.321, 3.016e-6
-1.322, 2.978e-6
-1.323, 3.027e-6
-1.324, 2.973e-6
-1.325, 3.028e-6
-1.326, 3.025e-6
-1.327, 3.070e-6
-1.328, 3.034e-6
-1.329, 3.082e-6
-1.330, 3.107e-6
-1.331, 3.129e-6
-1.332, 3.129e-6
-1.333, 3.134e-6
-1.334, 3.161e-6
-1.335, 3.193e-6
-1.336, 3.244e-6
-1.337, 3.202e-6
-1.338, 3.276e-6
-1.339, 3.282e-6
-1.340, 3.261e-6
-1.341, 3.341e-6
-1.342, 3.342e-6
-1.343, 3.363e-6
-1.344, 3.395e-6
-1.345, 3.392e-6
-1.346, 3.479e-6
-1.347, 3.405e-6
-1.348, 3.494e-6
-1.349, 3.515e-6
-1.350, 3.519e-6
-1.351, 3.564e-6
-1.352, 3.584e-6
-1.353, 3.596e-6
-1.354, 3.633e-6
-1.355, 3.695e-6
-1.356, 3.666e-6
-1.357, 3.734e-6
-1.358, 3.780e-6
-1.359, 3.779e-6
-1.360, 3.793e-6
-1.361, 3.832e-6
-1.362, 3.878e-6
-1.363, 3.936e-6
-1.364, 3.908e-6
-1.365, 4.009e-6
-1.366, 4.002e-6
-1.367, 4.094e-6
-1.368, 4.090e-6
-1.369, 4.132e-6
-1.370, 4.191e-6
-1.371, 4.194e-6
-1.372, 4.254e-6
-1.373, 4.320e-6
-1.374, 4.343e-6
-1.375, 4.382e-6
-1.376, 4.429e-6
-1.377, 4.433e-6
-1.378, 4.532e-6
-1.379, 4.533e-6
-1.380, 4.626e-6
-1.381, 4.676e-6
-1.382, 4.725e-6
-1.383, 4.808e-6
-1.384, 4.822e-6
-1.385, 4.928e-6
-1.386, 4.911e-6
-1.387, 5.043e-6
-1.388, 5.079e-6
-1.389, 5.166e-6
-1.390, 5.162e-6
-1.391, 5.276e-6
-1.392, 5.327e-6
-1.393, 5.411e-6
-1.394, 5.453e-6
-1.395, 5.539e-6
-1.396, 5.588e-6
-1.397, 5.686e-6
-1.398, 5.750e-6
-1.399, 5.824e-6
-1.400, 5.899e-6
-1.401, 5.934e-6
-1.402, 6.019e-6
-1.403, 6.116e-6
-1.404, 6.222e-6
-1.405, 6.270e-6
-1.406, 6.360e-6
-1.407, 6.415e-6
-1.408, 6.591e-6
-1.409, 6.617e-6
-1.410, 6.779e-6
-1.411, 6.726e-6
-1.412, 6.942e-6
-1.413, 7.013e-6
-1.414, 7.150e-6
-1.415, 7.252e-6
-1.416, 7.307e-6
-1.417, 7.434e-6
-1.418, 7.557e-6
-1.419, 7.627e-6
-1.420, 7.794e-6
-1.421, 7.883e-6
-1.422, 8.001e-6
-1.423, 8.156e-6
-1.424, 8.228e-6
-1.425, 8.419e-6
-1.426, 8.439e-6
-1.427, 8.666e-6
-1.428, 8.732e-6
-1.429, 8.901e-6
-1.430, 8.984e-6
-1.431, 9.176e-6
-1.432, 9.277e-6
-1.433, 9.509e-6
-1.434, 9.669e-6
-1.435, 9.806e-6
-1.436, 9.889e-6
-1.437, 1.008e-5
-1.438, 1.027e-5
-1.439, 1.043e-5
-1.440, 1.060e-5
-1.441, 1.071e-5
-1.442, 1.095e-5
-1.443, 1.114e-5
-1.444, 1.134e-5
-1.445, 1.150e-5
-1.446, 1.163e-5
-1.447, 1.183e-5
-1.448, 1.206e-5
-1.449, 1.228e-5
-1.450, 1.252e-5
-1.451, 1.264e-5
-1.452, 1.290e-5
-1.453, 1.308e-5
-1.454, 1.337e-5
-1.455, 1.361e-5
-1.456, 1.371e-5
-1.457, 1.402e-5
-1.458, 1.426e-5
-1.459, 1.452e-5
-1.460, 1.478e-5
-1.461, 1.500e-5
-1.462, 1.526e-5
-1.463, 1.555e-5
-1.464, 1.583e-5
-1.465, 1.613e-5
-1.466, 1.633e-5
-1.467, 1.661e-5
-1.468, 1.687e-5
-1.469, 1.725e-5
-1.470, 1.758e-5
-1.471, 1.778e-5
-1.472, 1.810e-5
-1.473, 1.842e-5
-1.474, 1.879e-5
-1.475, 1.907e-5
-1.476, 1.937e-5
-1.477, 1.976e-5
-1.478, 2.008e-5
-1.479, 2.047e-5
-1.480, 2.082e-5
-1.481, 2.113e-5
-1.482, 2.156e-5
-1.483, 2.189e-5
-1.484, 2.233e-5
-1.485, 2.277e-5
-1.486, 2.308e-5
-1.487, 2.353e-5
-1.488, 2.392e-5
-1.489, 2.440e-5
-1.490, 2.482e-5
-1.491, 2.516e-5
-1.492, 2.568e-5
-1.493, 2.610e-5
-1.494, 2.658e-5
-1.495, 2.705e-5
-1.496, 2.748e-5
-1.497, 2.800e-5
-1.498, 2.848e-5
-1.499, 2.901e-5
-1.500, 2.952e-5
-1.501, 3.003e-5
-1.502, 3.054e-5
-1.503, 3.111e-5
-1.504, 3.170e-5
-1.505, 3.224e-5
-1.506, 3.276e-5
-1.507, 3.339e-5
-1.508, 3.399e-5
-1.509, 3.454e-5
-1.510, 3.521e-5
-1.511, 3.576e-5
-1.512, 3.643e-5
-1.513, 3.703e-5
-1.514, 3.777e-5
-1.515, 3.848e-5
-1.516, 3.913e-5
-1.517, 3.988e-5
-1.518, 4.058e-5
-1.519, 4.139e-5
-1.520, 4.211e-5
-1.521, 4.284e-5
-1.522, 4.366e-5
-1.523, 4.445e-5
-1.524, 4.522e-5
-1.525, 4.616e-5
-1.526, 4.698e-5
-1.527, 4.791e-5
-1.528, 4.872e-5
-1.529, 4.966e-5
-1.530, 5.067e-5
-1.531, 5.156e-5
-1.532, 5.258e-5
-1.533, 5.356e-5
-1.534, 5.463e-5
-1.535, 5.571e-5
-1.536, 5.669e-5
-1.537, 5.779e-5
-1.538, 5.892e-5
-1.539, 6.001e-5
-1.540, 6.123e-5
-1.541, 6.238e-5
-1.542, 6.364e-5
-1.543, 6.484e-5
-1.544, 6.615e-5
-1.545, 6.743e-5
-1.546, 6.873e-5
-1.547, 7.005e-5
-1.548, 7.155e-5
-1.549, 7.290e-5
-1.550, 7.436e-5
-1.551, 7.583e-5
-1.552, 7.731e-5
-1.553, 7.889e-5
-1.554, 8.049e-5
-1.555, 8.208e-5
-1.556, 8.370e-5
-1.557, 8.541e-5
-1.558, 8.711e-5
-1.559, 8.893e-5
-1.560, 9.073e-5
-1.561, 9.253e-5
-1.562, 9.442e-5
-1.563, 9.639e-5
-1.564, 9.834e-5
-1.565, 1.004e-4
-1.566, 1.024e-4
-1.567, 1.045e-4
-1.568, 1.067e-4
-1.569, 1.089e-4
-1.570, 1.112e-4
-1.571, 1.134e-4
-1.572, 1.158e-4
-1.573, 1.182e-4
-1.574, 1.207e-4
-1.575, 1.233e-4
-1.576, 1.258e-4
-1.577, 1.285e-4
-1.578, 1.312e-4
-1.579, 1.340e-4
-1.580, 1.370e-4
-1.581, 1.398e-4
-1.582, 1.428e-4
-1.583, 1.459e-4
-1.584, 1.490e-4
-1.585, 1.522e-4
-1.586, 1.554e-4
-1.587, 1.588e-4
-1.588, 1.624e-4
-1.589, 1.659e-4
-1.590, 1.695e-4
-1.591, 1.732e-4
-1.592, 1.769e-4
-1.593, 1.808e-4
-1.594, 1.848e-4
-1.595, 1.889e-4
-1.596, 1.930e-4
-1.597, 1.973e-4
-1.598, 2.016e-4
-1.599, 2.060e-4
-1.600, 2.057e-4
-1.599, 2.027e-4
-1.598, 2.000e-4
-1.597, 1.973e-4
-1.596, 1.944e-4
-1.595, 1.917e-4
-1.594, 1.889e-4
-1.593, 1.860e-4
-1.592, 1.833e-4
-1.591, 1.805e-4
-1.590, 1.778e-4
-1.589, 1.750e-4
-1.588, 1.723e-4
-1.587, 1.695e-4
-1.586, 1.669e-4
-1.585, 1.641e-4
-1.584, 1.615e-4
-1.583, 1.588e-4
-1.582, 1.563e-4
-1.581, 1.537e-4
-1.580, 1.512e-4
-1.579, 1.486e-4
-1.578, 1.461e-4
-1.577, 1.438e-4
-1.576, 1.414e-4
-1.575, 1.390e-4
-1.574, 1.366e-4
-1.573, 1.342e-4
-1.572, 1.319e-4
-1.571, 1.297e-4
-1.570, 1.274e-4
-1.569, 1.252e-4
-1.568, 1.231e-4
-1.567, 1.210e-4
-1.566, 1.189e-4
-1.565, 1.168e-4
-1.564, 1.147e-4
-1.563, 1.127e-4
-1.562, 1.107e-4
-1.561, 1.087e-4
-1.560, 1.069e-4
-1.559, 1.050e-4
-1.558, 1.031e-4
-1.557, 1.012e-4
-1.556, 9.951e-5
-1.555, 9.769e-5
-1.554, 9.595e-5
-1.553, 9.414e-5
-1.552, 9.251e-5
-1.551, 9.086e-5
-1.550, 8.915e-5
-1.549, 8.761e-5
-1.548, 8.594e-5
-1.547, 8.443e-5
-1.546, 8.291e-5
-1.545, 8.139e-5
-1.544, 7.992e-5
-1.543, 7.843e-5
-1.542, 7.697e-5
-1.541, 7.563e-5
-1.540, 7.420e-5
-1.539, 7.282e-5
-1.538, 7.148e-5
-1.537, 7.016e-5
-1.536, 6.891e-5
-1.535, 6.759e-5
-1.534, 6.631e-5
-1.533, 6.507e-5
-1.532, 6.392e-5
-1.531, 6.269e-5
-1.530, 6.151e-5
-1.529, 6.039e-5
-1.528, 5.922e-5
-1.527, 5.816e-5
-1.526, 5.707e-5
-1.525, 5.602e-5
-1.524, 5.497e-5
-1.523, 5.386e-5
-1.522, 5.289e-5
-1.521, 5.190e-5
-1.520, 5.090e-5
-1.519, 5.001e-5
-1.518, 4.895e-5
-1.517, 4.811e-5
-1.516, 4.715e-5
-1.515, 4.623e-5
-1.514, 4.542e-5
-1.513, 4.451e-5
-1.512, 4.365e-5
-1.511, 4.288e-5
-1.510, 4.202e-5
-1.509, 4.125e-5
-1.508, 4.037e-5
-1.507, 3.966e-5
-1.506, 3.889e-5
-1.505, 3.812e-5
-1.504, 3.743e-5
-1.503, 3.664e-5
-1.502, 3.598e-5
-1.501, 3.528e-5
-1.500, 3.460e-5
-1.499, 3.388e-5
-1.498, 3.323e-5
-1.497, 3.259e-5
-1.496, 3.200e-5
-1.495, 3.133e-5
-1.494, 3.073e-5
-1.493, 3.007e-5
-1.492, 2.951e-5
-1.491, 2.893e-5
-1.490, 2.838e-5
-1.489, 2.780e-5
-1.488, 2.725e-5
-1.487, 2.675e-5
-1.486, 2.617e-5
-1.485, 2.562e-5
-1.484, 2.509e-5
-1.483, 2.458e-5
-1.482, 2.407e-5
-1.481, 2.362e-5
-1.480, 2.317e-5
-1.479, 2.272e-5
-1.478, 2.217e-5
-1.477, 2.176e-5
-1.476, 2.129e-5
-1.475, 2.086e-5
-1.474, 2.047e-5
-1.473, 1.998e-5
-1.472, 1.958e-5
-1.471, 1.921e-5
-1.470, 1.878e-5
-1.469, 1.843e-5
-1.468, 1.795e-5
-1.467, 1.757e-5
-1.466, 1.728e-5
-1.465, 1.685e-5
-1.464, 1.655e-5
-1.463, 1.614e-5
-1.462, 1.582e-5
-1.461, 1.545e-5
-1.460, 1.516e-5
-1.459, 1.482e-5
-1.458, 1.447e-5
-1.457, 1.412e-5
-1.456, 1.388e-5
-1.455, 1.354e-5
-1.454, 1.327e-5
-1.453, 1.293e-5
-1.452, 1.264e-5
-1.451, 1.236e-5
-1.450, 1.208e-5
-1.449, 1.182e-5
-1.448, 1.153e-5
-1.447, 1.127e-5
-1.446, 1.100e-5
-1.445, 1.084e-5
-1.444, 1.052e-5
-1.443, 1.023e-5
-1.442, 9.985e-6
-1.441, 9.782e-6
-1.440, 9.526e-6
-1.439, 9.321e-6
-1.438, 9.044e-6
-1.437, 8.895e-6
-1.436, 8.662e-6
-1.435, 8.439e-6
-1.434, 8.238e-6
-1.433, 7.958e-6
-1.432, 7.804e-6
-1.431, 7.576e-6
-1.430, 7.403e-6
-1.429, 7.252e-6
-1.428, 7.027e-6
-1.427, 6.843e-6
-1.426, 6.708e-6
-1.425, 6.484e-6
-1.424, 6.374e-6
-1.423, 6.112e-6
-1.422, 6.019e-6
-1.421, 5.847e-6
-1.420, 5.656e-6
-1.419, 5.504e-6
-1.418, 5.330e-6
-1.417, 5.207e-6
-1.416, 5.105e-6
-1.415, 4.938e-6
-1.414, 4.773e-6
-1.413, 4.651e-6
-1.412, 4.541e-6
-1.411, 4.423e-6
-1.410, 4.277e-6
-1.409, 4.178e-6
-1.408, 3.922e-6
-1.407, 3.882e-6
-1.406, 3.720e-6
-1.405, 3.648e-6
-1.404, 3.519e-6
-1.403, 3.414e-6
-1.402, 3.357e-6
-1.401, 3.224e-6
-1.400, 3.156e-6
-1.399, 3.057e-6
-1.398, 2.910e-6
-1.397, 2.833e-6
-1.396, 2.762e-6
-1.395, 2.659e-6
-1.394, 2.593e-6
-1.393, 2.431e-6
-1.392, 2.472e-6
-1.391, 2.350e-6
-1.390, 2.269e-6
-1.389, 2.151e-6
-1.388, 2.061e-6
-1.387, 2.022e-6
-1.386, 1.944e-6
-1.385, 1.840e-6
-1.384, 1.786e-6
-1.383, 1.694e-6
-1.382, 1.679e-6
-1.381, 1.557e-6
-1.380, 1.520e-6
-1.379, 1.473e-6
-1.378, 1.368e-6
-1.377, 1.378e-6
-1.376, 1.282e-6
-1.375, 1.242e-6
-1.374, 1.149e-6
-1.373, 1.117e-6
-1.372, 1.074e-6
-1.371, 1.033e-6
-1.370, 1.049e-6
-1.369, 9.371e-7
-1.368, 8.887e-7
-1.367, 8.838e-7
-1.366, 7.723e-7
-1.365, 7.526e-7
-1.364, 7.328e-7
-1.363, 6.312e-7
-1.362, 6.539e-7
-1.361, 5.641e-7
-1.360, 6.036e-7
-1.359, 5.266e-7
-1.358, 4.635e-7
-1.357, 4.369e-7
-1.356, 3.816e-7
-1.355, 4.191e-7
-1.354, 3.362e-7
-1.353, 2.810e-7
-1.352, 2.810e-7
-1.351, 2.474e-7
-1.350, 1.942e-7
-1.349, 2.139e-7
-1.348, 1.360e-7
-1.347, 1.478e-7
-1.346, 1.202e-7
-1.345, 1.004e-7
-1.344, 8.366e-8
-1.343, 4.519e-8
-1.342, 3.039e-8
-1.341, -2.171e-9
-1.340, 1.362e-8
-1.339, -4.361e-8
-1.338, -8.090e-9
-1.337, -1.127e-7
-1.336, -8.208e-8
-1.335, -1.354e-7
-1.334, -1.442e-7
-1.333, -1.729e-7
-1.332, -1.186e-7
-1.331, -2.429e-7
-1.330, -1.906e-7
-1.329, -2.281e-7
-1.328, -2.607e-7
-1.327, -2.547e-7
-1.326, -2.804e-7
-1.325, -3.287e-7
-1.324, -2.863e-7
-1.323, -3.169e-7
-1.322, -3.909e-7
-1.321, -3.909e-7
-1.320, -3.643e-7
-1.319, -3.958e-7
-1.318, -4.590e-7
-1.317, -3.968e-7
-1.316, -4.382e-7
-1.315, -4.540e-7
-1.314, -5.191e-7
-1.313, -4.905e-7
-1.312, -5.310e-7
-1.311, -5.024e-7
-1.310, -5.754e-7
-1.309, -5.024e-7
-1.308, -5.586e-7
-1.307, -5.961e-7
-1.306, -5.478e-7
-1.305, -5.971e-7
-1.304, -6.346e-7
-1.303, -6.405e-7
-1.302, -6.938e-7
-1.301, -6.277e-7
-1.300, -6.750e-7
-1.299, -6.770e-7
-1.298, -7.036e-7
-1.297, -7.253e-7
-1.296, -6.721e-7
-1.295, -7.441e-7
-1.294, -7.461e-7
-1.293, -7.796e-7
-1.292, -7.480e-7
-1.291, -7.796e-7
-1.290, -7.964e-7
-1.289, -7.993e-7
-1.288, -8.161e-7
-1.287, -8.072e-7
-1.286, -7.618e-7
-1.285, -8.635e-7
-1.284, -8.408e-7
-1.283, -8.921e-7
-1.282, -8.595e-7
-1.281, -8.556e-7
-1.280, -8.852e-7
-1.279, -8.783e-7
-1.278, -9.424e-7
-1.277, -9.108e-7
-1.276, -9.365e-7
-1.275, -9.444e-7
-1.274, -9.227e-7
-1.273, -9.641e-7
-1.272, -9.878e-7
-1.271, -9.118e-7
-1.270, -1.018e-6
-1.269, -9.750e-7
-1.268, -1.046e-6
-1.267, -1.019e-6
-1.266, -1.003e-6
-1.265, -1.016e-6
-1.264, -1.036e-6
-1.263, -1.043e-6
-1.262, -1.118e-6
-1.261, -1.018e-6
-1.260, -1.065e-6
-1.259, -1.068e-6
-1.258, -1.076e-6
-1.257, -1.118e-6
-1.256, -1.089e-6
-1.255, -1.097e-6
-1.254, -1.148e-6
-1.253, -1.143e-6
-1.252, -1.170e-6
-1.251, -1.142e-6
-1.250, -1.134e-6
-1.249, -1.178e-6
-1.248, -1.169e-6
-1.247, -1.201e-6
-1.246, -1.159e-6
-1.245, -1.222e-6
-1.244, -1.159e-6
-1.243, -1.248e-6
-1.242, -1.220e-6
-1.241, -1.195e-6
-1.240, -1.197e-6
-1.239, -1.250e-6
-1.238, -1.247e-6
-1.237, -1.248e-6
-1.236, -1.205e-6
-1.235, -1.278e-6
-1.234, -1.276e-6
-1.233, -1.295e-6
-1.232, -1.268e-6
-1.231, -1.251e-6
-1.230, -1.299e-6
-1.229, -1.310e-6
-1.228, -1.366e-6
-1.227, -1.334e-6
-1.226, -1.307e-6
-1.225, -1.326e-6
-1.224, -1.377e-6
-1.223, -1.347e-6
-1.222, -1.407e-6
-1.221, -1.276e-6
-1.220, -1.369e-6
-1.219, -1.378e-6
-1.218, -1.408e-6
-1.217, -1.400e-6
-1.216, -1.377e-6
-1.215, -1.378e-6
-1.214, -1.439e-6
-1.213, -1.410e-6
-1.212, -1.442e-6
-1.211, -1.394e-6
-1.210, -1.390e-6
-1.209, -1.416e-6
-1.208, -1.450e-6
-1.207, -1.474e-6
-1.206, -1.465e-6
-1.205, -1.418e-6
-1.204, -1.473e-6
-1.203, -1.488e-6
-1.202, -1.523e-6
-1.201, -1.472e-6
-1.200, -1.493e-6
-1.199, -1.510e-6
-1.198, -1.540e-6
-1.197, -1.564e-6
-1.196, -1.481e-6
-1.195, -1.542e-6
-1.194, -1.538e-6
-1.193, -1.582e-6
-1.192, -1.547e-6
-1.191, -1.578e-6
-1.190, -1.559e-6
-1.189, -1.594e-6
-1.188, -1.618e-6
-1.187, -1.668e-6
-1.186, -1.567e-6
-1.185, -1.655e-6
-1.184, -1.638e-6
-1.183, -1.677e-6
-1.182, -1.668e-6
-1.181, -1.673e-6
-1.180, -1.608e-6
-1.179, -1.684e-6
-1.178, -1.686e-6
-1.177, -1.709e-6
-1.176, -1.713e-6
-1.175, -1.712e-6
-1.174, -1.734e-6
-1.173, -1.755e-6
-1.172, -1.744e-6
-1.171, -1.746e-6
-1.170, -1.745e-6
-1.169, -1.762e-6
-1.168, -1.767e-6
-1.167, -1.768e-6
-1.166, -1.812e-6
-1.165, -1.761e-6
-1.164, -1.819e-6
-1.163, -1.776e-6
-1.162, -1.852e-6
-1.161, -1.856e-6
-1.160, -1.811e-6
-1.159, -1.840e-6
-1.158, -1.860e-6
-1.157, -1.851e-6
-1.156, -1.899e-6
-1.155, -1.842e-6
-1.154, -1.889e-6
-1.153, -1.896e-6
-1.152, -1.911e-6
-1.151, -1.904e-6
-1.150, -1.901e-6
-1.149, -1.888e-6
-1.148, -1.955e-6
-1.147, -1.969e-6
-1.146, -1.972e-6
-1.145, -1.954e-6
-1.144, -1.958e-6
-1.143, -1.996e-6
-1.142, -1.992e-6
-1.141, -2.006e-6
-1.140, -1.958e-6
-1.139, -2.034e-6
-1.138, -2.047e-6
-1.137, -2.058e-6
-1.136, -2.041e-6
-1.135, -2.009e-6
-1.134, -2.015e-6
-1.133, -2.066e-6
-1.132, -2.071e-6
-1.131, -2.087e-6
-1.130, -2.037e-6
-1.129, -2.106e-6
-1.128, -2.036e-6
-1.127, -2.112e-6
-1.126, -2.100e-6
-1.125, -2.089e-6
-1.124, -2.091e-6
-1.123, -2.139e-6
-1.122, -2.162e-6
-1.121, -2.129e-6
-1.120, -2.099e-6
-1.119, -2.112e-6
-1.118, -2.187e-6
-1.117, -2.145e-6
-1.116, -2.168e-6
-1.115, -2.170e-6
-1.114, -2.151e-6
-1.113, -2.179e-6
-1.112, -2.204e-6
-1.111, -2.169e-6
-1.110, -2.187e-6
-1.109, -2.169e-6
-1.108, -2.232e-6
-1.107, -2.210e-6
-1.106, -2.262e-6
-1.105, -2.237e-6
-1.104, -2.186e-6
-1.103, -2.271e-6
-1.102, -2.259e-6
-1.101, -2.247e-6
-1.100, -2.228e-6
-1.099, -2.232e-6
-1.098, -2.247e-6
-1.097, -2.283e-6
-1.096, -2.256e-6
-1.095, -2.286e-6
-1.094, -2.273e-6
-1.093, -2.306e-6
-1.092, -2.268e-6
-1.091, -2.326e-6
-1.090, -2.256e-6
-1.089, -2.345e-6
-1.088, -2.329e-6
-1.087, -2.364e-6
-1.086, -2.326e-6
-1.085, -2.333e-6
-1.084, -2.378e-6
-1.083, -2.365e-6
-1.082, -2.404e-6
-1.081, -2.393e-6
-1.080, -2.373e-6
-1.079, -2.380e-6
-1.078, -2.412e-6
-1.077, -2.397e-6
-1.076, -2.431e-6
-1.075, -2.426e-6
-1.074, -2.436e-6
-1.073, -2.486e-6
-1.072, -2.487e-6
-1.071, -2.438e-6
-1.070, -2.432e-6
-1.069, -2.484e-6
-1.068, -2.489e-6
-1.067, -2.524e-6
-1.066, -2.518e-6
-1.065, -2.478e-6
-1.064, -2.514e-6
-1.063, -2.525e-6
-1.062, -2.593e-6
-1.061, -2.572e-6
-1.060, -2.499e-6
-1.059, -2.578e-6
-1.058, -2.572e-6
-1.057, -2.665e-6
-1.056, -2.558e-6
-1.055, -2.627e-6
-1.054, -2.617e-6
-1.053, -2.617e-6
-1.052, -2.633e-6
-1.051, -2.657e-6
-1.050, -2.625e-6
-1.049, -2.692e-6
-1.048, -2.650e-6
-1.047, -2.714e-6
-1.046, -2.719e-6
-1.045, -2.667e-6
-1.044, -2.666e-6
-1.043, -2.739e-6
-1.042, -2.789e-6
-1.041, -2.750e-6
-1.040, -2.762e-6
-1.039, -2.775e-6
-1.038, -2.836e-6
-1.037, -2.791e-6
-1.036, -2.818e-6
-1.035, -2.813e-6
-1.034, -2.846e-6
-1.033, -2.847e-6
-1.032, -2.872e-6
-1.031, -2.864e-6
-1.030, -2.877e-6
-1.029, -2.870e-6
-1.028, -2.886e-6
-1.027, -2.982e-6
-1.026, -2.907e-6
-1.025, -2.972e-6
-1.024, -2.917e-6
-1.023, -2.980e-6
-1.022, -2.979e-6
-1.021, -3.001e-6
-1.020, -3.003e-6
-1.019, -3.030e-6
-1.018, -3.035e-6
-1.017, -3.055e-6
-1.016, -3.051e-6
-1.015, -3.078e-6
-1.014, -3.087e-6
-1.013, -3.122e-6
-1.012, -3.103e-6
-1.011, -3.173e-6
-1.010, -3.138e-6
-1.009, -3.156e-6
-1.008, -3.172e-6
-1.007, -3.190e-6
-1.006, -3.178e-6
-1.005, -3.202e-6
-1.004, -3.159e-6
-1.003, -3.270e-6
-1.002, -3.239e-6
-1.001, -3.283e-6
-1.000, -1.407e-6
-1.001, -8.536e-7
-1.002, -7.599e-7
-1.003, -6.099e-7
-1.004, -5.043e-7
-1.005, -3.573e-7
-1.006, -3.504e-7
-1.007, -2.764e-7
-1.008, -2.182e-7
-1.009, -1.827e-7
-1.010, -1.067e-7
-1.011, -7.025e-8
-1.012, -7.912e-8
-1.013, 3.729e-8
-1.014, 2.447e-8
-1.015, 1.162e-7
-1.016, 1.399e-7
-1.017, 1.498e-7
-1.018, 1.853e-7
-1.019, 2.336e-7
-1.020, 2.662e-7
-1.021, 3.204e-7
-1.022, 2.474e-7
-1.023, 3.629e-7
-1.024, 3.500e-7
-1.025, 4.004e-7
-1.026, 4.556e-7
-1.027, 3.767e-7
-1.028, 4.645e-7
-1.029, 4.980e-7
-1.030, 5.109e-7
-1.031, 5.424e-7
-1.032, 5.345e-7
-1.033, 5.385e-7
-1.034, 5.809e-7
-1.035, 5.760e-7
-1.036, 6.263e-7
-1.037, 5.987e-7
-1.038, 6.381e-7
-1.039, 6.263e-7
-1.040, 6.825e-7
-1.041, 6.766e-7
-1.042, 6.993e-7
-1.043, 7.141e-7
-1.044, 7.250e-7
-1.045, 7.417e-7
-1.046, 7.782e-7
-1.047, 7.457e-7
-1.048, 8.039e-7
-1.049, 8.118e-7
-1.050, 8.226e-7
-1.051, 8.285e-7
-1.052, 7.861e-7
-1.053, 8.512e-7
-1.054, 8.848e-7
-1.055, 8.650e-7
-1.056, 8.720e-7
-1.057, 8.177e-7
-1.058, 8.729e-7
-1.059, 9.242e-7
-1.060, 9.193e-7
-1.061, 9.736e-7
-1.062, 8.917e-7
-1.063, 9.973e-7
-1.064, 9.706e-7
-1.065, 9.755e-7
-1.066, 1.006e-6
-1.067, 9.085e-7
-1.068, 9.765e-7
-1.069, 1.018e-6
-1.070, 1.043e-6
-1.071, 1.006e-6
-1.072, 1.017e-6
-1.073, 1.011e-6
-1.074, 1.040e-6
-1.075, 1.066e-6
-1.076, 1.116e-6
-1.077, 1.045e-6
-1.078, 1.049e-6
-1.079, 1.103e-6
-1.080, 1.085e-6
-1.081, 1.118e-6
-1.082, 1.116e-6
-1.083, 1.059e-6
-1.084, 1.134e-6
-1.085, 1.141e-6
-1.086, 1.136e-6
-1.087, 1.132e-6
-1.088, 1.134e-6
-1.089, 1.176e-6
-1.090, 1.197e-6
-1.091, 1.183e-6
-1.092, 1.203e-6
-1.093, 1.181e-6
-1.094, 1.172e-6
-1.095, 1.280e-6
-1.096, 1.231e-6
-1.097, 1.216e-6
-1.098, 1.174e-6
-1.099, 1.254e-6
-1.100, 1.246e-6
-1.101, 1.257e-6
-1.102, 1.257e-6
-1.103, 1.288e-6
-1.104, 1.252e-6
-1.105, 1.315e-6
-1.106, 1.317e-6
-1.107, 1.273e-6
-1.108, 1.289e-6
-1.109, 1.306e-6
-1.110, 1.342e-6
-1.111, 1.362e-6
-1.112, 1.360e-6
-1.113, 1.304e-6
-1.114, 1.366e-6
-1.115, 1.406e-6
-1.116, 1.378e-6
-1.117, 1.400e-6
-1.118, 1.383e-6
-1.119, 1.427e-6
-1.120, 1.464e-6
-1.121, 1.409e-6
-1.122, 1.457e-6
-1.123, 1.424e-6
-1.124, 1.476e-6
-1.125, 1.497e-6
-1.126, 1.494e-6
-1.127, 1.544e-6
-1.128, 1.525e-6
-1.129, 1.509e-6
-1.130, 1.553e-6
-1.131, 1.548e-6
-1.132, 1.536e-6
-1.133, 1.556e-6
-1.134, 1.537e-6
-1.135, 1.642e-6
-1.136, 1.594e-6
-1.137, 1.604e-6
-1.138, 1.568e-6
-1.139, 1.641e-6
-1.140, 1.638e-6
-1.141, 1.682e-6
-1.142, 1.662e-6
-1.143, 1.661e-6
-1.144, 1.669e-6
-1.145, 1.708e-6
-1.146, 1.707e-6
-1.147, 1.727e-6
-1.148, 1.696e-6
-1.149, 1.727e-6
-1.150, 1.736e-6
-1.151, 1.765e-6
-1.152, 1.776e-6
-1.153, 1.729e-6
-1.154, 1.817e-6
-1.155, 1.812e-6
-1.156, 1.820e-6
-1.157, 1.801e-6
-1.158, 1.794e-6
-1.159, 1.831e-6
-1.160, 1.831e-6
-1.161, 1.864e-6
-1.162, 1.898e-6
-1.163, 1.855e-6
-1.164, 1.845e-6
-1.165, 1.902e-6
-1.166, 1.896e-6
-1.167, 1.940e-6
-1.168, 1.875e-6
-1.169, 1.915e-6
-1.170, 1.960e-6
-1.171, 1.951e-6
-1.172, 1.942e-6
-1.173, 1.949e-6
-1.174, 1.928e-6
-1.175, 2.018e-6
-1.176, 1.985e-6
-1.177, 1.976e-6
-1.178, 1.948e-6
-1.179, 1.986e-6
-1.180, 1.998e-6
-1.181, 2.039e-6
-1.182, 2.044e-6
-1.183, 1.974e-6
-1.184, 2.053e-6
-1.185, 2.004e-6
-1.186, 2.061e-6
-1.187, 2.023e-6
-1.188, 2.021e-6
-1.189, 2.044e-6
-1.190, 2.107e-6
-1.191, 2.075e-6
-1.192, 2.075e-6
-1.193, 2.046e-6
-1.194, 2.119e-6
-1.195, 2.087e-6
-1.196, 2.057e-6
-1.197, 2.125e-6
-1.198, 2.100e-6
-1.199, 2.158e-6
-1.200, 2.107e-6
-1.201, 2.147e-6
-1.202, 2.151e-6
-1.203, 2.108e-6
-1.204, 2.146e-6
-1.205, 2.175e-6
-1.206, 2.189e-6
-1.207, 2.179e-6
-1.208, 2.145e-6
-1.209, 2.211e-6
-1.210, 2.169e-6
-1.211, 2.204e-6
-1.212, 2.206e-6
-1.213, 2.160e-6
-1.214, 2.221e-6
-1.215, 2.237e-6
-1.216, 2.228e-6
-1.217, 2.226e-6
-1.218, 2.216e-6
-1.219, 2.211e-6
-1.220, 2.236e-6
-1.221, 2.272e-6
-1.222, 2.258e-6
-1.223, 2.196e-6
-1.224, 2.257e-6
-1.225, 2.243e-6
-1.226, 2.352e-6
-1.227, 2.222e-6
-1.228, 2.300e-6
-1.229, 2.295e-6
-1.230, 2.305e-6
-1.231, 2.321e-6
-1.232, 2.345e-6
-1.233, 2.285e-6
-1.234, 2.326e-6
-1.235, 2.309e-6
-1.236, 2.365e-6
-1.237, 2.348e-6
-1.238, 2.344e-6
-1.239, 2.360e-6
-1.240, 2.331e-6
-1.241, 2.381e-6
-1.242, 2.391e-6
-1.243, 2.391e-6
-1.244, 2.368e-6
-1.245, 2.419e-6
-1.246, 2.409e-6
-1.247, 2.436e-6
-1.248, 2.393e-6
-1.249, 2.452e-6
-1.250, 2.455e-6
-1.251, 2.431e-6
-1.252, 2.457e-6
-1.253, 2.446e-6
-1.254, 2.459e-6
-1.255, 2.490e-6
-1.256, 2.485e-6
-1.257, 2.462e-6
-1.258, 2.475e-6
-1.259, 2.473e-6
-1.260, 2.494e-6
-1.261, 2.501e-6
-1.262, 2.529e-6
-1.263, 2.471e-6
-1.264, 2.509e-6
-1.265, 2.510e-6
-1.266, 2.508e-6
-1.267, 2.479e-6
-1.268, 2.530e-6
-1.269, 2.540e-6
-1.270, 2.572e-6
-1.271, 2.578e-6
-1.272, 2.509e-6
-1.273, 2.564e-6
-1.274, 2.536e-6
-1.275, 2.611e-6
-1.276, 2.570e-6
-1.277, 2.633e-6
-1.278, 2.565e-6
-1.279, 2.602e-6
-1.280, 2.604e-6
-1.281, 2.623e-6
-1.282, 2.614e-6
-1.283, 2.598e-6
-1.284, 2.631e-6
-1.285, 2.675e-6
-1.286, 2.617e-6
-1.287, 2.663e-6
-1.288, 2.635e-6
-1.289, 2.664e-6
-1.290, 2.723e-6
-1.291, 2.693e-6
-1.292, 2.692e-6
-1.293, 2.653e-6
-1.294, 2.678e-6
-1.295, 2.713e-6
-1.296, 2.745e-6
-1.297, 2.691e-6
-1.298, 2.698e-6
-1.299, 2.686e-6
-1.300, 2.758e-6
-1.301, 2.703e-6
-1.302, 2.762e-6
-1.303, 2.757e-6
-1.304, 2.743e-6
-1.305, 2.835e-6
-1.306, 2.748e-6
-1.307, 2.827e-6
-1.308, 2.801e-6
-1.309, 2.777e-6
-1.310, 2.857e-6
-1.311, 2.847e-6
-1.312, 2.869e-6
-1.313, 2.871e-6
-1.314, 2.836e-6
-1.315, 2.889e-6
-1.316, 2.884e-6
-1.317, 2.988e-6
-1.318, 2.900e-6
-1.319, 2.952e-6
-1.320, 2.966e-6
-1.321, 2.934e-6
-1.322, 2.995e-6
-1.323, 2.982e-6
-1.324, 2.983e-6
-1.325, 3.031e-6
-1.326, 3.055e-6
-1.327, 3.043e-6
-1.328, 3.051e-6
-1.329, 3.057e-6
-1.330, 3.160e-6
-1.331, 3.097e-6
-1.332, 3.152e-6
-1.333, 3.107e-6
-1.334, 3.152e-6
-1.335, 3.236e-6
-1.336, 3.255e-6
-1.337, 3.216e-6
-1.338, 3.231e-6
-1.339, 3.251e-6
-1.340, 3.334e-6
-1.341, 3.333e-6
-1.342, 3.303e-6
-1.343, 3.323e-6
-1.344, 3.350e-6
-1.345, 3.500e-6
-1.346, 3.457e-6
-1.347, 3.446e-6
-1.348, 3.467e-6
-1.349, 3.511e-6
-1.350, 3.574e-6
-1.351, 3.590e-6
-1.352, 3.585e-6
-1.353, 3.617e-6
-1.354, 3.679e-6
-1.355, 3.697e-6
-1.356, 3.804e-6
-1.357, 3.748e-6
-1.358, 3.776e-6
-1.359, 3.843e-6
-1.360, 3.909e-6
-1.361, 3.925e-6
-1.362, 3.979e-6
-1.363, 3.996e-6
-1.364, 3.981e-6
-1.365, 4.061e-6
-1.366, 4.135e-6
-1.367, 4.144e-6
-1.368, 4.144e-6
-1.369, 4.229e-6
-1.370, 4.261e-6
-1.371, 4.345e-6
-1.372, 4.380e-6
-1.373, 4.399e-6
-1.374, 4.416e-6
-1.375, 4.552e-6
-1.376, 4.610e-6
-1.377, 4.597e-6
-1.378, 4.685e-6
-1.379, 4.695e-6
-1.380, 4.795e-6
-1.381, 4.820e-6
-1.382, 4.924e-6
-1.383, 4.978e-6
-1.384, 4.974e-6
-1.385, 5.075e-6
-1.386, 5.183e-6
-1.387, 5.218e-6
-1.388, 5.262e-6
-1.389, 5.326e-6
-1.390, 5.426e-6
-1.391, 5.550e-6
-1.392, 5.542e-6
-1.393, 5.572e-6
-1.394, 5.674e-6
-1.395, 5.793e-6
-1.396, 5.857e-6
-1.397, 5.963e-6
-1.398, 5.992e-6
-1.399, 6.124e-6
-1.400, 6.189e-6
-1.401, 6.237e-6
-1.402, 6.419e-6
-1.403, 6.419e-6
-1.404, 6.532e-6
-1.405, 6.614e-6
-1.406, 6.737e-6
-1.407, 6.854e-6
-1.408, 6.908e-6
-1.409, 7.083e-6
-1.410, 7.134e-6
-1.411, 7.263e-6
-1.412, 7.393e-6
-1.413, 7.474e-6
-1.414, 7.573e-6
-1.415, 7.699e-6
-1.416, 7.836e-6
-1.417, 7.956e-6
-1.418, 8.060e-6
-1.419, 8.222e-6
-1.420, 8.317e-6
-1.421, 8.515e-6
-1.422, 8.556e-6
-1.423, 8.716e-6
-1.424, 8.874e-6
-1.425, 8.951e-6
-1.426, 9.174e-6
-1.427, 9.285e-6
-1.428, 9.435e-6
-1.429, 9.592e-6
-1.430, 9.741e-6
-1.431, 9.937e-6
-1.432, 1.008e-5
-1.433, 1.022e-5
-1.434, 1.043e-5
-1.435, 1.059e-5
-1.436, 1.080e-5
-1.437, 1.094e-5
-1.438, 1.111e-5
-1.439, 1.133e-5
-1.440, 1.149e-5
-1.441, 1.177e-5
-1.442, 1.190e-5
-1.443, 1.212e-5
-1.444, 1.230e-5
-1.445, 1.248e-5
-1.446, 1.280e-5
-1.447, 1.301e-5
-1.448, 1.318e-5
-1.449, 1.344e-5
-1.450, 1.372e-5
-1.451, 1.389e-5
-1.452, 1.413e-5
-1.453, 1.437e-5
-1.454, 1.462e-5
-1.455, 1.486e-5
-1.456, 1.518e-5
-1.457, 1.545e-5
-1.458, 1.572e-5
-1.459, 1.590e-5
-1.460, 1.625e-5
-1.461, 1.660e-5
-1.462, 1.685e-5
-1.463, 1.715e-5
-1.464, 1.745e-5
-1.465, 1.778e-5
-1.466, 1.810e-5
-1.467, 1.849e-5
-1.468, 1.871e-5
-1.469, 1.903e-5
-1.470, 1.943e-5
-1.471, 1.973e-5
-1.472, 2.017e-5
-1.473, 2.047e-5
-1.474, 2.090e-5
-1.475, 2.122e-5
-1.476, 2.168e-5
-1.477, 2.204e-5
-1.478, 2.240e-5
-1.479, 2.283e-5
-1.480, 2.324e-5
-1.481, 2.368e-5
-1.482, 2.407e-5
-1.483, 2.455e-5
-1.484, 2.500e-5
-1.485, 2.547e-5
-1.486, 2.591e-5
-1.487, 2.647e-5
-1.488, 2.682e-5
-1.489, 2.736e-5
-1.490, 2.786e-5
-1.491, 2.839e-5
-1.492, 2.887e-5
-1.493, 2.939e-5
-1.494, 2.992e-5
-1.495, 3.049e-5
-1.496, 3.108e-5
-1.497, 3.161e-5
-1.498, 3.217e-5
-1.499, 3.276e-5
-1.500, 3.339e-5
-1.501, 3.401e-5
-1.502, 3.464e-5
-1.503, 3.525e-5
-1.504, 3.591e-5
-1.505, 3.655e-5
-1.506, 3.728e-5
-1.507, 3.790e-5
-1.508, 3.860e-5
-1.509, 3.930e-5
-1.510, 4.006e-5
-1.511, 4.083e-5
-1.512, 4.153e-5
-1.513, 4.230e-5
-1.514, 4.309e-5
-1.515, 4.395e-5
-1.516, 4.473e-5
-1.517, 4.560e-5
-1.518, 4.641e-5
-1.519, 4.731e-5
-1.520, 4.817e-5
-1.521, 4.913e-5
-1.522, 5.004e-5
-1.523, 5.094e-5
-1.524, 5.186e-5
-1.525, 5.289e-5
-1.526, 5.395e-5
-1.527, 5.488e-5
-1.528, 5.594e-5
-1.529, 5.700e-5
-1.530, 5.811e-5
-1.531, 5.923e-5
-1.532, 6.035e-5
-1.533, 6.146e-5
-1.534, 6.265e-5
-1.535, 6.388e-5
-1.536, 6.510e-5
-1.537, 6.636e-5
-1.538, 6.768e-5
-1.539, 6.890e-5
-1.540, 7.027e-5
-1.541, 7.168e-5
-1.542, 7.297e-5
-1.543, 7.447e-5
-1.544, 7.584e-5
-1.545, 7.731e-5
-1.546, 7.885e-5
-1.547, 8.040e-5
-1.548, 8.188e-5
-1.549, 8.349e-5
-1.550, 8.516e-5
-1.551, 8.683e-5
-1.552, 8.856e-5
-1.553, 9.026e-5
-1.554, 9.200e-5
-1.555, 9.382e-5
-1.556, 9.574e-5
-1.557, 9.760e-5
-1.558, 9.952e-5
-1.559, 1.015e-4
-1.560, 1.035e-4
-1.561, 1.056e-4
-1.562, 1.077e-4
-1.563, 1.098e-4
-1.564, 1.120e-4
-1.565, 1.142e-4
-1.566, 1.165e-4
-1.567, 1.189e-4
-1.568, 1.213e-4
-1.569, 1.236e-4
-1.570, 1.262e-4
-1.571, 1.287e-4
-1.572, 1.313e-4
-1.573, 1.340e-4
-1.574, 1.366e-4
-1.575, 1.394e-4
-1.576, 1.422e-4
-1.577, 1.451e-4
-1.578, 1.482e-4
-1.579, 1.511e-4
-1.580, 1.543e-4
-1.581, 1.574e-4
-1.582, 1.606e-4
-1.583, 1.640e-4
-1.584, 1.673e-4
-1.585, 1.708e-4
-1.586, 1.743e-4
-1.587, 1.780e-4
-1.588, 1.816e-4
-1.589, 1.854e-4
-1.590, 1.892e-4
-1.591, 1.932e-4
-1.592, 1.972e-4
-1.593, 2.013e-4
-1.594, 2.055e-4
-1.595, 2.098e-4
-1.596, 2.142e-4
-1.597, 2.187e-4
-1.598, 2.233e-4
-1.599, 2.280e-4
-1.600, 2.275e-4
-1.599, 2.240e-4
-1.598, 2.207e-4
-1.597, 2.173e-4
-1.596, 2.140e-4
-1.595, 2.107e-4
-1.594, 2.074e-4
-1.593, 2.040e-4
-1.592, 2.008e-4
-1.591, 1.975e-4
-1.590, 1.943e-4
-1.589, 1.911e-4
-1.588, 1.880e-4
-1.587, 1.849e-4
-1.586, 1.819e-4
-1.585, 1.788e-4
-1.584, 1.758e-4
-1.583, 1.729e-4
-1.582, 1.699e-4
-1.581, 1.670e-4
-1.580, 1.642e-4
-1.579, 1.614e-4
-1.578, 1.586e-4
-1.577, 1.558e-4
-1.576, 1.531e-4
-1.575, 1.505e-4
-1.574, 1.478e-4
-1.573, 1.453e-4
-1.572, 1.427e-4
-1.571, 1.402e-4
-1.570, 1.377e-4
-1.569, 1.353e-4
-1.568, 1.329e-4
-1.567, 1.306e-4
-1.566, 1.282e-4
-1.565, 1.259e-4
-1.564, 1.237e-4
-1.563, 1.215e-4
-1.562, 1.192e-4
-1.561, 1.171e-4
-1.560, 1.150e-4
-1.559, 1.130e-4
-1.558, 1.109e-4
-1.557, 1.089e-4
-1.556, 1.069e-4
-1.555, 1.050e-4
-1.554, 1.031e-4
-1.553, 1.013e-4
-1.552, 9.928e-5
-1.551, 9.756e-5
-1.550, 9.571e-5
-1.549, 9.399e-5
-1.548, 9.226e-5
-1.547, 9.053e-5
-1.546, 8.892e-5
-1.545, 8.719e-5
-1.544, 8.562e-5
-1.543, 8.401e-5
-1.542, 8.242e-5
-1.541, 8.093e-5
-1.540, 7.945e-5
-1.539, 7.794e-5
-1.538, 7.647e-5
-1.537, 7.505e-5
-1.536, 7.366e-5
-1.535, 7.230e-5
-1.534, 7.092e-5
-1.533, 6.963e-5
-1.532, 6.823e-5
-1.531, 6.700e-5
-1.530, 6.576e-5
-1.529, 6.450e-5
-1.528, 6.325e-5
-1.527, 6.204e-5
-1.526, 6.089e-5
-1.525, 5.980e-5
-1.524, 5.862e-5
-1.523, 5.753e-5
-1.522, 5.642e-5
-1.521, 5.530e-5
-1.520, 5.427e-5
-1.519, 5.323e-5
-1.518, 5.223e-5
-1.517, 5.116e-5
-1.516, 5.020e-5
-1.515, 4.929e-5
-1.514, 4.833e-5
-1.513, 4.744e-5
-1.512, 4.646e-5
-1.511, 4.558e-5
-1.510, 4.470e-5
-1.509, 4.387e-5
-1.508, 4.302e-5
-1.507, 4.213e-5
-1.506, 4.129e-5
-1.505, 4.056e-5
-1.504, 3.978e-5
-1.503, 3.900e-5
-1.502, 3.823e-5
-1.501, 3.737e-5
-1.500, 3.672e-5
-1.499, 3.601e-5
-1.498, 3.529e-5
-1.497, 3.456e-5
-1.496, 3.388e-5
-1.495, 3.318e-5
-1.494, 3.254e-5
-1.493, 3.198e-5
-1.492, 3.129e-5
-1.491, 3.061e-5
-1.490, 3.006e-5
-1.489, 2.942e-5
-1.488, 2.884e-5
-1.487, 2.826e-5
-1.486, 2.767e-5
-1.485, 2.713e-5
-1.484, 2.657e-5
-1.483, 2.605e-5
-1.482, 2.545e-5
-1.481, 2.494e-5
-1.480, 2.451e-5
-1.479, 2.398e-5
-1.478, 2.347e-5
-1.477, 2.296e-5
-1.476, 2.246e-5
-1.475, 2.203e-5
-1.474, 2.158e-5
-1.473, 2.111e-5
-1.472, 2.068e-5
-1.471, 2.020e-5
-1.470, 1.980e-5
-1.469, 1.941e-5
-1.468, 1.899e-5
-1.467, 1.859e-5
-1.466, 1.814e-5
-1.465, 1.778e-5
-1.464, 1.742e-5
-1.463, 1.699e-5
-1.462, 1.665e-5
-1.461, 1.630e-5
-1.460, 1.594e-5
-1.459, 1.556e-5
-1.458, 1.520e-5
-1.457, 1.486e-5
-1.456, 1.454e-5
-1.455, 1.424e-5
-1.454, 1.391e-5
-1.453, 1.363e-5
-1.452, 1.329e-5
-1.451, 1.300e-5
-1.450, 1.268e-5
-1.449, 1.247e-5
-1.448, 1.213e-5
-1.447, 1.188e-5
-1.446, 1.149e-5
-1.445, 1.127e-5
-1.444, 1.106e-5
-1.443, 1.079e-5
-1.442, 1.054e-5
-1.441, 1.026e-5
-1.440, 1.004e-5
-1.439, 9.758e-6
-1.438, 9.526e-6
-1.437, 9.283e-6
-1.436, 9.033e-6
-1.435, 8.788e-6
-1.434, 8.608e-6
-1.433, 8.412e-6
-1.432, 8.200e-6
-1.431, 7.957e-6
-1.430, 7.766e-6
-1.429, 7.586e-6
-1.428, 7.397e-6
-1.427, 7.183e-6
-1.426, 6.946e-6
-1.425, 6.792e-6
-1.424, 6.654e-6
-1.423, 6.484e-6
-1.422, 6.324e-6
-1.421, 6.113e-6
-1.420, 6.003e-6
-1.419, 5.834e-6
-1.418, 5.705e-6
-1.417, 5.483e-6
-1.416, 5.375e-6
-1.415, 5.173e-6
-1.414, 5.030e-6
-1.413, 4.951e-6
-1.412, 4.768e-6
-1.411, 4.616e-6
-1.410, 4.470e-6
-1.409, 4.393e-6
-1.408, 4.234e-6
-1.407, 4.126e-6
-1.406, 3.919e-6
-1.405, 3.883e-6
-1.404, 3.755e-6
-1.403, 3.643e-6
-1.402, 3.515e-6
-1.401, 3.412e-6
-1.400, 3.307e-6
-1.399, 3.205e-6
-1.398, 3.123e-6
-1.397, 2.969e-6
-1.396, 2.918e-6
-1.395, 2.774e-6
-1.394, 2.700e-6
-1.393, 2.631e-6
-1.392, 2.565e-6
-1.391, 2.397e-6
-1.390, 2.366e-6
-1.389, 2.277e-6
-1.388, 2.178e-6
-1.387, 2.123e-6
-1.386, 1.976e-6
-1.385, 1.987e-6
-1.384, 1.847e-6
-1.383, 1.849e-6
-1.382, 1.731e-6
-1.381, 1.671e-6
-1.380, 1.641e-6
-1.379, 1.539e-6
-1.378, 1.497e-6
-1.377, 1.395e-6
-1.376, 1.375e-6
-1.375, 1.286e-6
-1.374, 1.211e-6
-1.373, 1.231e-6
-1.372, 1.128e-6
-1.371, 1.038e-6
-1.370, 1.039e-6
-1.369, 9.795e-7
-1.368, 9.499e-7
-1.367, 9.223e-7
-1.366, 8.059e-7
-1.365, 8.325e-7
-1.364, 7.447e-7
-1.363, 7.378e-7
-1.362, 6.322e-7
-1.361, 6.046e-7
-1.360, 5.631e-7
-1.359, 5.276e-7
-1.358, 5.326e-7
-1.357, 5.059e-7
-1.356, 4.487e-7
-1.355, 3.915e-7
-1.354, 3.727e-7
-1.353, 3.708e-7
-1.352, 3.244e-7
-1.351, 2.701e-7
-1.350, 2.257e-7
-1.349, 2.662e-7
-1.348, 1.803e-7
-1.347, 1.764e-7
-1.346, 1.251e-7
-1.345, 1.192e-7
-1.344, 3.236e-8
-1.343, 5.505e-8
-1.342, -2.190e-8
-1.341, -1.302e-8
-1.340, 3.749e-9
-1.339, -7.617e-8
-1.338, -6.334e-8
-1.337, -1.393e-7
-1.336, -8.603e-8
-1.335, -1.206e-7
-1.334, -1.985e-7
-1.333, -2.005e-7
-1.332, -2.123e-7
-1.331, -1.827e-7
-1.330, -2.380e-7
-1.329, -2.676e-7
-1.328, -2.922e-7
-1.327, -3.100e-7
-1.326, -3.228e-7
-1.325, -3.307e-7
-1.324, -3.652e-7
-1.323, -3.830e-7
-1.322, -4.106e-7
-1.321, -3.840e-7
-1.320, -4.274e-7
-1.319, -4.116e-7
-1.318, -4.757e-7
-1.317, -4.915e-7
-1.316, -4.570e-7
-1.315, -5.182e-7
-1.314, -5.122e-7
-1.313, -5.201e-7
-1.312, -5.586e-7
-1.311, -5.843e-7
-1.310, -6.060e-7
-1.309, -5.714e-7
-1.308, -5.971e-7
-1.307, -6.218e-7
-1.306, -6.267e-7
-1.305, -6.119e-7
-1.304, -6.198e-7
-1.303, -6.514e-7
-1.302, -6.938e-7
-1.301, -6.701e-7
-1.300, -7.105e-7
-1.299, -6.661e-7
-1.298, -7.342e-7
-1.297, -7.046e-7
-1.296, -7.283e-7
-1.295, -7.648e-7
-1.294, -7.372e-7
-1.293, -8.033e-7
-1.292, -7.461e-7
-1.291, -8.585e-7
-1.290, -8.171e-7
-1.289, -8.250e-7
-1.288, -8.289e-7
-1.287, -8.201e-7
-1.286, -8.911e-7
-1.285, -8.467e-7
-1.284, -8.645e-7
-1.283, -9.089e-7
-1.282, -8.871e-7
-1.281, -9.138e-7
-1.280, -9.197e-7
-1.279, -9.483e-7
-1.278, -9.799e-7
-1.277, -9.315e-7
-1.276, -9.562e-7
-1.275, -1.048e-6
-1.274, -9.799e-7
-1.273, -1.021e-6
-1.272, -1.008e-6
-1.271, -1.006e-6
-1.270, -1.035e-6
-1.269, -9.947e-7
-1.268, -1.059e-6
-1.267, -1.031e-6
-1.266, -1.103e-6
-1.265, -1.072e-6
-1.264, -1.065e-6
-1.263, -1.066e-6
-1.262, -1.110e-6
-1.261, -1.098e-6
-1.260, -1.107e-6
-1.259, -1.125e-6
-1.258, -1.071e-6
-1.257, -1.139e-6
-1.256, -1.159e-6
-1.255, -1.166e-6
-1.254, -1.098e-6
-1.253, -1.152e-6
-1.252, -1.156e-6
-1.251, -1.172e-6
-1.250, -1.202e-6
-1.249, -1.171e-6
-1.248, -1.168e-6
-1.247, -1.222e-6
-1.246, -1.211e-6
-1.245, -1.239e-6
-1.244, -1.159e-6
-1.243, -1.254e-6
-1.242, -1.206e-6
-1.241, -1.323e-6
-1.240, -1.242e-6
-1.239, -1.218e-6
-1.238, -1.257e-6
-1.237, -1.266e-6
-1.236, -1.272e-6
-1.235, -1.285e-6
-1.234, -1.253e-6
-1.233, -1.264e-6
-1.232, -1.288e-6
-1.231, -1.338e-6
-1.230, -1.331e-6
-1.229, -1.283e-6
-1.228, -1.319e-6
-1.227, -1.330e-6
-1.226, -1.342e-6
-1.225, -1.346e-6
-1.224, -1.354e-6
-1.223, -1.355e-6
-1.222, -1.366e-6
-1.221, -1.437e-6
-1.220, -1.361e-6
-1.219, -1.371e-6
-1.218, -1.394e-6
-1.217, -1.401e-6
-1.216, -1.448e-6
-1.215, -1.451e-6
-1.214, -1.424e-6
-1.213, -1.409e-6
-1.212, -1.422e-6
-1.211, -1.477e-6
-1.210, -1.477e-6
-1.209, -1.508e-6
-1.208, -1.453e-6
-1.207, -1.462e-6
-1.206, -1.541e-6
-1.205, -1.484e-6
-1.204, -1.495e-6
-1.203, -1.506e-6
-1.202, -1.497e-6
-1.201, -1.590e-6
-1.200, -1.511e-6
-1.199, -1.525e-6
-1.198, -1.554e-6
-1.197, -1.582e-6
-1.196, -1.564e-6
-1.195, -1.587e-6
-1.194, -1.583e-6
-1.193, -1.545e-6
-1.192, -1.594e-6
-1.191, -1.591e-6
-1.190, -1.673e-6
-1.189, -1.617e-6
-1.188, -1.626e-6
-1.187, -1.652e-6
-1.186, -1.667e-6
-1.185, -1.666e-6
-1.184, -1.663e-6
-1.183, -1.632e-6
-1.182, -1.724e-6
-1.181, -1.714e-6
-1.180, -1.705e-6
-1.179, -1.737e-6
-1.178, -1.679e-6
-1.177, -1.753e-6
-1.176, -1.749e-6
-1.175, -1.771e-6
-1.174, -1.753e-6
-1.173, -1.735e-6
-1.172, -1.760e-6
-1.171, -1.843e-6
-1.170, -1.792e-6
-1.169, -1.822e-6
-1.168, -1.795e-6
-1.167, -1.828e-6
-1.166, -1.860e-6
-1.165, -1.867e-6
-1.164, -1.851e-6
-1.163, -1.783e-6
-1.162, -1.854e-6
-1.161, -1.882e-6
-1.160, -1.856e-6
-1.159, -1.876e-6
-1.158, -1.900e-6
-1.157, -1.900e-6
-1.156, -1.937e-6
-1.155, -1.940e-6
-1.154, -1.923e-6
-1.153, -1.969e-6
-1.152, -1.893e-6
-1.151, -1.965e-6
-1.150, -1.979e-6
-1.149, -1.988e-6
-1.148, -1.947e-6
-1.147, -1.973e-6
-1.146, -1.974e-6
-1.145, -2.047e-6
-1.144, -1.995e-6
-1.143, -2.004e-6
-1.142, -2.038e-6
-1.141, -1.982e-6
-1.140, -2.032e-6
-1.139, -2.084e-6
-1.138, -2.038e-6
-1.137, -2.032e-6
-1.136, -2.080e-6
-1.135, -2.084e-6
-1.134, -2.095e-6
-1.133, -2.057e-6
-1.132, -2.045e-6
-1.131, -2.139e-6
-1.130, -2.102e-6
-1.129, -2.124e-6
-1.128, -2.067e-6
-1.127, -2.110e-6
-1.126, -2.124e-6
-1.125, -2.143e-6
-1.124, -2.141e-6
-1.123, -2.184e-6
-1.122, -2.114e-6
-1.121, -2.189e-6
-1.120, -2.179e-6
-1.119, -2.182e-6
-1.118, -2.232e-6
-1.117, -2.156e-6
-1.116, -2.208e-6
-1.115, -2.176e-6
-1.114, -2.238e-6
-1.113, -2.182e-6
-1.112, -2.224e-6
-1.111, -2.236e-6
-1.110, -2.227e-6
-1.109, -2.250e-6
-1.108, -2.221e-6
-1.107, -2.262e-6
-1.106, -2.282e-6
-1.105, -2.277e-6
-1.104, -2.231e-6
-1.103, -2.207e-6
-1.102, -2.297e-6
-1.101, -2.289e-6
-1.100, -2.293e-6
-1.099, -2.308e-6
-1.098, -2.262e-6
-1.097, -2.322e-6
-1.096, -2.303e-6
-1.095, -2.337e-6
-1.094, -2.329e-6
-1.093, -2.305e-6
-1.092, -2.338e-6
-1.091, -2.378e-6
-1.090, -2.392e-6
-1.089, -2.369e-6
-1.088, -2.361e-6
-1.087, -2.394e-6
-1.086, -2.396e-6
-1.085, -2.410e-6
-1.084, -2.449e-6
-1.083, -2.418e-6
-1.082, -2.420e-6
-1.081, -2.456e-6
-1.080, -2.453e-6
-1.079, -2.459e-6
-1.078, -2.440e-6
-1.077, -2.475e-6
-1.076, -2.491e-6
-1.075, -2.544e-6
-1.074, -2.504e-6
-1.073, -2.482e-6
-1.072, -2.513e-6
-1.071, -2.500e-6
-1.070, -2.598e-6
-1.069, -2.513e-6
-1.068, -2.561e-6
-1.067, -2.537e-6
-1.066, -2.585e-6
-1.065, -2.627e-6
-1.064, -2.569e-6
-1.063, -2.630e-6
-1.062, -2.600e-6
-1.061, -2.611e-6
-1.060, -2.665e-6
-1.059, -2.646e-6
-1.058, -2.644e-6
-1.057, -2.669e-6
-1.056, -2.645e-6
-1.055, -2.701e-6
-1.054, -2.689e-6
-1.053, -2.686e-6
-1.052, -2.687e-6
-1.051, -2.710e-6
-1.050, -2.763e-6
-1.049, -2.768e-6
-1.048, -2.744e-6
-1.047, -2.806e-6
-1.046, -2.774e-6
-1.045, -2.820e-6
-1.044, -2.776e-6
-1.043, -2.820e-6
-1.042, -2.861e-6
-1.041, -2.848e-6
-1.040, -2.853e-6
-1.039, -2.825e-6
-1.038, -2.913e-6
-1.037, -2.864e-6
-1.036, -2.918e-6
-1.035, -2.901e-6
-1.034, -2.930e-6
-1.033, -2.931e-6
-1.032, -2.948e-6
-1.031, -2.973e-6
-1.030, -2.979e-6
-1.029, -2.987e-6
-1.028, -2.957e-6
-1.027, -3.024e-6
-1.026, -3.054e-6
-1.025, -3.062e-6
-1.024, -3.047e-6
-1.023, -3.058e-6
-1.022, -3.101e-6
-1.021, -3.142e-6
-1.020, -3.090e-6
-1.019, -3.109e-6
-1.018, -3.133e-6
-1.017, -3.121e-6
-1.016, -3.160e-6
-1.015, -3.182e-6
-1.014, -3.164e-6
-1.013, -3.206e-6
-1.012, -3.184e-6
-1.011, -3.290e-6
-1.010, -3.207e-6
-1.009, -3.254e-6
-1.008, -3.236e-6
-1.007, -3.257e-6
-1.006, -3.340e-6
-1.005, -3.267e-6
-1.004, -3.319e-6
-1.003, -3.290e-6
-1.002, -3.316e-6
-1.001, -3.400e-6
