Sept. 20, 2024   20:24:47
Cyclic Voltammetry
File: c:/users/guazh/data/20240903_batch_400_500/2024-09-20-exp402\exp402-2024-09-20t20_07_45-arkoh\exp402_cv_50mvs_efin_-1800mv.bin
Data Source:  Experiment
Instrument Model:  CHI760E
Header: CV ran at 50 mVs
Note: 

Init E (V) = -1
High E (V) = -1
Low E (V) = -1.8
Final E (V) = -1
Init P/N = N
Scan Rate (V/s) = 0.05
Segment = 7
Sample Interval (V) = 0.001
Quiet Time (sec) = 60
Sensitivity (A/V) = 0.001
Comp R (ohm) = 3.0

Results:

Channel 1:
Segment 1:

Segment 2:

Segment 3:

Segment 4:

Segment 5:

Segment 6:

Segment 7:

Potential/V, Current/A

-1.000, 7.506e-7
-1.001, 1.023e-6
-1.002, 1.018e-6
-1.003, 1.044e-6
-1.004, 1.063e-6
-1.005, 1.088e-6
-1.006, 1.126e-6
-1.007, 1.155e-6
-1.008, 1.130e-6
-1.009, 1.170e-6
-1.010, 1.158e-6
-1.011, 1.226e-6
-1.012, 1.242e-6
-1.013, 1.207e-6
-1.014, 1.216e-6
-1.015, 1.219e-6
-1.016, 1.265e-6
-1.017, 1.288e-6
-1.018, 1.278e-6
-1.019, 1.276e-6
-1.020, 1.278e-6
-1.021, 1.328e-6
-1.022, 1.333e-6
-1.023, 1.287e-6
-1.024, 1.312e-6
-1.025, 1.324e-6
-1.026, 1.408e-6
-1.027, 1.360e-6
-1.028, 1.350e-6
-1.029, 1.379e-6
-1.030, 1.354e-6
-1.031, 1.433e-6
-1.032, 1.418e-6
-1.033, 1.413e-6
-1.034, 1.394e-6
-1.035, 1.392e-6
-1.036, 1.483e-6
-1.037, 1.481e-6
-1.038, 1.450e-6
-1.039, 1.436e-6
-1.040, 1.420e-6
-1.041, 1.501e-6
-1.042, 1.536e-6
-1.043, 1.460e-6
-1.044, 1.461e-6
-1.045, 1.465e-6
-1.046, 1.541e-6
-1.047, 1.551e-6
-1.048, 1.518e-6
-1.049, 1.495e-6
-1.050, 1.491e-6
-1.051, 1.586e-6
-1.052, 1.581e-6
-1.053, 1.577e-6
-1.054, 1.545e-6
-1.055, 1.562e-6
-1.056, 1.644e-6
-1.057, 1.590e-6
-1.058, 1.639e-6
-1.059, 1.578e-6
-1.060, 1.551e-6
-1.061, 1.629e-6
-1.062, 1.640e-6
-1.063, 1.670e-6
-1.064, 1.585e-6
-1.065, 1.598e-6
-1.066, 1.683e-6
-1.067, 1.645e-6
-1.068, 1.660e-6
-1.069, 1.678e-6
-1.070, 1.636e-6
-1.071, 1.725e-6
-1.072, 1.736e-6
-1.073, 1.706e-6
-1.074, 1.680e-6
-1.075, 1.707e-6
-1.076, 1.757e-6
-1.077, 1.724e-6
-1.078, 1.729e-6
-1.079, 1.750e-6
-1.080, 1.742e-6
-1.081, 1.761e-6
-1.082, 1.804e-6
-1.083, 1.753e-6
-1.084, 1.763e-6
-1.085, 1.778e-6
-1.086, 1.754e-6
-1.087, 1.830e-6
-1.088, 1.803e-6
-1.089, 1.790e-6
-1.090, 1.779e-6
-1.091, 1.819e-6
-1.092, 1.865e-6
-1.093, 1.803e-6
-1.094, 1.835e-6
-1.095, 1.861e-6
-1.096, 1.851e-6
-1.097, 1.862e-6
-1.098, 1.880e-6
-1.099, 1.853e-6
-1.100, 1.873e-6
-1.101, 1.863e-6
-1.102, 1.903e-6
-1.103, 1.911e-6
-1.104, 1.866e-6
-1.105, 1.916e-6
-1.106, 1.912e-6
-1.107, 1.915e-6
-1.108, 1.912e-6
-1.109, 1.932e-6
-1.110, 1.923e-6
-1.111, 1.942e-6
-1.112, 1.964e-6
-1.113, 1.974e-6
-1.114, 1.963e-6
-1.115, 1.959e-6
-1.116, 1.979e-6
-1.117, 2.008e-6
-1.118, 1.987e-6
-1.119, 1.995e-6
-1.120, 1.979e-6
-1.121, 2.006e-6
-1.122, 2.041e-6
-1.123, 2.027e-6
-1.124, 1.987e-6
-1.125, 2.004e-6
-1.126, 2.041e-6
-1.127, 2.069e-6
-1.128, 2.067e-6
-1.129, 2.041e-6
-1.130, 2.084e-6
-1.131, 2.070e-6
-1.132, 2.101e-6
-1.133, 2.074e-6
-1.134, 2.058e-6
-1.135, 2.121e-6
-1.136, 2.101e-6
-1.137, 2.142e-6
-1.138, 2.144e-6
-1.139, 2.109e-6
-1.140, 2.141e-6
-1.141, 2.158e-6
-1.142, 2.189e-6
-1.143, 2.178e-6
-1.144, 2.152e-6
-1.145, 2.181e-6
-1.146, 2.176e-6
-1.147, 2.191e-6
-1.148, 2.221e-6
-1.149, 2.202e-6
-1.150, 2.228e-6
-1.151, 2.239e-6
-1.152, 2.237e-6
-1.153, 2.232e-6
-1.154, 2.232e-6
-1.155, 2.234e-6
-1.156, 2.265e-6
-1.157, 2.273e-6
-1.158, 2.259e-6
-1.159, 2.257e-6
-1.160, 2.271e-6
-1.161, 2.281e-6
-1.162, 2.354e-6
-1.163, 2.328e-6
-1.164, 2.303e-6
-1.165, 2.319e-6
-1.166, 2.339e-6
-1.167, 2.366e-6
-1.168, 2.342e-6
-1.169, 2.337e-6
-1.170, 2.349e-6
-1.171, 2.353e-6
-1.172, 2.378e-6
-1.173, 2.378e-6
-1.174, 2.353e-6
-1.175, 2.383e-6
-1.176, 2.385e-6
-1.177, 2.427e-6
-1.178, 2.403e-6
-1.179, 2.424e-6
-1.180, 2.438e-6
-1.181, 2.407e-6
-1.182, 2.493e-6
-1.183, 2.463e-6
-1.184, 2.454e-6
-1.185, 2.472e-6
-1.186, 2.466e-6
-1.187, 2.514e-6
-1.188, 2.484e-6
-1.189, 2.505e-6
-1.190, 2.515e-6
-1.191, 2.513e-6
-1.192, 2.548e-6
-1.193, 2.541e-6
-1.194, 2.525e-6
-1.195, 2.551e-6
-1.196, 2.540e-6
-1.197, 2.583e-6
-1.198, 2.580e-6
-1.199, 2.592e-6
-1.200, 2.601e-6
-1.201, 2.621e-6
-1.202, 2.670e-6
-1.203, 2.643e-6
-1.204, 2.623e-6
-1.205, 2.639e-6
-1.206, 2.665e-6
-1.207, 2.696e-6
-1.208, 2.682e-6
-1.209, 2.665e-6
-1.210, 2.659e-6
-1.211, 2.709e-6
-1.212, 2.709e-6
-1.213, 2.715e-6
-1.214, 2.740e-6
-1.215, 2.735e-6
-1.216, 2.768e-6
-1.217, 2.807e-6
-1.218, 2.766e-6
-1.219, 2.793e-6
-1.220, 2.773e-6
-1.221, 2.809e-6
-1.222, 2.861e-6
-1.223, 2.817e-6
-1.224, 2.828e-6
-1.225, 2.808e-6
-1.226, 2.841e-6
-1.227, 2.915e-6
-1.228, 2.878e-6
-1.229, 2.908e-6
-1.230, 2.903e-6
-1.231, 2.931e-6
-1.232, 2.969e-6
-1.233, 2.982e-6
-1.234, 2.974e-6
-1.235, 2.970e-6
-1.236, 2.993e-6
-1.237, 3.023e-6
-1.238, 3.015e-6
-1.239, 3.022e-6
-1.240, 2.999e-6
-1.241, 3.037e-6
-1.242, 3.109e-6
-1.243, 3.084e-6
-1.244, 3.095e-6
-1.245, 3.102e-6
-1.246, 3.073e-6
-1.247, 3.135e-6
-1.248, 3.144e-6
-1.249, 3.127e-6
-1.250, 3.173e-6
-1.251, 3.210e-6
-1.252, 3.205e-6
-1.253, 3.245e-6
-1.254, 3.204e-6
-1.255, 3.233e-6
-1.256, 3.260e-6
-1.257, 3.302e-6
-1.258, 3.323e-6
-1.259, 3.286e-6
-1.260, 3.292e-6
-1.261, 3.322e-6
-1.262, 3.343e-6
-1.263, 3.401e-6
-1.264, 3.346e-6
-1.265, 3.376e-6
-1.266, 3.393e-6
-1.267, 3.430e-6
-1.268, 3.473e-6
-1.269, 3.440e-6
-1.270, 3.459e-6
-1.271, 3.523e-6
-1.272, 3.533e-6
-1.273, 3.555e-6
-1.274, 3.556e-6
-1.275, 3.536e-6
-1.276, 3.587e-6
-1.277, 3.638e-6
-1.278, 3.631e-6
-1.279, 3.623e-6
-1.280, 3.603e-6
-1.281, 3.722e-6
-1.282, 3.726e-6
-1.283, 3.705e-6
-1.284, 3.712e-6
-1.285, 3.722e-6
-1.286, 3.776e-6
-1.287, 3.804e-6
-1.288, 3.852e-6
-1.289, 3.792e-6
-1.290, 3.855e-6
-1.291, 3.893e-6
-1.292, 3.896e-6
-1.293, 3.937e-6
-1.294, 3.935e-6
-1.295, 3.920e-6
-1.296, 3.974e-6
-1.297, 3.977e-6
-1.298, 4.029e-6
-1.299, 4.034e-6
-1.300, 4.057e-6
-1.301, 4.119e-6
-1.302, 4.112e-6
-1.303, 4.152e-6
-1.304, 4.133e-6
-1.305, 4.173e-6
-1.306, 4.231e-6
-1.307, 4.213e-6
-1.308, 4.291e-6
-1.309, 4.294e-6
-1.310, 4.282e-6
-1.311, 4.352e-6
-1.312, 4.355e-6
-1.313, 4.415e-6
-1.314, 4.391e-6
-1.315, 4.449e-6
-1.316, 4.488e-6
-1.317, 4.516e-6
-1.318, 4.516e-6
-1.319, 4.579e-6
-1.320, 4.585e-6
-1.321, 4.648e-6
-1.322, 4.682e-6
-1.323, 4.735e-6
-1.324, 4.681e-6
-1.325, 4.730e-6
-1.326, 4.814e-6
-1.327, 4.811e-6
-1.328, 4.857e-6
-1.329, 4.852e-6
-1.330, 4.909e-6
-1.331, 4.941e-6
-1.332, 4.991e-6
-1.333, 5.050e-6
-1.334, 5.102e-6
-1.335, 5.090e-6
-1.336, 5.138e-6
-1.337, 5.173e-6
-1.338, 5.280e-6
-1.339, 5.271e-6
-1.340, 5.294e-6
-1.341, 5.335e-6
-1.342, 5.392e-6
-1.343, 5.455e-6
-1.344, 5.456e-6
-1.345, 5.505e-6
-1.346, 5.580e-6
-1.347, 5.628e-6
-1.348, 5.617e-6
-1.349, 5.676e-6
-1.350, 5.740e-6
-1.351, 5.791e-6
-1.352, 5.867e-6
-1.353, 5.908e-6
-1.354, 5.946e-6
-1.355, 5.960e-6
-1.356, 5.982e-6
-1.357, 6.113e-6
-1.358, 6.157e-6
-1.359, 6.184e-6
-1.360, 6.231e-6
-1.361, 6.279e-6
-1.362, 6.395e-6
-1.363, 6.439e-6
-1.364, 6.489e-6
-1.365, 6.523e-6
-1.366, 6.596e-6
-1.367, 6.648e-6
-1.368, 6.727e-6
-1.369, 6.753e-6
-1.370, 6.822e-6
-1.371, 6.903e-6
-1.372, 6.947e-6
-1.373, 7.088e-6
-1.374, 7.103e-6
-1.375, 7.146e-6
-1.376, 7.277e-6
-1.377, 7.314e-6
-1.378, 7.402e-6
-1.379, 7.444e-6
-1.380, 7.514e-6
-1.381, 7.593e-6
-1.382, 7.669e-6
-1.383, 7.752e-6
-1.384, 7.801e-6
-1.385, 7.896e-6
-1.386, 8.021e-6
-1.387, 8.075e-6
-1.388, 8.156e-6
-1.389, 8.238e-6
-1.390, 8.316e-6
-1.391, 8.460e-6
-1.392, 8.540e-6
-1.393, 8.607e-6
-1.394, 8.725e-6
-1.395, 8.764e-6
-1.396, 8.905e-6
-1.397, 9.027e-6
-1.398, 9.087e-6
-1.399, 9.242e-6
-1.400, 9.281e-6
-1.401, 9.422e-6
-1.402, 9.577e-6
-1.403, 9.629e-6
-1.404, 9.728e-6
-1.405, 9.837e-6
-1.406, 9.980e-6
-1.407, 1.012e-5
-1.408, 1.021e-5
-1.409, 1.032e-5
-1.410, 1.046e-5
-1.411, 1.057e-5
-1.412, 1.078e-5
-1.413, 1.090e-5
-1.414, 1.101e-5
-1.415, 1.113e-5
-1.416, 1.131e-5
-1.417, 1.145e-5
-1.418, 1.162e-5
-1.419, 1.172e-5
-1.420, 1.183e-5
-1.421, 1.205e-5
-1.422, 1.224e-5
-1.423, 1.241e-5
-1.424, 1.252e-5
-1.425, 1.268e-5
-1.426, 1.290e-5
-1.427, 1.304e-5
-1.428, 1.325e-5
-1.429, 1.346e-5
-1.430, 1.358e-5
-1.431, 1.385e-5
-1.432, 1.401e-5
-1.433, 1.421e-5
-1.434, 1.445e-5
-1.435, 1.461e-5
-1.436, 1.489e-5
-1.437, 1.510e-5
-1.438, 1.530e-5
-1.439, 1.555e-5
-1.440, 1.573e-5
-1.441, 1.601e-5
-1.442, 1.629e-5
-1.443, 1.651e-5
-1.444, 1.676e-5
-1.445, 1.701e-5
-1.446, 1.730e-5
-1.447, 1.759e-5
-1.448, 1.786e-5
-1.449, 1.813e-5
-1.450, 1.842e-5
-1.451, 1.874e-5
-1.452, 1.904e-5
-1.453, 1.934e-5
-1.454, 1.963e-5
-1.455, 2.000e-5
-1.456, 2.035e-5
-1.457, 2.070e-5
-1.458, 2.102e-5
-1.459, 2.136e-5
-1.460, 2.171e-5
-1.461, 2.215e-5
-1.462, 2.252e-5
-1.463, 2.295e-5
-1.464, 2.331e-5
-1.465, 2.369e-5
-1.466, 2.420e-5
-1.467, 2.461e-5
-1.468, 2.504e-5
-1.469, 2.556e-5
-1.470, 2.593e-5
-1.471, 2.649e-5
-1.472, 2.694e-5
-1.473, 2.748e-5
-1.474, 2.799e-5
-1.475, 2.848e-5
-1.476, 2.906e-5
-1.477, 2.962e-5
-1.478, 3.016e-5
-1.479, 3.078e-5
-1.480, 3.128e-5
-1.481, 3.197e-5
-1.482, 3.261e-5
-1.483, 3.322e-5
-1.484, 3.391e-5
-1.485, 3.453e-5
-1.486, 3.526e-5
-1.487, 3.597e-5
-1.488, 3.665e-5
-1.489, 3.742e-5
-1.490, 3.810e-5
-1.491, 3.890e-5
-1.492, 3.965e-5
-1.493, 4.044e-5
-1.494, 4.125e-5
-1.495, 4.199e-5
-1.496, 4.284e-5
-1.497, 4.364e-5
-1.498, 4.452e-5
-1.499, 4.535e-5
-1.500, 4.611e-5
-1.501, 4.704e-5
-1.502, 4.791e-5
-1.503, 4.883e-5
-1.504, 4.969e-5
-1.505, 5.055e-5
-1.506, 5.152e-5
-1.507, 5.241e-5
-1.508, 5.340e-5
-1.509, 5.433e-5
-1.510, 5.533e-5
-1.511, 5.641e-5
-1.512, 5.739e-5
-1.513, 5.846e-5
-1.514, 5.956e-5
-1.515, 6.057e-5
-1.516, 6.174e-5
-1.517, 6.291e-5
-1.518, 6.408e-5
-1.519, 6.531e-5
-1.520, 6.651e-5
-1.521, 6.787e-5
-1.522, 6.913e-5
-1.523, 7.048e-5
-1.524, 7.189e-5
-1.525, 7.325e-5
-1.526, 7.472e-5
-1.527, 7.619e-5
-1.528, 7.769e-5
-1.529, 7.931e-5
-1.530, 8.081e-5
-1.531, 8.249e-5
-1.532, 8.415e-5
-1.533, 8.584e-5
-1.534, 8.758e-5
-1.535, 8.933e-5
-1.536, 9.120e-5
-1.537, 9.309e-5
-1.538, 9.500e-5
-1.539, 9.696e-5
-1.540, 9.888e-5
-1.541, 1.010e-4
-1.542, 1.030e-4
-1.543, 1.052e-4
-1.544, 1.073e-4
-1.545, 1.095e-4
-1.546, 1.118e-4
-1.547, 1.141e-4
-1.548, 1.165e-4
-1.549, 1.190e-4
-1.550, 1.214e-4
-1.551, 1.240e-4
-1.552, 1.266e-4
-1.553, 1.292e-4
-1.554, 1.319e-4
-1.555, 1.347e-4
-1.556, 1.376e-4
-1.557, 1.404e-4
-1.558, 1.434e-4
-1.559, 1.465e-4
-1.560, 1.495e-4
-1.561, 1.527e-4
-1.562, 1.559e-4
-1.563, 1.592e-4
-1.564, 1.626e-4
-1.565, 1.661e-4
-1.566, 1.696e-4
-1.567, 1.732e-4
-1.568, 1.769e-4
-1.569, 1.807e-4
-1.570, 1.846e-4
-1.571, 1.884e-4
-1.572, 1.925e-4
-1.573, 1.966e-4
-1.574, 2.008e-4
-1.575, 2.051e-4
-1.576, 2.095e-4
-1.577, 2.140e-4
-1.578, 2.186e-4
-1.579, 2.231e-4
-1.580, 2.279e-4
-1.581, 2.328e-4
-1.582, 2.377e-4
-1.583, 2.428e-4
-1.584, 2.480e-4
-1.585, 2.533e-4
-1.586, 2.587e-4
-1.587, 2.643e-4
-1.588, 2.699e-4
-1.589, 2.757e-4
-1.590, 2.816e-4
-1.591, 2.876e-4
-1.592, 2.937e-4
-1.593, 3.000e-4
-1.594, 3.065e-4
-1.595, 3.128e-4
-1.596, 3.194e-4
-1.597, 3.263e-4
-1.598, 3.334e-4
-1.599, 3.404e-4
-1.600, 3.475e-4
-1.601, 3.551e-4
-1.602, 3.626e-4
-1.603, 3.704e-4
-1.604, 3.782e-4
-1.605, 3.859e-4
-1.606, 3.942e-4
-1.607, 4.027e-4
-1.608, 4.113e-4
-1.609, 4.199e-4
-1.610, 4.287e-4
-1.611, 4.378e-4
-1.612, 4.470e-4
-1.613, 4.564e-4
-1.614, 4.660e-4
-1.615, 4.759e-4
-1.616, 4.858e-4
-1.617, 4.959e-4
-1.618, 5.065e-4
-1.619, 5.171e-4
-1.620, 5.281e-4
-1.621, 5.391e-4
-1.622, 5.503e-4
-1.623, 5.616e-4
-1.624, 5.734e-4
-1.625, 5.856e-4
-1.626, 5.975e-4
-1.627, 6.097e-4
-1.628, 6.222e-4
-1.629, 6.350e-4
-1.630, 6.480e-4
-1.631, 6.616e-4
-1.632, 6.750e-4
-1.633, 6.884e-4
-1.634, 7.020e-4
-1.635, 7.164e-4
-1.636, 7.313e-4
-1.637, 7.461e-4
-1.638, 7.617e-4
-1.639, 7.773e-4
-1.640, 7.927e-4
-1.641, 8.087e-4
-1.642, 8.256e-4
-1.643, 8.427e-4
-1.644, 8.593e-4
-1.645, 8.754e-4
-1.646, 8.919e-4
-1.647, 9.088e-4
-1.648, 9.265e-4
-1.649, 9.447e-4
-1.650, 9.636e-4
-1.651, 9.819e-4
-1.652, 1.001e-3
-1.653, 1.022e-3
-1.654, 1.042e-3
-1.655, 1.061e-3
-1.656, 1.079e-3
-1.657, 1.099e-3
-1.658, 1.120e-3
-1.659, 1.140e-3
-1.660, 1.160e-3
-1.661, 1.181e-3
-1.662, 1.204e-3
-1.663, 1.226e-3
-1.664, 1.250e-3
-1.665, 1.273e-3
-1.666, 1.294e-3
-1.667, 1.318e-3
-1.668, 1.343e-3
-1.669, 1.365e-3
-1.670, 1.389e-3
-1.671, 1.414e-3
-1.672, 1.440e-3
-1.673, 1.466e-3
-1.674, 1.492e-3
-1.675, 1.517e-3
-1.676, 1.546e-3
-1.677, 1.575e-3
-1.678, 1.600e-3
-1.679, 1.627e-3
-1.680, 1.655e-3
-1.681, 1.683e-3
-1.682, 1.710e-3
-1.683, 1.739e-3
-1.684, 1.769e-3
-1.685, 1.796e-3
-1.686, 1.827e-3
-1.687, 1.858e-3
-1.688, 1.889e-3
-1.689, 1.920e-3
-1.690, 1.953e-3
-1.691, 1.983e-3
-1.692, 2.016e-3
-1.693, 2.049e-3
-1.694, 2.076e-3
-1.695, 2.111e-3
-1.696, 2.144e-3
-1.697, 2.179e-3
-1.698, 2.213e-3
-1.699, 2.245e-3
-1.700, 2.281e-3
-1.701, 2.317e-3
-1.702, 2.354e-3
-1.703, 2.392e-3
-1.704, 2.426e-3
-1.705, 2.464e-3
-1.706, 2.503e-3
-1.707, 2.538e-3
-1.708, 2.575e-3
-1.709, 2.611e-3
-1.710, 2.650e-3
-1.711, 2.689e-3
-1.712, 2.733e-3
-1.713, 2.771e-3
-1.714, 2.810e-3
-1.715, 2.856e-3
-1.716, 2.894e-3
-1.717, 2.928e-3
-1.718, 2.966e-3
-1.719, 3.004e-3
-1.720, 3.046e-3
-1.721, 3.082e-3
-1.722, 3.119e-3
-1.723, 3.163e-3
-1.724, 3.212e-3
-1.725, 3.262e-3
-1.726, 3.309e-3
-1.727, 3.357e-3
-1.728, 3.406e-3
-1.729, 3.454e-3
-1.730, 3.499e-3
-1.731, 3.551e-3
-1.732, 3.599e-3
-1.733, 3.638e-3
-1.734, 3.669e-3
-1.735, 3.720e-3
-1.736, 3.764e-3
-1.737, 3.816e-3
-1.738, 3.867e-3
-1.739, 3.919e-3
-1.740, 3.971e-3
-1.741, 4.022e-3
-1.742, 4.084e-3
-1.743, 4.148e-3
-1.744, 4.207e-3
-1.745, 4.240e-3
-1.746, 4.272e-3
-1.747, 4.322e-3
-1.748, 4.384e-3
-1.749, 4.423e-3
-1.750, 4.468e-3
-1.751, 4.531e-3
-1.752, 4.587e-3
-1.753, 4.642e-3
-1.754, 4.684e-3
-1.755, 4.711e-3
-1.756, 4.769e-3
-1.757, 4.847e-3
-1.758, 4.899e-3
-1.759, 4.946e-3
-1.760, 5.017e-3
-1.761, 5.078e-3
-1.762, 5.128e-3
-1.763, 5.174e-3
-1.764, 5.231e-3
-1.765, 5.292e-3
-1.766, 5.349e-3
-1.767, 5.406e-3
-1.768, 5.464e-3
-1.769, 5.536e-3
-1.770, 5.582e-3
-1.771, 5.639e-3
-1.772, 5.700e-3
-1.773, 5.754e-3
-1.774, 5.798e-3
-1.775, 5.870e-3
-1.776, 5.937e-3
-1.777, 6.008e-3
-1.778, 6.072e-3
-1.779, 6.118e-3
-1.780, 6.171e-3
-1.781, 6.223e-3
-1.782, 6.256e-3
-1.783, 6.301e-3
-1.784, 6.351e-3
-1.785, 6.413e-3
-1.786, 6.494e-3
-1.787, 6.557e-3
-1.788, 6.633e-3
-1.789, 6.712e-3
-1.790, 6.776e-3
-1.791, 6.839e-3
-1.792, 6.928e-3
-1.793, 7.004e-3
-1.794, 7.057e-3
-1.795, 7.122e-3
-1.796, 7.170e-3
-1.797, 7.225e-3
-1.798, 7.283e-3
-1.799, 7.342e-3
-1.800, 7.366e-3
-1.799, 7.318e-3
-1.798, 7.267e-3
-1.797, 7.238e-3
-1.796, 7.187e-3
-1.795, 7.121e-3
-1.794, 7.063e-3
-1.793, 6.990e-3
-1.792, 6.935e-3
-1.791, 6.858e-3
-1.790, 6.785e-3
-1.789, 6.726e-3
-1.788, 6.689e-3
-1.787, 6.639e-3
-1.786, 6.581e-3
-1.785, 6.546e-3
-1.784, 6.505e-3
-1.783, 6.453e-3
-1.782, 6.414e-3
-1.781, 6.364e-3
-1.780, 6.307e-3
-1.779, 6.222e-3
-1.778, 6.166e-3
-1.777, 6.121e-3
-1.776, 6.054e-3
-1.775, 6.015e-3
-1.774, 5.968e-3
-1.773, 5.912e-3
-1.772, 5.871e-3
-1.771, 5.817e-3
-1.770, 5.757e-3
-1.769, 5.710e-3
-1.768, 5.697e-3
-1.767, 5.645e-3
-1.766, 5.577e-3
-1.765, 5.508e-3
-1.764, 5.457e-3
-1.763, 5.405e-3
-1.762, 5.354e-3
-1.761, 5.316e-3
-1.760, 5.261e-3
-1.759, 5.214e-3
-1.758, 5.170e-3
-1.757, 5.122e-3
-1.756, 5.075e-3
-1.755, 5.029e-3
-1.754, 4.987e-3
-1.753, 4.939e-3
-1.752, 4.892e-3
-1.751, 4.838e-3
-1.750, 4.794e-3
-1.749, 4.759e-3
-1.748, 4.701e-3
-1.747, 4.663e-3
-1.746, 4.637e-3
-1.745, 4.590e-3
-1.744, 4.547e-3
-1.743, 4.499e-3
-1.742, 4.449e-3
-1.741, 4.403e-3
-1.740, 4.364e-3
-1.739, 4.324e-3
-1.738, 4.288e-3
-1.737, 4.243e-3
-1.736, 4.202e-3
-1.735, 4.164e-3
-1.734, 4.124e-3
-1.733, 4.072e-3
-1.732, 4.034e-3
-1.731, 4.009e-3
-1.730, 3.965e-3
-1.729, 3.922e-3
-1.728, 3.879e-3
-1.727, 3.842e-3
-1.726, 3.804e-3
-1.725, 3.770e-3
-1.724, 3.729e-3
-1.723, 3.687e-3
-1.722, 3.659e-3
-1.721, 3.661e-3
-1.720, 3.628e-3
-1.719, 3.593e-3
-1.718, 3.560e-3
-1.717, 3.520e-3
-1.716, 3.481e-3
-1.715, 3.441e-3
-1.714, 3.396e-3
-1.713, 3.369e-3
-1.712, 3.328e-3
-1.711, 3.294e-3
-1.710, 3.255e-3
-1.709, 3.222e-3
-1.708, 3.190e-3
-1.707, 3.156e-3
-1.706, 3.121e-3
-1.705, 3.090e-3
-1.704, 3.052e-3
-1.703, 3.021e-3
-1.702, 2.989e-3
-1.701, 2.956e-3
-1.700, 2.921e-3
-1.699, 2.886e-3
-1.698, 2.854e-3
-1.697, 2.821e-3
-1.696, 2.791e-3
-1.695, 2.756e-3
-1.694, 2.726e-3
-1.693, 2.696e-3
-1.692, 2.668e-3
-1.691, 2.640e-3
-1.690, 2.611e-3
-1.689, 2.580e-3
-1.688, 2.544e-3
-1.687, 2.505e-3
-1.686, 2.475e-3
-1.685, 2.443e-3
-1.684, 2.412e-3
-1.683, 2.382e-3
-1.682, 2.358e-3
-1.681, 2.329e-3
-1.680, 2.301e-3
-1.679, 2.274e-3
-1.678, 2.247e-3
-1.677, 2.218e-3
-1.676, 2.188e-3
-1.675, 2.162e-3
-1.674, 2.135e-3
-1.673, 2.104e-3
-1.672, 2.081e-3
-1.671, 2.058e-3
-1.670, 2.033e-3
-1.669, 2.005e-3
-1.668, 1.982e-3
-1.667, 1.954e-3
-1.666, 1.927e-3
-1.665, 1.901e-3
-1.664, 1.875e-3
-1.663, 1.851e-3
-1.662, 1.826e-3
-1.661, 1.799e-3
-1.660, 1.776e-3
-1.659, 1.752e-3
-1.658, 1.729e-3
-1.657, 1.707e-3
-1.656, 1.683e-3
-1.655, 1.662e-3
-1.654, 1.641e-3
-1.653, 1.619e-3
-1.652, 1.596e-3
-1.651, 1.574e-3
-1.650, 1.550e-3
-1.649, 1.528e-3
-1.648, 1.507e-3
-1.647, 1.486e-3
-1.646, 1.466e-3
-1.645, 1.447e-3
-1.644, 1.426e-3
-1.643, 1.406e-3
-1.642, 1.386e-3
-1.641, 1.366e-3
-1.640, 1.347e-3
-1.639, 1.327e-3
-1.638, 1.307e-3
-1.637, 1.289e-3
-1.636, 1.269e-3
-1.635, 1.248e-3
-1.634, 1.230e-3
-1.633, 1.213e-3
-1.632, 1.196e-3
-1.631, 1.179e-3
-1.630, 1.160e-3
-1.629, 1.141e-3
-1.628, 1.124e-3
-1.627, 1.108e-3
-1.626, 1.091e-3
-1.625, 1.074e-3
-1.624, 1.058e-3
-1.623, 1.042e-3
-1.622, 1.027e-3
-1.621, 1.010e-3
-1.620, 9.939e-4
-1.619, 9.786e-4
-1.618, 9.640e-4
-1.617, 9.486e-4
-1.616, 9.343e-4
-1.615, 9.195e-4
-1.614, 9.033e-4
-1.613, 8.898e-4
-1.612, 8.762e-4
-1.611, 8.625e-4
-1.610, 8.482e-4
-1.609, 8.342e-4
-1.608, 8.205e-4
-1.607, 8.067e-4
-1.606, 7.942e-4
-1.605, 7.812e-4
-1.604, 7.683e-4
-1.603, 7.560e-4
-1.602, 7.436e-4
-1.601, 7.310e-4
-1.600, 7.189e-4
-1.599, 7.070e-4
-1.598, 6.949e-4
-1.597, 6.830e-4
-1.596, 6.719e-4
-1.595, 6.607e-4
-1.594, 6.497e-4
-1.593, 6.385e-4
-1.592, 6.275e-4
-1.591, 6.166e-4
-1.590, 6.058e-4
-1.589, 5.955e-4
-1.588, 5.856e-4
-1.587, 5.756e-4
-1.586, 5.654e-4
-1.585, 5.555e-4
-1.584, 5.457e-4
-1.583, 5.361e-4
-1.582, 5.266e-4
-1.581, 5.173e-4
-1.580, 5.083e-4
-1.579, 4.991e-4
-1.578, 4.903e-4
-1.577, 4.817e-4
-1.576, 4.730e-4
-1.575, 4.644e-4
-1.574, 4.558e-4
-1.573, 4.474e-4
-1.572, 4.394e-4
-1.571, 4.315e-4
-1.570, 4.237e-4
-1.569, 4.161e-4
-1.568, 4.085e-4
-1.567, 4.012e-4
-1.566, 3.938e-4
-1.565, 3.865e-4
-1.564, 3.794e-4
-1.563, 3.724e-4
-1.562, 3.655e-4
-1.561, 3.586e-4
-1.560, 3.519e-4
-1.559, 3.454e-4
-1.558, 3.389e-4
-1.557, 3.326e-4
-1.556, 3.265e-4
-1.555, 3.204e-4
-1.554, 3.143e-4
-1.553, 3.083e-4
-1.552, 3.025e-4
-1.551, 2.967e-4
-1.550, 2.909e-4
-1.549, 2.855e-4
-1.548, 2.801e-4
-1.547, 2.748e-4
-1.546, 2.695e-4
-1.545, 2.644e-4
-1.544, 2.591e-4
-1.543, 2.541e-4
-1.542, 2.492e-4
-1.541, 2.444e-4
-1.540, 2.396e-4
-1.539, 2.348e-4
-1.538, 2.303e-4
-1.537, 2.258e-4
-1.536, 2.216e-4
-1.535, 2.172e-4
-1.534, 2.130e-4
-1.533, 2.088e-4
-1.532, 2.047e-4
-1.531, 2.008e-4
-1.530, 1.966e-4
-1.529, 1.928e-4
-1.528, 1.891e-4
-1.527, 1.853e-4
-1.526, 1.817e-4
-1.525, 1.780e-4
-1.524, 1.745e-4
-1.523, 1.710e-4
-1.522, 1.676e-4
-1.521, 1.643e-4
-1.520, 1.609e-4
-1.519, 1.577e-4
-1.518, 1.546e-4
-1.517, 1.515e-4
-1.516, 1.485e-4
-1.515, 1.455e-4
-1.514, 1.426e-4
-1.513, 1.397e-4
-1.512, 1.370e-4
-1.511, 1.342e-4
-1.510, 1.314e-4
-1.509, 1.288e-4
-1.508, 1.263e-4
-1.507, 1.237e-4
-1.506, 1.212e-4
-1.505, 1.187e-4
-1.504, 1.163e-4
-1.503, 1.140e-4
-1.502, 1.117e-4
-1.501, 1.094e-4
-1.500, 1.072e-4
-1.499, 1.050e-4
-1.498, 1.029e-4
-1.497, 1.008e-4
-1.496, 9.876e-5
-1.495, 9.672e-5
-1.494, 9.475e-5
-1.493, 9.287e-5
-1.492, 9.097e-5
-1.491, 8.909e-5
-1.490, 8.728e-5
-1.489, 8.551e-5
-1.488, 8.377e-5
-1.487, 8.201e-5
-1.486, 8.034e-5
-1.485, 7.862e-5
-1.484, 7.704e-5
-1.483, 7.549e-5
-1.482, 7.395e-5
-1.481, 7.235e-5
-1.480, 7.089e-5
-1.479, 6.945e-5
-1.478, 6.798e-5
-1.477, 6.664e-5
-1.476, 6.527e-5
-1.475, 6.389e-5
-1.474, 6.262e-5
-1.473, 6.128e-5
-1.472, 6.006e-5
-1.471, 5.878e-5
-1.470, 5.750e-5
-1.469, 5.636e-5
-1.468, 5.520e-5
-1.467, 5.406e-5
-1.466, 5.292e-5
-1.465, 5.179e-5
-1.464, 5.078e-5
-1.463, 4.970e-5
-1.462, 4.865e-5
-1.461, 4.764e-5
-1.460, 4.661e-5
-1.459, 4.565e-5
-1.458, 4.468e-5
-1.457, 4.376e-5
-1.456, 4.286e-5
-1.455, 4.193e-5
-1.454, 4.107e-5
-1.453, 4.021e-5
-1.452, 3.936e-5
-1.451, 3.852e-5
-1.450, 3.771e-5
-1.449, 3.694e-5
-1.448, 3.614e-5
-1.447, 3.540e-5
-1.446, 3.462e-5
-1.445, 3.384e-5
-1.444, 3.319e-5
-1.443, 3.244e-5
-1.442, 3.182e-5
-1.441, 3.110e-5
-1.440, 3.041e-5
-1.439, 2.982e-5
-1.438, 2.913e-5
-1.437, 2.854e-5
-1.436, 2.790e-5
-1.435, 2.726e-5
-1.434, 2.675e-5
-1.433, 2.618e-5
-1.432, 2.566e-5
-1.431, 2.505e-5
-1.430, 2.444e-5
-1.429, 2.394e-5
-1.428, 2.340e-5
-1.427, 2.294e-5
-1.426, 2.240e-5
-1.425, 2.189e-5
-1.424, 2.146e-5
-1.423, 2.097e-5
-1.422, 2.051e-5
-1.421, 2.003e-5
-1.420, 1.959e-5
-1.419, 1.921e-5
-1.418, 1.880e-5
-1.417, 1.840e-5
-1.416, 1.795e-5
-1.415, 1.748e-5
-1.414, 1.715e-5
-1.413, 1.673e-5
-1.412, 1.638e-5
-1.411, 1.601e-5
-1.410, 1.559e-5
-1.409, 1.528e-5
-1.408, 1.490e-5
-1.407, 1.461e-5
-1.406, 1.422e-5
-1.405, 1.389e-5
-1.404, 1.363e-5
-1.403, 1.326e-5
-1.402, 1.302e-5
-1.401, 1.266e-5
-1.400, 1.235e-5
-1.399, 1.211e-5
-1.398, 1.178e-5
-1.397, 1.159e-5
-1.396, 1.125e-5
-1.395, 1.095e-5
-1.394, 1.068e-5
-1.393, 1.045e-5
-1.392, 1.023e-5
-1.391, 9.953e-6
-1.390, 9.696e-6
-1.389, 9.484e-6
-1.388, 9.264e-6
-1.387, 9.057e-6
-1.386, 8.799e-6
-1.385, 8.539e-6
-1.384, 8.335e-6
-1.383, 8.100e-6
-1.382, 7.926e-6
-1.381, 7.748e-6
-1.380, 7.544e-6
-1.379, 7.379e-6
-1.378, 7.187e-6
-1.377, 6.999e-6
-1.376, 6.877e-6
-1.375, 6.645e-6
-1.374, 6.485e-6
-1.373, 6.313e-6
-1.372, 6.125e-6
-1.371, 5.940e-6
-1.370, 5.766e-6
-1.369, 5.623e-6
-1.368, 5.474e-6
-1.367, 5.378e-6
-1.366, 5.163e-6
-1.365, 5.032e-6
-1.364, 4.905e-6
-1.363, 4.733e-6
-1.362, 4.606e-6
-1.361, 4.454e-6
-1.360, 4.335e-6
-1.359, 4.213e-6
-1.358, 4.048e-6
-1.357, 4.010e-6
-1.356, 3.808e-6
-1.355, 3.722e-6
-1.354, 3.592e-6
-1.353, 3.447e-6
-1.352, 3.407e-6
-1.351, 3.236e-6
-1.350, 3.130e-6
-1.349, 3.019e-6
-1.348, 2.931e-6
-1.347, 2.867e-6
-1.346, 2.724e-6
-1.345, 2.677e-6
-1.344, 2.529e-6
-1.343, 2.478e-6
-1.342, 2.408e-6
-1.341, 2.286e-6
-1.340, 2.173e-6
-1.339, 2.071e-6
-1.338, 2.035e-6
-1.337, 1.957e-6
-1.336, 1.884e-6
-1.335, 1.773e-6
-1.334, 1.696e-6
-1.333, 1.656e-6
-1.332, 1.570e-6
-1.331, 1.467e-6
-1.330, 1.387e-6
-1.329, 1.345e-6
-1.328, 1.284e-6
-1.327, 1.231e-6
-1.326, 1.118e-6
-1.325, 1.053e-6
-1.324, 1.023e-6
-1.323, 9.282e-7
-1.322, 8.956e-7
-1.321, 8.256e-7
-1.320, 7.763e-7
-1.319, 6.993e-7
-1.318, 6.095e-7
-1.317, 5.997e-7
-1.316, 5.227e-7
-1.315, 4.734e-7
-1.314, 4.990e-7
-1.313, 3.796e-7
-1.312, 4.260e-7
-1.311, 3.352e-7
-1.310, 3.037e-7
-1.309, 1.981e-7
-1.308, 1.498e-7
-1.307, 1.360e-7
-1.306, 5.308e-8
-1.305, 5.703e-8
-1.304, 4.736e-9
-1.303, -3.374e-8
-1.302, -1.067e-7
-1.301, -1.452e-7
-1.300, -1.413e-7
-1.299, -2.834e-7
-1.298, -2.232e-7
-1.297, -3.100e-7
-1.296, -3.376e-7
-1.295, -3.573e-7
-1.294, -3.948e-7
-1.293, -3.978e-7
-1.292, -4.382e-7
-1.291, -4.935e-7
-1.290, -5.034e-7
-1.289, -5.616e-7
-1.288, -5.714e-7
-1.287, -6.543e-7
-1.286, -6.405e-7
-1.285, -7.125e-7
-1.284, -6.859e-7
-1.283, -7.589e-7
-1.282, -7.461e-7
-1.281, -7.737e-7
-1.280, -8.526e-7
-1.279, -8.339e-7
-1.278, -8.368e-7
-1.277, -8.684e-7
-1.276, -8.822e-7
-1.275, -9.552e-7
-1.274, -9.493e-7
-1.273, -1.002e-6
-1.272, -9.661e-7
-1.271, -9.848e-7
-1.270, -1.062e-6
-1.269, -1.050e-6
-1.268, -1.080e-6
-1.267, -1.080e-6
-1.266, -1.107e-6
-1.265, -1.153e-6
-1.264, -1.163e-6
-1.263, -1.172e-6
-1.262, -1.186e-6
-1.261, -1.197e-6
-1.260, -1.202e-6
-1.259, -1.251e-6
-1.258, -1.251e-6
-1.257, -1.287e-6
-1.256, -1.293e-6
-1.255, -1.267e-6
-1.254, -1.319e-6
-1.253, -1.331e-6
-1.252, -1.323e-6
-1.251, -1.366e-6
-1.250, -1.366e-6
-1.249, -1.355e-6
-1.248, -1.407e-6
-1.247, -1.384e-6
-1.246, -1.445e-6
-1.245, -1.436e-6
-1.244, -1.451e-6
-1.243, -1.472e-6
-1.242, -1.482e-6
-1.241, -1.553e-6
-1.240, -1.448e-6
-1.239, -1.513e-6
-1.238, -1.542e-6
-1.237, -1.537e-6
-1.236, -1.529e-6
-1.235, -1.567e-6
-1.234, -1.596e-6
-1.233, -1.575e-6
-1.232, -1.592e-6
-1.231, -1.602e-6
-1.230, -1.622e-6
-1.229, -1.689e-6
-1.228, -1.633e-6
-1.227, -1.682e-6
-1.226, -1.650e-6
-1.225, -1.653e-6
-1.224, -1.710e-6
-1.223, -1.679e-6
-1.222, -1.752e-6
-1.221, -1.730e-6
-1.220, -1.726e-6
-1.219, -1.787e-6
-1.218, -1.745e-6
-1.217, -1.797e-6
-1.216, -1.753e-6
-1.215, -1.845e-6
-1.214, -1.832e-6
-1.213, -1.829e-6
-1.212, -1.874e-6
-1.211, -1.843e-6
-1.210, -1.892e-6
-1.209, -1.854e-6
-1.208, -1.834e-6
-1.207, -1.889e-6
-1.206, -1.904e-6
-1.205, -1.945e-6
-1.204, -1.904e-6
-1.203, -1.961e-6
-1.202, -1.954e-6
-1.201, -1.949e-6
-1.200, -1.939e-6
-1.199, -1.966e-6
-1.198, -1.982e-6
-1.197, -2.008e-6
-1.196, -2.008e-6
-1.195, -2.065e-6
-1.194, -2.021e-6
-1.193, -2.089e-6
-1.192, -2.083e-6
-1.191, -2.063e-6
-1.190, -2.079e-6
-1.189, -2.070e-6
-1.188, -2.101e-6
-1.187, -2.120e-6
-1.186, -2.141e-6
-1.185, -2.142e-6
-1.184, -2.137e-6
-1.183, -2.161e-6
-1.182, -2.180e-6
-1.181, -2.172e-6
-1.180, -2.182e-6
-1.179, -2.187e-6
-1.178, -2.188e-6
-1.177, -2.234e-6
-1.176, -2.223e-6
-1.175, -2.213e-6
-1.174, -2.269e-6
-1.173, -2.265e-6
-1.172, -2.254e-6
-1.171, -2.305e-6
-1.170, -2.259e-6
-1.169, -2.331e-6
-1.168, -2.288e-6
-1.167, -2.303e-6
-1.166, -2.360e-6
-1.165, -2.310e-6
-1.164, -2.350e-6
-1.163, -2.361e-6
-1.162, -2.340e-6
-1.161, -2.357e-6
-1.160, -2.383e-6
-1.159, -2.397e-6
-1.158, -2.397e-6
-1.157, -2.412e-6
-1.156, -2.408e-6
-1.155, -2.415e-6
-1.154, -2.408e-6
-1.153, -2.443e-6
-1.152, -2.480e-6
-1.151, -2.464e-6
-1.150, -2.465e-6
-1.149, -2.494e-6
-1.148, -2.492e-6
-1.147, -2.518e-6
-1.146, -2.538e-6
-1.145, -2.527e-6
-1.144, -2.554e-6
-1.143, -2.551e-6
-1.142, -2.582e-6
-1.141, -2.563e-6
-1.140, -2.543e-6
-1.139, -2.636e-6
-1.138, -2.600e-6
-1.137, -2.632e-6
-1.136, -2.648e-6
-1.135, -2.637e-6
-1.134, -2.682e-6
-1.133, -2.654e-6
-1.132, -2.661e-6
-1.131, -2.682e-6
-1.130, -2.686e-6
-1.129, -2.718e-6
-1.128, -2.741e-6
-1.127, -2.734e-6
-1.126, -2.749e-6
-1.125, -2.749e-6
-1.124, -2.771e-6
-1.123, -2.766e-6
-1.122, -2.790e-6
-1.121, -2.770e-6
-1.120, -2.763e-6
-1.119, -2.765e-6
-1.118, -2.781e-6
-1.117, -2.787e-6
-1.116, -2.799e-6
-1.115, -2.843e-6
-1.114, -2.853e-6
-1.113, -2.894e-6
-1.112, -2.857e-6
-1.111, -2.865e-6
-1.110, -2.898e-6
-1.109, -2.879e-6
-1.108, -2.884e-6
-1.107, -2.935e-6
-1.106, -2.892e-6
-1.105, -2.946e-6
-1.104, -2.960e-6
-1.103, -2.979e-6
-1.102, -3.012e-6
-1.101, -2.949e-6
-1.100, -3.062e-6
-1.099, -3.034e-6
-1.098, -3.037e-6
-1.097, -3.047e-6
-1.096, -3.054e-6
-1.095, -3.086e-6
-1.094, -3.115e-6
-1.093, -3.073e-6
-1.092, -3.104e-6
-1.091, -3.124e-6
-1.090, -3.159e-6
-1.089, -3.186e-6
-1.088, -3.190e-6
-1.087, -3.143e-6
-1.086, -3.239e-6
-1.085, -3.222e-6
-1.084, -3.202e-6
-1.083, -3.263e-6
-1.082, -3.209e-6
-1.081, -3.280e-6
-1.080, -3.290e-6
-1.079, -3.280e-6
-1.078, -3.328e-6
-1.077, -3.271e-6
-1.076, -3.334e-6
-1.075, -3.359e-6
-1.074, -3.361e-6
-1.073, -3.401e-6
-1.072, -3.373e-6
-1.071, -3.403e-6
-1.070, -3.458e-6
-1.069, -3.456e-6
-1.068, -3.495e-6
-1.067, -3.425e-6
-1.066, -3.511e-6
-1.065, -3.541e-6
-1.064, -3.551e-6
-1.063, -3.533e-6
-1.062, -3.536e-6
-1.061, -3.581e-6
-1.060, -3.539e-6
-1.059, -3.590e-6
-1.058, -3.607e-6
-1.057, -3.611e-6
-1.056, -3.671e-6
-1.055, -3.666e-6
-1.054, -3.702e-6
-1.053, -3.714e-6
-1.052, -3.681e-6
-1.051, -3.741e-6
-1.050, -3.738e-6
-1.049, -3.794e-6
-1.048, -3.781e-6
-1.047, -3.751e-6
-1.046, -3.830e-6
-1.045, -3.828e-6
-1.044, -3.845e-6
-1.043, -3.889e-6
-1.042, -3.846e-6
-1.041, -3.921e-6
-1.040, -3.916e-6
-1.039, -3.944e-6
-1.038, -3.968e-6
-1.037, -3.939e-6
-1.036, -3.969e-6
-1.035, -4.010e-6
-1.034, -3.973e-6
-1.033, -4.003e-6
-1.032, -3.970e-6
-1.031, -4.042e-6
-1.030, -4.100e-6
-1.029, -4.099e-6
-1.028, -4.086e-6
-1.027, -4.115e-6
-1.026, -4.128e-6
-1.025, -4.192e-6
-1.024, -4.192e-6
-1.023, -4.208e-6
-1.022, -4.196e-6
-1.021, -4.165e-6
-1.020, -4.290e-6
-1.019, -4.252e-6
-1.018, -4.292e-6
-1.017, -4.284e-6
-1.016, -4.301e-6
-1.015, -4.380e-6
-1.014, -4.352e-6
-1.013, -4.375e-6
-1.012, -4.367e-6
-1.011, -4.436e-6
-1.010, -4.497e-6
-1.009, -4.475e-6
-1.008, -4.517e-6
-1.007, -4.450e-6
-1.006, -4.525e-6
-1.005, -4.577e-6
-1.004, -4.506e-6
-1.003, -4.612e-6
-1.002, -4.569e-6
-1.001, -4.615e-6
-1.000, -2.316e-6
-1.001, -1.482e-6
-1.002, -1.173e-6
-1.003, -8.585e-7
-1.004, -7.283e-7
-1.005, -6.178e-7
-1.006, -4.086e-7
-1.007, -3.021e-7
-1.008, -1.531e-7
-1.009, -7.617e-8
-1.010, -7.103e-9
-1.011, 1.212e-7
-1.012, 1.813e-7
-1.013, 3.204e-7
-1.014, 2.918e-7
-1.015, 3.935e-7
-1.016, 4.596e-7
-1.017, 5.207e-7
-1.018, 5.799e-7
-1.019, 5.740e-7
-1.020, 6.687e-7
-1.021, 7.319e-7
-1.022, 7.388e-7
-1.023, 8.354e-7
-1.024, 8.216e-7
-1.025, 8.670e-7
-1.026, 9.065e-7
-1.027, 9.637e-7
-1.028, 9.963e-7
-1.029, 1.039e-6
-1.030, 1.028e-6
-1.031, 1.091e-6
-1.032, 1.092e-6
-1.033, 1.119e-6
-1.034, 1.189e-6
-1.035, 1.172e-6
-1.036, 1.236e-6
-1.037, 1.274e-6
-1.038, 1.236e-6
-1.039, 1.318e-6
-1.040, 1.246e-6
-1.041, 1.316e-6
-1.042, 1.383e-6
-1.043, 1.325e-6
-1.044, 1.397e-6
-1.045, 1.350e-6
-1.046, 1.446e-6
-1.047, 1.441e-6
-1.048, 1.446e-6
-1.049, 1.452e-6
-1.050, 1.489e-6
-1.051, 1.503e-6
-1.052, 1.522e-6
-1.053, 1.539e-6
-1.054, 1.540e-6
-1.055, 1.540e-6
-1.056, 1.555e-6
-1.057, 1.566e-6
-1.058, 1.600e-6
-1.059, 1.601e-6
-1.060, 1.584e-6
-1.061, 1.613e-6
-1.062, 1.653e-6
-1.063, 1.636e-6
-1.064, 1.680e-6
-1.065, 1.651e-6
-1.066, 1.666e-6
-1.067, 1.664e-6
-1.068, 1.657e-6
-1.069, 1.733e-6
-1.070, 1.665e-6
-1.071, 1.715e-6
-1.072, 1.743e-6
-1.073, 1.735e-6
-1.074, 1.770e-6
-1.075, 1.776e-6
-1.076, 1.752e-6
-1.077, 1.756e-6
-1.078, 1.793e-6
-1.079, 1.800e-6
-1.080, 1.761e-6
-1.081, 1.813e-6
-1.082, 1.867e-6
-1.083, 1.832e-6
-1.084, 1.858e-6
-1.085, 1.834e-6
-1.086, 1.855e-6
-1.087, 1.876e-6
-1.088, 1.862e-6
-1.089, 1.940e-6
-1.090, 1.885e-6
-1.091, 1.887e-6
-1.092, 1.906e-6
-1.093, 1.882e-6
-1.094, 1.938e-6
-1.095, 1.908e-6
-1.096, 1.914e-6
-1.097, 1.962e-6
-1.098, 1.992e-6
-1.099, 1.970e-6
-1.100, 1.941e-6
-1.101, 2.005e-6
-1.102, 1.977e-6
-1.103, 2.009e-6
-1.104, 1.989e-6
-1.105, 1.980e-6
-1.106, 2.034e-6
-1.107, 2.025e-6
-1.108, 2.010e-6
-1.109, 2.041e-6
-1.110, 2.029e-6
-1.111, 2.056e-6
-1.112, 2.037e-6
-1.113, 2.052e-6
-1.114, 2.075e-6
-1.115, 2.048e-6
-1.116, 2.054e-6
-1.117, 2.079e-6
-1.118, 2.126e-6
-1.119, 2.109e-6
-1.120, 2.106e-6
-1.121, 2.097e-6
-1.122, 2.122e-6
-1.123, 2.128e-6
-1.124, 2.148e-6
-1.125, 2.137e-6
-1.126, 2.131e-6
-1.127, 2.191e-6
-1.128, 2.148e-6
-1.129, 2.177e-6
-1.130, 2.168e-6
-1.131, 2.177e-6
-1.132, 2.158e-6
-1.133, 2.225e-6
-1.134, 2.229e-6
-1.135, 2.193e-6
-1.136, 2.209e-6
-1.137, 2.227e-6
-1.138, 2.247e-6
-1.139, 2.259e-6
-1.140, 2.204e-6
-1.141, 2.213e-6
-1.142, 2.223e-6
-1.143, 2.262e-6
-1.144, 2.296e-6
-1.145, 2.216e-6
-1.146, 2.265e-6
-1.147, 2.308e-6
-1.148, 2.264e-6
-1.149, 2.309e-6
-1.150, 2.235e-6
-1.151, 2.262e-6
-1.152, 2.282e-6
-1.153, 2.286e-6
-1.154, 2.321e-6
-1.155, 2.287e-6
-1.156, 2.336e-6
-1.157, 2.293e-6
-1.158, 2.311e-6
-1.159, 2.335e-6
-1.160, 2.262e-6
-1.161, 2.305e-6
-1.162, 2.353e-6
-1.163, 2.312e-6
-1.164, 2.300e-6
-1.165, 2.306e-6
-1.166, 2.315e-6
-1.167, 2.342e-6
-1.168, 2.321e-6
-1.169, 2.327e-6
-1.170, 2.324e-6
-1.171, 2.370e-6
-1.172, 2.358e-6
-1.173, 2.377e-6
-1.174, 2.379e-6
-1.175, 2.376e-6
-1.176, 2.356e-6
-1.177, 2.365e-6
-1.178, 2.392e-6
-1.179, 2.400e-6
-1.180, 2.345e-6
-1.181, 2.372e-6
-1.182, 2.391e-6
-1.183, 2.399e-6
-1.184, 2.368e-6
-1.185, 2.386e-6
-1.186, 2.418e-6
-1.187, 2.424e-6
-1.188, 2.402e-6
-1.189, 2.410e-6
-1.190, 2.376e-6
-1.191, 2.427e-6
-1.192, 2.430e-6
-1.193, 2.386e-6
-1.194, 2.420e-6
-1.195, 2.392e-6
-1.196, 2.461e-6
-1.197, 2.453e-6
-1.198, 2.434e-6
-1.199, 2.493e-6
-1.200, 2.419e-6
-1.201, 2.488e-6
-1.202, 2.498e-6
-1.203, 2.461e-6
-1.204, 2.488e-6
-1.205, 2.451e-6
-1.206, 2.481e-6
-1.207, 2.527e-6
-1.208, 2.494e-6
-1.209, 2.550e-6
-1.210, 2.505e-6
-1.211, 2.553e-6
-1.212, 2.534e-6
-1.213, 2.564e-6
-1.214, 2.560e-6
-1.215, 2.539e-6
-1.216, 2.573e-6
-1.217, 2.589e-6
-1.218, 2.560e-6
-1.219, 2.598e-6
-1.220, 2.544e-6
-1.221, 2.608e-6
-1.222, 2.600e-6
-1.223, 2.662e-6
-1.224, 2.608e-6
-1.225, 2.577e-6
-1.226, 2.649e-6
-1.227, 2.659e-6
-1.228, 2.665e-6
-1.229, 2.685e-6
-1.230, 2.620e-6
-1.231, 2.703e-6
-1.232, 2.740e-6
-1.233, 2.759e-6
-1.234, 2.803e-6
-1.235, 2.771e-6
-1.236, 2.808e-6
-1.237, 2.788e-6
-1.238, 2.805e-6
-1.239, 2.773e-6
-1.240, 2.744e-6
-1.241, 2.789e-6
-1.242, 2.858e-6
-1.243, 2.833e-6
-1.244, 2.827e-6
-1.245, 2.811e-6
-1.246, 2.833e-6
-1.247, 2.869e-6
-1.248, 2.900e-6
-1.249, 2.880e-6
-1.250, 2.887e-6
-1.251, 2.941e-6
-1.252, 2.941e-6
-1.253, 2.980e-6
-1.254, 2.925e-6
-1.255, 2.960e-6
-1.256, 2.968e-6
-1.257, 2.994e-6
-1.258, 3.041e-6
-1.259, 2.983e-6
-1.260, 3.056e-6
-1.261, 3.072e-6
-1.262, 3.064e-6
-1.263, 3.111e-6
-1.264, 3.058e-6
-1.265, 3.058e-6
-1.266, 3.122e-6
-1.267, 3.132e-6
-1.268, 3.195e-6
-1.269, 3.136e-6
-1.270, 3.175e-6
-1.271, 3.197e-6
-1.272, 3.187e-6
-1.273, 3.205e-6
-1.274, 3.175e-6
-1.275, 3.249e-6
-1.276, 3.250e-6
-1.277, 3.289e-6
-1.278, 3.319e-6
-1.279, 3.251e-6
-1.280, 3.337e-6
-1.281, 3.336e-6
-1.282, 3.417e-6
-1.283, 3.387e-6
-1.284, 3.372e-6
-1.285, 3.418e-6
-1.286, 3.453e-6
-1.287, 3.492e-6
-1.288, 3.481e-6
-1.289, 3.432e-6
-1.290, 3.469e-6
-1.291, 3.491e-6
-1.292, 3.534e-6
-1.293, 3.528e-6
-1.294, 3.532e-6
-1.295, 3.559e-6
-1.296, 3.562e-6
-1.297, 3.600e-6
-1.298, 3.651e-6
-1.299, 3.596e-6
-1.300, 3.628e-6
-1.301, 3.651e-6
-1.302, 3.679e-6
-1.303, 3.714e-6
-1.304, 3.666e-6
-1.305, 3.728e-6
-1.306, 3.772e-6
-1.307, 3.812e-6
-1.308, 3.806e-6
-1.309, 3.801e-6
-1.310, 3.816e-6
-1.311, 3.873e-6
-1.312, 3.914e-6
-1.313, 3.891e-6
-1.314, 3.883e-6
-1.315, 3.923e-6
-1.316, 3.932e-6
-1.317, 3.954e-6
-1.318, 3.994e-6
-1.319, 3.977e-6
-1.320, 4.020e-6
-1.321, 4.063e-6
-1.322, 4.084e-6
-1.323, 4.089e-6
-1.324, 4.117e-6
-1.325, 4.127e-6
-1.326, 4.184e-6
-1.327, 4.205e-6
-1.328, 4.245e-6
-1.329, 4.237e-6
-1.330, 4.263e-6
-1.331, 4.320e-6
-1.332, 4.304e-6
-1.333, 4.348e-6
-1.334, 4.346e-6
-1.335, 4.398e-6
-1.336, 4.439e-6
-1.337, 4.447e-6
-1.338, 4.490e-6
-1.339, 4.507e-6
-1.340, 4.572e-6
-1.341, 4.585e-6
-1.342, 4.619e-6
-1.343, 4.676e-6
-1.344, 4.673e-6
-1.345, 4.711e-6
-1.346, 4.763e-6
-1.347, 4.739e-6
-1.348, 4.855e-6
-1.349, 4.855e-6
-1.350, 4.887e-6
-1.351, 4.939e-6
-1.352, 4.992e-6
-1.353, 5.006e-6
-1.354, 5.062e-6
-1.355, 5.078e-6
-1.356, 5.151e-6
-1.357, 5.211e-6
-1.358, 5.273e-6
-1.359, 5.281e-6
-1.360, 5.303e-6
-1.361, 5.379e-6
-1.362, 5.480e-6
-1.363, 5.519e-6
-1.364, 5.512e-6
-1.365, 5.624e-6
-1.366, 5.650e-6
-1.367, 5.703e-6
-1.368, 5.788e-6
-1.369, 5.745e-6
-1.370, 5.888e-6
-1.371, 5.950e-6
-1.372, 6.028e-6
-1.373, 6.122e-6
-1.374, 6.123e-6
-1.375, 6.225e-6
-1.376, 6.289e-6
-1.377, 6.356e-6
-1.378, 6.425e-6
-1.379, 6.465e-6
-1.380, 6.587e-6
-1.381, 6.630e-6
-1.382, 6.741e-6
-1.383, 6.849e-6
-1.384, 6.878e-6
-1.385, 7.026e-6
-1.386, 7.114e-6
-1.387, 7.200e-6
-1.388, 7.291e-6
-1.389, 7.359e-6
-1.390, 7.526e-6
-1.391, 7.597e-6
-1.392, 7.666e-6
-1.393, 7.813e-6
-1.394, 7.848e-6
-1.395, 8.020e-6
-1.396, 8.124e-6
-1.397, 8.262e-6
-1.398, 8.408e-6
-1.399, 8.495e-6
-1.400, 8.634e-6
-1.401, 8.758e-6
-1.402, 8.901e-6
-1.403, 9.042e-6
-1.404, 9.148e-6
-1.405, 9.357e-6
-1.406, 9.451e-6
-1.407, 9.646e-6
-1.408, 9.808e-6
-1.409, 9.916e-6
-1.410, 1.014e-5
-1.411, 1.029e-5
-1.412, 1.045e-5
-1.413, 1.067e-5
-1.414, 1.080e-5
-1.415, 1.104e-5
-1.416, 1.125e-5
-1.417, 1.140e-5
-1.418, 1.163e-5
-1.419, 1.181e-5
-1.420, 1.202e-5
-1.421, 1.222e-5
-1.422, 1.250e-5
-1.423, 1.266e-5
-1.424, 1.290e-5
-1.425, 1.315e-5
-1.426, 1.342e-5
-1.427, 1.365e-5
-1.428, 1.393e-5
-1.429, 1.418e-5
-1.430, 1.449e-5
-1.431, 1.479e-5
-1.432, 1.503e-5
-1.433, 1.534e-5
-1.434, 1.564e-5
-1.435, 1.594e-5
-1.436, 1.629e-5
-1.437, 1.660e-5
-1.438, 1.693e-5
-1.439, 1.731e-5
-1.440, 1.761e-5
-1.441, 1.800e-5
-1.442, 1.837e-5
-1.443, 1.872e-5
-1.444, 1.913e-5
-1.445, 1.950e-5
-1.446, 1.987e-5
-1.447, 2.037e-5
-1.448, 2.077e-5
-1.449, 2.118e-5
-1.450, 2.160e-5
-1.451, 2.207e-5
-1.452, 2.253e-5
-1.453, 2.306e-5
-1.454, 2.352e-5
-1.455, 2.401e-5
-1.456, 2.454e-5
-1.457, 2.503e-5
-1.458, 2.558e-5
-1.459, 2.615e-5
-1.460, 2.667e-5
-1.461, 2.731e-5
-1.462, 2.789e-5
-1.463, 2.847e-5
-1.464, 2.908e-5
-1.465, 2.967e-5
-1.466, 3.041e-5
-1.467, 3.101e-5
-1.468, 3.168e-5
-1.469, 3.237e-5
-1.470, 3.302e-5
-1.471, 3.380e-5
-1.472, 3.455e-5
-1.473, 3.528e-5
-1.474, 3.606e-5
-1.475, 3.681e-5
-1.476, 3.767e-5
-1.477, 3.849e-5
-1.478, 3.932e-5
-1.479, 4.018e-5
-1.480, 4.102e-5
-1.481, 4.196e-5
-1.482, 4.289e-5
-1.483, 4.383e-5
-1.484, 4.480e-5
-1.485, 4.573e-5
-1.486, 4.681e-5
-1.487, 4.783e-5
-1.488, 4.889e-5
-1.489, 4.996e-5
-1.490, 5.100e-5
-1.491, 5.217e-5
-1.492, 5.335e-5
-1.493, 5.445e-5
-1.494, 5.567e-5
-1.495, 5.683e-5
-1.496, 5.815e-5
-1.497, 5.942e-5
-1.498, 6.076e-5
-1.499, 6.206e-5
-1.500, 6.339e-5
-1.501, 6.483e-5
-1.502, 6.625e-5
-1.503, 6.774e-5
-1.504, 6.917e-5
-1.505, 7.070e-5
-1.506, 7.227e-5
-1.507, 7.387e-5
-1.508, 7.550e-5
-1.509, 7.714e-5
-1.510, 7.882e-5
-1.511, 8.059e-5
-1.512, 8.238e-5
-1.513, 8.416e-5
-1.514, 8.596e-5
-1.515, 8.784e-5
-1.516, 8.976e-5
-1.517, 9.178e-5
-1.518, 9.377e-5
-1.519, 9.584e-5
-1.520, 9.793e-5
-1.521, 1.001e-4
-1.522, 1.023e-4
-1.523, 1.045e-4
-1.524, 1.068e-4
-1.525, 1.091e-4
-1.526, 1.115e-4
-1.527, 1.139e-4
-1.528, 1.164e-4
-1.529, 1.189e-4
-1.530, 1.216e-4
-1.531, 1.242e-4
-1.532, 1.270e-4
-1.533, 1.297e-4
-1.534, 1.326e-4
-1.535, 1.354e-4
-1.536, 1.383e-4
-1.537, 1.414e-4
-1.538, 1.445e-4
-1.539, 1.476e-4
-1.540, 1.508e-4
-1.541, 1.541e-4
-1.542, 1.575e-4
-1.543, 1.609e-4
-1.544, 1.644e-4
-1.545, 1.679e-4
-1.546, 1.716e-4
-1.547, 1.754e-4
-1.548, 1.792e-4
-1.549, 1.831e-4
-1.550, 1.871e-4
-1.551, 1.911e-4
-1.552, 1.953e-4
-1.553, 1.995e-4
-1.554, 2.039e-4
-1.555, 2.082e-4
-1.556, 2.127e-4
-1.557, 2.173e-4
-1.558, 2.220e-4
-1.559, 2.268e-4
-1.560, 2.317e-4
-1.561, 2.367e-4
-1.562, 2.418e-4
-1.563, 2.470e-4
-1.564, 2.523e-4
-1.565, 2.577e-4
-1.566, 2.632e-4
-1.567, 2.688e-4
-1.568, 2.746e-4
-1.569, 2.804e-4
-1.570, 2.864e-4
-1.571, 2.925e-4
-1.572, 2.987e-4
-1.573, 3.051e-4
-1.574, 3.115e-4
-1.575, 3.182e-4
-1.576, 3.249e-4
-1.577, 3.319e-4
-1.578, 3.389e-4
-1.579, 3.461e-4
-1.580, 3.534e-4
-1.581, 3.607e-4
-1.582, 3.685e-4
-1.583, 3.763e-4
-1.584, 3.841e-4
-1.585, 3.921e-4
-1.586, 4.003e-4
-1.587, 4.088e-4
-1.588, 4.174e-4
-1.589, 4.259e-4
-1.590, 4.350e-4
-1.591, 4.441e-4
-1.592, 4.533e-4
-1.593, 4.626e-4
-1.594, 4.719e-4
-1.595, 4.818e-4
-1.596, 4.918e-4
-1.597, 5.016e-4
-1.598, 5.120e-4
-1.599, 5.225e-4
-1.600, 5.333e-4
-1.601, 5.443e-4
-1.602, 5.556e-4
-1.603, 5.668e-4
-1.604, 5.784e-4
-1.605, 5.904e-4
-1.606, 6.021e-4
-1.607, 6.143e-4
-1.608, 6.267e-4
-1.609, 6.388e-4
-1.610, 6.512e-4
-1.611, 6.641e-4
-1.612, 6.775e-4
-1.613, 6.908e-4
-1.614, 7.051e-4
-1.615, 7.192e-4
-1.616, 7.334e-4
-1.617, 7.485e-4
-1.618, 7.637e-4
-1.619, 7.780e-4
-1.620, 7.936e-4
-1.621, 8.090e-4
-1.622, 8.244e-4
-1.623, 8.400e-4
-1.624, 8.553e-4
-1.625, 8.715e-4
-1.626, 8.883e-4
-1.627, 9.054e-4
-1.628, 9.225e-4
-1.629, 9.404e-4
-1.630, 9.589e-4
-1.631, 9.769e-4
-1.632, 9.957e-4
-1.633, 1.013e-3
-1.634, 1.032e-3
-1.635, 1.051e-3
-1.636, 1.070e-3
-1.637, 1.090e-3
-1.638, 1.110e-3
-1.639, 1.134e-3
-1.640, 1.152e-3
-1.641, 1.172e-3
-1.642, 1.196e-3
-1.643, 1.214e-3
-1.644, 1.235e-3
-1.645, 1.257e-3
-1.646, 1.279e-3
-1.647, 1.303e-3
-1.648, 1.327e-3
-1.649, 1.350e-3
-1.650, 1.374e-3
-1.651, 1.398e-3
-1.652, 1.421e-3
-1.653, 1.444e-3
-1.654, 1.469e-3
-1.655, 1.495e-3
-1.656, 1.522e-3
-1.657, 1.548e-3
-1.658, 1.574e-3
-1.659, 1.598e-3
-1.660, 1.626e-3
-1.661, 1.654e-3
-1.662, 1.681e-3
-1.663, 1.710e-3
-1.664, 1.737e-3
-1.665, 1.763e-3
-1.666, 1.791e-3
-1.667, 1.820e-3
-1.668, 1.849e-3
-1.669, 1.880e-3
-1.670, 1.910e-3
-1.671, 1.936e-3
-1.672, 1.969e-3
-1.673, 2.001e-3
-1.674, 2.027e-3
-1.675, 2.058e-3
-1.676, 2.091e-3
-1.677, 2.124e-3
-1.678, 2.157e-3
-1.679, 2.187e-3
-1.680, 2.220e-3
-1.681, 2.258e-3
-1.682, 2.293e-3
-1.683, 2.321e-3
-1.684, 2.351e-3
-1.685, 2.384e-3
-1.686, 2.420e-3
-1.687, 2.455e-3
-1.688, 2.494e-3
-1.689, 2.528e-3
-1.690, 2.564e-3
-1.691, 2.604e-3
-1.692, 2.641e-3
-1.693, 2.673e-3
-1.694, 2.710e-3
-1.695, 2.754e-3
-1.696, 2.791e-3
-1.697, 2.826e-3
-1.698, 2.863e-3
-1.699, 2.898e-3
-1.700, 2.941e-3
-1.701, 2.973e-3
-1.702, 3.011e-3
-1.703, 3.059e-3
-1.704, 3.097e-3
-1.705, 3.134e-3
-1.706, 3.172e-3
-1.707, 3.218e-3
-1.708, 3.251e-3
-1.709, 3.278e-3
-1.710, 3.320e-3
-1.711, 3.370e-3
-1.712, 3.413e-3
-1.713, 3.457e-3
-1.714, 3.499e-3
-1.715, 3.540e-3
-1.716, 3.590e-3
-1.717, 3.633e-3
-1.718, 3.663e-3
-1.719, 3.715e-3
-1.720, 3.760e-3
-1.721, 3.794e-3
-1.722, 3.836e-3
-1.723, 3.883e-3
-1.724, 3.934e-3
-1.725, 3.977e-3
-1.726, 4.025e-3
-1.727, 4.073e-3
-1.728, 4.122e-3
-1.729, 4.179e-3
-1.730, 4.220e-3
-1.731, 4.263e-3
-1.732, 4.307e-3
-1.733, 4.349e-3
-1.734, 4.393e-3
-1.735, 4.439e-3
-1.736, 4.481e-3
-1.737, 4.527e-3
-1.738, 4.575e-3
-1.739, 4.619e-3
-1.740, 4.676e-3
-1.741, 4.739e-3
-1.742, 4.790e-3
-1.743, 4.838e-3
-1.744, 4.891e-3
-1.745, 4.940e-3
-1.746, 4.986e-3
-1.747, 5.043e-3
-1.748, 5.094e-3
-1.749, 5.136e-3
-1.750, 5.177e-3
-1.751, 5.229e-3
-1.752, 5.293e-3
-1.753, 5.340e-3
-1.754, 5.388e-3
-1.755, 5.463e-3
-1.756, 5.514e-3
-1.757, 5.566e-3
-1.758, 5.621e-3
-1.759, 5.661e-3
-1.760, 5.711e-3
-1.761, 5.759e-3
-1.762, 5.823e-3
-1.763, 5.879e-3
-1.764, 5.935e-3
-1.765, 5.993e-3
-1.766, 6.035e-3
-1.767, 6.085e-3
-1.768, 6.127e-3
-1.769, 6.199e-3
-1.770, 6.260e-3
-1.771, 6.322e-3
-1.772, 6.379e-3
-1.773, 6.430e-3
-1.774, 6.513e-3
-1.775, 6.554e-3
-1.776, 6.577e-3
-1.777, 6.642e-3
-1.778, 6.705e-3
-1.779, 6.777e-3
-1.780, 6.833e-3
-1.781, 6.878e-3
-1.782, 6.939e-3
-1.783, 7.007e-3
-1.784, 7.057e-3
-1.785, 7.111e-3
-1.786, 7.167e-3
-1.787, 7.231e-3
-1.788, 7.297e-3
-1.789, 7.351e-3
-1.790, 7.417e-3
-1.791, 7.489e-3
-1.792, 7.527e-3
-1.793, 7.581e-3
-1.794, 7.644e-3
-1.795, 7.707e-3
-1.796, 7.767e-3
-1.797, 7.810e-3
-1.798, 7.872e-3
-1.799, 7.936e-3
-1.800, 7.927e-3
-1.799, 7.878e-3
-1.798, 7.837e-3
-1.797, 7.791e-3
-1.796, 7.694e-3
-1.795, 7.604e-3
-1.794, 7.507e-3
-1.793, 7.412e-3
-1.792, 7.358e-3
-1.791, 7.297e-3
-1.790, 7.227e-3
-1.789, 7.170e-3
-1.788, 7.111e-3
-1.787, 7.048e-3
-1.786, 6.995e-3
-1.785, 6.939e-3
-1.784, 6.881e-3
-1.783, 6.797e-3
-1.782, 6.742e-3
-1.781, 6.700e-3
-1.780, 6.640e-3
-1.779, 6.575e-3
-1.778, 6.518e-3
-1.777, 6.451e-3
-1.776, 6.401e-3
-1.775, 6.383e-3
-1.774, 6.303e-3
-1.773, 6.244e-3
-1.772, 6.202e-3
-1.771, 6.147e-3
-1.770, 6.091e-3
-1.769, 6.040e-3
-1.768, 5.973e-3
-1.767, 5.909e-3
-1.766, 5.866e-3
-1.765, 5.836e-3
-1.764, 5.793e-3
-1.763, 5.741e-3
-1.762, 5.695e-3
-1.761, 5.660e-3
-1.760, 5.607e-3
-1.759, 5.538e-3
-1.758, 5.493e-3
-1.757, 5.448e-3
-1.756, 5.406e-3
-1.755, 5.360e-3
-1.754, 5.305e-3
-1.753, 5.250e-3
-1.752, 5.210e-3
-1.751, 5.163e-3
-1.750, 5.120e-3
-1.749, 5.091e-3
-1.748, 5.054e-3
-1.747, 5.004e-3
-1.746, 4.959e-3
-1.745, 4.926e-3
-1.744, 4.881e-3
-1.743, 4.837e-3
-1.742, 4.792e-3
-1.741, 4.754e-3
-1.740, 4.709e-3
-1.739, 4.661e-3
-1.738, 4.612e-3
-1.737, 4.562e-3
-1.736, 4.527e-3
-1.735, 4.479e-3
-1.734, 4.443e-3
-1.733, 4.396e-3
-1.732, 4.354e-3
-1.731, 4.307e-3
-1.730, 4.263e-3
-1.729, 4.225e-3
-1.728, 4.193e-3
-1.727, 4.166e-3
-1.726, 4.126e-3
-1.725, 4.073e-3
-1.724, 4.024e-3
-1.723, 3.974e-3
-1.722, 3.925e-3
-1.721, 3.884e-3
-1.720, 3.856e-3
-1.719, 3.826e-3
-1.718, 3.787e-3
-1.717, 3.752e-3
-1.716, 3.707e-3
-1.715, 3.673e-3
-1.714, 3.637e-3
-1.713, 3.603e-3
-1.712, 3.574e-3
-1.711, 3.538e-3
-1.710, 3.498e-3
-1.709, 3.453e-3
-1.708, 3.406e-3
-1.707, 3.370e-3
-1.706, 3.331e-3
-1.705, 3.299e-3
-1.704, 3.269e-3
-1.703, 3.237e-3
-1.702, 3.202e-3
-1.701, 3.172e-3
-1.700, 3.129e-3
-1.699, 3.082e-3
-1.698, 3.050e-3
-1.697, 3.012e-3
-1.696, 2.979e-3
-1.695, 2.952e-3
-1.694, 2.923e-3
-1.693, 2.890e-3
-1.692, 2.854e-3
-1.691, 2.824e-3
-1.690, 2.790e-3
-1.689, 2.755e-3
-1.688, 2.727e-3
-1.687, 2.702e-3
-1.686, 2.670e-3
-1.685, 2.631e-3
-1.684, 2.602e-3
-1.683, 2.572e-3
-1.682, 2.546e-3
-1.681, 2.517e-3
-1.680, 2.487e-3
-1.679, 2.454e-3
-1.678, 2.424e-3
-1.677, 2.396e-3
-1.676, 2.368e-3
-1.675, 2.339e-3
-1.674, 2.308e-3
-1.673, 2.280e-3
-1.672, 2.254e-3
-1.671, 2.224e-3
-1.670, 2.194e-3
-1.669, 2.166e-3
-1.668, 2.139e-3
-1.667, 2.114e-3
-1.666, 2.085e-3
-1.665, 2.057e-3
-1.664, 2.030e-3
-1.663, 2.005e-3
-1.662, 1.978e-3
-1.661, 1.951e-3
-1.660, 1.928e-3
-1.659, 1.912e-3
-1.658, 1.890e-3
-1.657, 1.864e-3
-1.656, 1.840e-3
-1.655, 1.814e-3
-1.654, 1.792e-3
-1.653, 1.769e-3
-1.652, 1.740e-3
-1.651, 1.719e-3
-1.650, 1.697e-3
-1.649, 1.674e-3
-1.648, 1.652e-3
-1.647, 1.627e-3
-1.646, 1.602e-3
-1.645, 1.580e-3
-1.644, 1.559e-3
-1.643, 1.539e-3
-1.642, 1.517e-3
-1.641, 1.496e-3
-1.640, 1.474e-3
-1.639, 1.452e-3
-1.638, 1.429e-3
-1.637, 1.410e-3
-1.636, 1.390e-3
-1.635, 1.370e-3
-1.634, 1.350e-3
-1.633, 1.328e-3
-1.632, 1.307e-3
-1.631, 1.287e-3
-1.630, 1.269e-3
-1.629, 1.250e-3
-1.628, 1.231e-3
-1.627, 1.213e-3
-1.626, 1.194e-3
-1.625, 1.175e-3
-1.624, 1.159e-3
-1.623, 1.140e-3
-1.622, 1.121e-3
-1.621, 1.104e-3
-1.620, 1.088e-3
-1.619, 1.077e-3
-1.618, 1.062e-3
-1.617, 1.046e-3
-1.616, 1.030e-3
-1.615, 1.014e-3
-1.614, 9.980e-4
-1.613, 9.810e-4
-1.612, 9.649e-4
-1.611, 9.491e-4
-1.610, 9.339e-4
-1.609, 9.190e-4
-1.608, 9.037e-4
-1.607, 8.891e-4
-1.606, 8.744e-4
-1.605, 8.594e-4
-1.604, 8.448e-4
-1.603, 8.305e-4
-1.602, 8.169e-4
-1.601, 8.031e-4
-1.600, 7.897e-4
-1.599, 7.774e-4
-1.598, 7.642e-4
-1.597, 7.505e-4
-1.596, 7.366e-4
-1.595, 7.240e-4
-1.594, 7.118e-4
-1.593, 6.995e-4
-1.592, 6.880e-4
-1.591, 6.758e-4
-1.590, 6.641e-4
-1.589, 6.523e-4
-1.588, 6.406e-4
-1.587, 6.294e-4
-1.586, 6.181e-4
-1.585, 6.073e-4
-1.584, 5.966e-4
-1.583, 5.860e-4
-1.582, 5.754e-4
-1.581, 5.651e-4
-1.580, 5.548e-4
-1.579, 5.447e-4
-1.578, 5.348e-4
-1.577, 5.249e-4
-1.576, 5.154e-4
-1.575, 5.059e-4
-1.574, 4.968e-4
-1.573, 4.878e-4
-1.572, 4.784e-4
-1.571, 4.694e-4
-1.570, 4.605e-4
-1.569, 4.519e-4
-1.568, 4.434e-4
-1.567, 4.351e-4
-1.566, 4.269e-4
-1.565, 4.189e-4
-1.564, 4.111e-4
-1.563, 4.033e-4
-1.562, 3.956e-4
-1.561, 3.880e-4
-1.560, 3.806e-4
-1.559, 3.734e-4
-1.558, 3.661e-4
-1.557, 3.591e-4
-1.556, 3.522e-4
-1.555, 3.454e-4
-1.554, 3.387e-4
-1.553, 3.321e-4
-1.552, 3.256e-4
-1.551, 3.191e-4
-1.550, 3.128e-4
-1.549, 3.067e-4
-1.548, 3.007e-4
-1.547, 2.949e-4
-1.546, 2.890e-4
-1.545, 2.833e-4
-1.544, 2.778e-4
-1.543, 2.724e-4
-1.542, 2.670e-4
-1.541, 2.617e-4
-1.540, 2.564e-4
-1.539, 2.512e-4
-1.538, 2.462e-4
-1.537, 2.412e-4
-1.536, 2.365e-4
-1.535, 2.318e-4
-1.534, 2.271e-4
-1.533, 2.224e-4
-1.532, 2.179e-4
-1.531, 2.135e-4
-1.530, 2.090e-4
-1.529, 2.048e-4
-1.528, 2.007e-4
-1.527, 1.966e-4
-1.526, 1.925e-4
-1.525, 1.886e-4
-1.524, 1.847e-4
-1.523, 1.810e-4
-1.522, 1.773e-4
-1.521, 1.736e-4
-1.520, 1.701e-4
-1.519, 1.665e-4
-1.518, 1.631e-4
-1.517, 1.597e-4
-1.516, 1.563e-4
-1.515, 1.531e-4
-1.514, 1.501e-4
-1.513, 1.469e-4
-1.512, 1.439e-4
-1.511, 1.408e-4
-1.510, 1.380e-4
-1.509, 1.351e-4
-1.508, 1.323e-4
-1.507, 1.295e-4
-1.506, 1.269e-4
-1.505, 1.242e-4
-1.504, 1.216e-4
-1.503, 1.191e-4
-1.502, 1.166e-4
-1.501, 1.142e-4
-1.500, 1.118e-4
-1.499, 1.095e-4
-1.498, 1.072e-4
-1.497, 1.049e-4
-1.496, 1.027e-4
-1.495, 1.005e-4
-1.494, 9.843e-5
-1.493, 9.640e-5
-1.492, 9.438e-5
-1.491, 9.238e-5
-1.490, 9.043e-5
-1.489, 8.850e-5
-1.488, 8.668e-5
-1.487, 8.488e-5
-1.486, 8.304e-5
-1.485, 8.128e-5
-1.484, 7.956e-5
-1.483, 7.789e-5
-1.482, 7.622e-5
-1.481, 7.455e-5
-1.480, 7.298e-5
-1.479, 7.141e-5
-1.478, 7.000e-5
-1.477, 6.843e-5
-1.476, 6.703e-5
-1.475, 6.554e-5
-1.474, 6.416e-5
-1.473, 6.287e-5
-1.472, 6.148e-5
-1.471, 6.014e-5
-1.470, 5.882e-5
-1.469, 5.761e-5
-1.468, 5.642e-5
-1.467, 5.518e-5
-1.466, 5.398e-5
-1.465, 5.278e-5
-1.464, 5.171e-5
-1.463, 5.063e-5
-1.462, 4.949e-5
-1.461, 4.847e-5
-1.460, 4.742e-5
-1.459, 4.639e-5
-1.458, 4.542e-5
-1.457, 4.443e-5
-1.456, 4.345e-5
-1.455, 4.254e-5
-1.454, 4.168e-5
-1.453, 4.078e-5
-1.452, 3.992e-5
-1.451, 3.896e-5
-1.450, 3.813e-5
-1.449, 3.728e-5
-1.448, 3.651e-5
-1.447, 3.576e-5
-1.446, 3.495e-5
-1.445, 3.420e-5
-1.444, 3.350e-5
-1.443, 3.272e-5
-1.442, 3.207e-5
-1.441, 3.127e-5
-1.440, 3.064e-5
-1.439, 2.996e-5
-1.438, 2.937e-5
-1.437, 2.873e-5
-1.436, 2.809e-5
-1.435, 2.745e-5
-1.434, 2.678e-5
-1.433, 2.624e-5
-1.432, 2.567e-5
-1.431, 2.505e-5
-1.430, 2.454e-5
-1.429, 2.401e-5
-1.428, 2.354e-5
-1.427, 2.296e-5
-1.426, 2.247e-5
-1.425, 2.192e-5
-1.424, 2.142e-5
-1.423, 2.100e-5
-1.422, 2.049e-5
-1.421, 2.001e-5
-1.420, 1.954e-5
-1.419, 1.918e-5
-1.418, 1.878e-5
-1.417, 1.836e-5
-1.416, 1.796e-5
-1.415, 1.747e-5
-1.414, 1.709e-5
-1.413, 1.674e-5
-1.412, 1.628e-5
-1.411, 1.593e-5
-1.410, 1.558e-5
-1.409, 1.527e-5
-1.408, 1.494e-5
-1.407, 1.456e-5
-1.406, 1.423e-5
-1.405, 1.390e-5
-1.404, 1.363e-5
-1.403, 1.324e-5
-1.402, 1.293e-5
-1.401, 1.264e-5
-1.400, 1.231e-5
-1.399, 1.209e-5
-1.398, 1.175e-5
-1.397, 1.151e-5
-1.396, 1.122e-5
-1.395, 1.089e-5
-1.394, 1.067e-5
-1.393, 1.042e-5
-1.392, 1.018e-5
-1.391, 9.928e-6
-1.390, 9.677e-6
-1.389, 9.449e-6
-1.388, 9.250e-6
-1.387, 8.977e-6
-1.386, 8.772e-6
-1.385, 8.550e-6
-1.384, 8.354e-6
-1.383, 8.155e-6
-1.382, 7.913e-6
-1.381, 7.758e-6
-1.380, 7.474e-6
-1.379, 7.283e-6
-1.378, 7.196e-6
-1.377, 7.005e-6
-1.376, 6.822e-6
-1.375, 6.636e-6
-1.374, 6.467e-6
-1.373, 6.352e-6
-1.372, 6.104e-6
-1.371, 5.958e-6
-1.370, 5.765e-6
-1.369, 5.624e-6
-1.368, 5.525e-6
-1.367, 5.345e-6
-1.366, 5.210e-6
-1.365, 5.039e-6
-1.364, 4.916e-6
-1.363, 4.773e-6
-1.362, 4.623e-6
-1.361, 4.474e-6
-1.360, 4.296e-6
-1.359, 4.275e-6
-1.358, 4.112e-6
-1.357, 3.985e-6
-1.356, 3.874e-6
-1.355, 3.735e-6
-1.354, 3.669e-6
-1.353, 3.483e-6
-1.352, 3.433e-6
-1.351, 3.308e-6
-1.350, 3.151e-6
-1.349, 3.129e-6
-1.348, 2.948e-6
-1.347, 2.879e-6
-1.346, 2.766e-6
-1.345, 2.675e-6
-1.344, 2.625e-6
-1.343, 2.519e-6
-1.342, 2.446e-6
-1.341, 2.316e-6
-1.340, 2.259e-6
-1.339, 2.162e-6
-1.338, 2.049e-6
-1.337, 2.038e-6
-1.336, 1.904e-6
-1.335, 1.838e-6
-1.334, 1.786e-6
-1.333, 1.706e-6
-1.332, 1.617e-6
-1.331, 1.502e-6
-1.330, 1.462e-6
-1.329, 1.368e-6
-1.328, 1.323e-6
-1.327, 1.266e-6
-1.326, 1.241e-6
-1.325, 1.191e-6
-1.324, 1.159e-6
-1.323, 1.084e-6
-1.322, 1.050e-6
-1.321, 9.292e-7
-1.320, 9.075e-7
-1.319, 8.424e-7
-1.318, 7.289e-7
-1.317, 7.309e-7
-1.316, 6.233e-7
-1.315, 5.849e-7
-1.314, 6.312e-7
-1.313, 5.306e-7
-1.312, 5.118e-7
-1.311, 4.300e-7
-1.310, 3.599e-7
-1.309, 3.352e-7
-1.308, 2.869e-7
-1.307, 2.356e-7
-1.306, 1.734e-7
-1.305, 1.379e-7
-1.304, 1.231e-7
-1.303, 8.860e-8
-1.302, 5.703e-8
-1.301, -6.235e-8
-1.300, -3.867e-8
-1.299, -1.048e-7
-1.298, -1.344e-7
-1.297, -1.709e-7
-1.296, -2.202e-7
-1.295, -2.143e-7
-1.294, -2.784e-7
-1.293, -2.340e-7
-1.292, -2.784e-7
-1.291, -3.514e-7
-1.290, -3.534e-7
-1.289, -4.294e-7
-1.288, -4.037e-7
-1.287, -4.590e-7
-1.286, -5.172e-7
-1.285, -4.856e-7
-1.284, -4.974e-7
-1.283, -5.014e-7
-1.282, -4.856e-7
-1.281, -6.020e-7
-1.280, -6.237e-7
-1.279, -6.523e-7
-1.278, -7.214e-7
-1.277, -6.523e-7
-1.276, -7.737e-7
-1.275, -7.096e-7
-1.274, -7.313e-7
-1.273, -7.638e-7
-1.272, -7.697e-7
-1.271, -8.674e-7
-1.270, -8.753e-7
-1.269, -9.158e-7
-1.268, -8.832e-7
-1.267, -9.029e-7
-1.266, -9.345e-7
-1.265, -9.552e-7
-1.264, -9.651e-7
-1.263, -9.651e-7
-1.262, -1.017e-6
-1.261, -1.044e-6
-1.260, -1.060e-6
-1.259, -1.071e-6
-1.258, -1.056e-6
-1.257, -1.082e-6
-1.256, -1.167e-6
-1.255, -1.122e-6
-1.254, -1.116e-6
-1.253, -1.163e-6
-1.252, -1.172e-6
-1.251, -1.245e-6
-1.250, -1.253e-6
-1.249, -1.195e-6
-1.248, -1.238e-6
-1.247, -1.202e-6
-1.246, -1.309e-6
-1.245, -1.313e-6
-1.244, -1.298e-6
-1.243, -1.314e-6
-1.242, -1.287e-6
-1.241, -1.402e-6
-1.240, -1.351e-6
-1.239, -1.360e-6
-1.238, -1.373e-6
-1.237, -1.367e-6
-1.236, -1.433e-6
-1.235, -1.451e-6
-1.234, -1.442e-6
-1.233, -1.405e-6
-1.232, -1.428e-6
-1.231, -1.487e-6
-1.230, -1.513e-6
-1.229, -1.531e-6
-1.228, -1.507e-6
-1.227, -1.537e-6
-1.226, -1.510e-6
-1.225, -1.557e-6
-1.224, -1.542e-6
-1.223, -1.531e-6
-1.222, -1.597e-6
-1.221, -1.576e-6
-1.220, -1.650e-6
-1.219, -1.637e-6
-1.218, -1.621e-6
-1.217, -1.603e-6
-1.216, -1.629e-6
-1.215, -1.699e-6
-1.214, -1.651e-6
-1.213, -1.626e-6
-1.212, -1.675e-6
-1.211, -1.692e-6
-1.210, -1.724e-6
-1.209, -1.723e-6
-1.208, -1.726e-6
-1.207, -1.728e-6
-1.206, -1.758e-6
-1.205, -1.742e-6
-1.204, -1.771e-6
-1.203, -1.740e-6
-1.202, -1.797e-6
-1.201, -1.806e-6
-1.200, -1.814e-6
-1.199, -1.822e-6
-1.198, -1.803e-6
-1.197, -1.819e-6
-1.196, -1.780e-6
-1.195, -1.818e-6
-1.194, -1.841e-6
-1.193, -1.881e-6
-1.192, -1.865e-6
-1.191, -1.867e-6
-1.190, -1.940e-6
-1.189, -1.880e-6
-1.188, -1.881e-6
-1.187, -1.926e-6
-1.186, -1.895e-6
-1.185, -1.963e-6
-1.184, -1.893e-6
-1.183, -1.954e-6
-1.182, -1.976e-6
-1.181, -1.950e-6
-1.180, -2.001e-6
-1.179, -1.963e-6
-1.178, -1.986e-6
-1.177, -1.970e-6
-1.176, -1.968e-6
-1.175, -2.022e-6
-1.174, -2.072e-6
-1.173, -2.033e-6
-1.172, -2.030e-6
-1.171, -2.052e-6
-1.170, -2.071e-6
-1.169, -2.065e-6
-1.168, -2.011e-6
-1.167, -2.040e-6
-1.166, -2.074e-6
-1.165, -2.119e-6
-1.164, -2.104e-6
-1.163, -2.116e-6
-1.162, -2.092e-6
-1.161, -2.094e-6
-1.160, -2.152e-6
-1.159, -2.171e-6
-1.158, -2.160e-6
-1.157, -2.159e-6
-1.156, -2.157e-6
-1.155, -2.225e-6
-1.154, -2.188e-6
-1.153, -2.233e-6
-1.152, -2.174e-6
-1.151, -2.240e-6
-1.150, -2.198e-6
-1.149, -2.253e-6
-1.148, -2.194e-6
-1.147, -2.199e-6
-1.146, -2.209e-6
-1.145, -2.257e-6
-1.144, -2.311e-6
-1.143, -2.280e-6
-1.142, -2.350e-6
-1.141, -2.302e-6
-1.140, -2.342e-6
-1.139, -2.339e-6
-1.138, -2.333e-6
-1.137, -2.340e-6
-1.136, -2.297e-6
-1.135, -2.390e-6
-1.134, -2.369e-6
-1.133, -2.392e-6
-1.132, -2.435e-6
-1.131, -2.439e-6
-1.130, -2.457e-6
-1.129, -2.391e-6
-1.128, -2.415e-6
-1.127, -2.380e-6
-1.126, -2.482e-6
-1.125, -2.505e-6
-1.124, -2.485e-6
-1.123, -2.551e-6
-1.122, -2.503e-6
-1.121, -2.556e-6
-1.120, -2.572e-6
-1.119, -2.550e-6
-1.118, -2.568e-6
-1.117, -2.574e-6
-1.116, -2.607e-6
-1.115, -2.654e-6
-1.114, -2.629e-6
-1.113, -2.672e-6
-1.112, -2.653e-6
-1.111, -2.699e-6
-1.110, -2.737e-6
-1.109, -2.701e-6
-1.108, -2.698e-6
-1.107, -2.745e-6
-1.106, -2.722e-6
-1.105, -2.722e-6
-1.104, -2.725e-6
-1.103, -2.709e-6
-1.102, -2.776e-6
-1.101, -2.745e-6
-1.100, -2.870e-6
-1.099, -2.834e-6
-1.098, -2.855e-6
-1.097, -2.830e-6
-1.096, -2.836e-6
-1.095, -2.907e-6
-1.094, -2.885e-6
-1.093, -2.953e-6
-1.092, -2.884e-6
-1.091, -2.920e-6
-1.090, -2.932e-6
-1.089, -2.971e-6
-1.088, -2.983e-6
-1.087, -2.993e-6
-1.086, -3.065e-6
-1.085, -3.058e-6
-1.084, -3.068e-6
-1.083, -3.076e-6
-1.082, -3.059e-6
-1.081, -3.120e-6
-1.080, -3.101e-6
-1.079, -3.141e-6
-1.078, -3.174e-6
-1.077, -3.174e-6
-1.076, -3.196e-6
-1.075, -3.226e-6
-1.074, -3.234e-6
-1.073, -3.244e-6
-1.072, -3.225e-6
-1.071, -3.255e-6
-1.070, -3.294e-6
-1.069, -3.298e-6
-1.068, -3.332e-6
-1.067, -3.330e-6
-1.066, -3.378e-6
-1.065, -3.384e-6
-1.064, -3.397e-6
-1.063, -3.391e-6
-1.062, -3.424e-6
-1.061, -3.435e-6
-1.060, -3.426e-6
-1.059, -3.471e-6
-1.058, -3.501e-6
-1.057, -3.500e-6
-1.056, -3.526e-6
-1.055, -3.515e-6
-1.054, -3.583e-6
-1.053, -3.575e-6
-1.052, -3.606e-6
-1.051, -3.571e-6
-1.050, -3.616e-6
-1.049, -3.661e-6
-1.048, -3.615e-6
-1.047, -3.719e-6
-1.046, -3.712e-6
-1.045, -3.742e-6
-1.044, -3.771e-6
-1.043, -3.721e-6
-1.042, -3.750e-6
-1.041, -3.780e-6
-1.040, -3.813e-6
-1.039, -3.839e-6
-1.038, -3.835e-6
-1.037, -3.860e-6
-1.036, -3.932e-6
-1.035, -3.896e-6
-1.034, -3.891e-6
-1.033, -3.878e-6
-1.032, -3.948e-6
-1.031, -3.974e-6
-1.030, -4.026e-6
-1.029, -4.069e-6
-1.028, -4.001e-6
-1.027, -4.082e-6
-1.026, -4.030e-6
-1.025, -4.159e-6
-1.024, -4.120e-6
-1.023, -4.103e-6
-1.022, -4.198e-6
-1.021, -4.170e-6
-1.020, -4.249e-6
-1.019, -4.294e-6
-1.018, -4.268e-6
-1.017, -4.279e-6
-1.016, -4.289e-6
-1.015, -4.334e-6
-1.014, -4.377e-6
-1.013, -4.355e-6
-1.012, -4.373e-6
-1.011, -4.392e-6
-1.010, -4.449e-6
-1.009, -4.520e-6
-1.008, -4.460e-6
-1.007, -4.504e-6
-1.006, -4.548e-6
-1.005, -4.562e-6
-1.004, -4.610e-6
-1.003, -4.552e-6
-1.002, -4.645e-6
-1.001, -4.623e-6
-1.000, -2.276e-6
-1.001, -1.456e-6
-1.002, -1.053e-6
-1.003, -8.605e-7
-1.004, -6.119e-7
-1.005, -4.895e-7
-1.006, -3.337e-7
-1.007, -1.521e-7
-1.008, -5.643e-8
-1.009, 2.249e-8
-1.010, 1.340e-7
-1.011, 2.307e-7
-1.012, 3.402e-7
-1.013, 4.240e-7
-1.014, 4.388e-7
-1.015, 5.543e-7
-1.016, 5.839e-7
-1.017, 7.072e-7
-1.018, 7.486e-7
-1.019, 7.693e-7
-1.020, 8.187e-7
-1.021, 8.424e-7
-1.022, 9.686e-7
-1.023, 9.716e-7
-1.024, 1.028e-6
-1.025, 1.005e-6
-1.026, 1.079e-6
-1.027, 1.186e-6
-1.028, 1.158e-6
-1.029, 1.206e-6
-1.030, 1.215e-6
-1.031, 1.277e-6
-1.032, 1.299e-6
-1.033, 1.365e-6
-1.034, 1.343e-6
-1.035, 1.370e-6
-1.036, 1.406e-6
-1.037, 1.495e-6
-1.038, 1.479e-6
-1.039, 1.490e-6
-1.040, 1.526e-6
-1.041, 1.545e-6
-1.042, 1.632e-6
-1.043, 1.601e-6
-1.044, 1.624e-6
-1.045, 1.615e-6
-1.046, 1.592e-6
-1.047, 1.688e-6
-1.048, 1.673e-6
-1.049, 1.699e-6
-1.050, 1.704e-6
-1.051, 1.718e-6
-1.052, 1.788e-6
-1.053, 1.768e-6
-1.054, 1.785e-6
-1.055, 1.768e-6
-1.056, 1.773e-6
-1.057, 1.828e-6
-1.058, 1.835e-6
-1.059, 1.879e-6
-1.060, 1.842e-6
-1.061, 1.841e-6
-1.062, 1.865e-6
-1.063, 1.936e-6
-1.064, 1.883e-6
-1.065, 1.899e-6
-1.066, 1.910e-6
-1.067, 1.916e-6
-1.068, 1.971e-6
-1.069, 1.939e-6
-1.070, 1.923e-6
-1.071, 1.951e-6
-1.072, 1.936e-6
-1.073, 1.983e-6
-1.074, 1.999e-6
-1.075, 1.988e-6
-1.076, 2.021e-6
-1.077, 2.036e-6
-1.078, 2.001e-6
-1.079, 2.075e-6
-1.080, 2.042e-6
-1.081, 2.058e-6
-1.082, 2.049e-6
-1.083, 2.044e-6
-1.084, 2.086e-6
-1.085, 2.081e-6
-1.086, 2.067e-6
-1.087, 2.119e-6
-1.088, 2.127e-6
-1.089, 2.110e-6
-1.090, 2.100e-6
-1.091, 2.107e-6
-1.092, 2.126e-6
-1.093, 2.197e-6
-1.094, 2.122e-6
-1.095, 2.158e-6
-1.096, 2.149e-6
-1.097, 2.128e-6
-1.098, 2.232e-6
-1.099, 2.146e-6
-1.100, 2.175e-6
-1.101, 2.219e-6
-1.102, 2.200e-6
-1.103, 2.245e-6
-1.104, 2.252e-6
-1.105, 2.203e-6
-1.106, 2.224e-6
-1.107, 2.246e-6
-1.108, 2.268e-6
-1.109, 2.273e-6
-1.110, 2.222e-6
-1.111, 2.250e-6
-1.112, 2.266e-6
-1.113, 2.276e-6
-1.114, 2.349e-6
-1.115, 2.272e-6
-1.116, 2.334e-6
-1.117, 2.303e-6
-1.118, 2.336e-6
-1.119, 2.302e-6
-1.120, 2.287e-6
-1.121, 2.292e-6
-1.122, 2.325e-6
-1.123, 2.335e-6
-1.124, 2.316e-6
-1.125, 2.344e-6
-1.126, 2.349e-6
-1.127, 2.387e-6
-1.128, 2.371e-6
-1.129, 2.412e-6
-1.130, 2.367e-6
-1.131, 2.313e-6
-1.132, 2.383e-6
-1.133, 2.381e-6
-1.134, 2.399e-6
-1.135, 2.414e-6
-1.136, 2.396e-6
-1.137, 2.453e-6
-1.138, 2.472e-6
-1.139, 2.483e-6
-1.140, 2.443e-6
-1.141, 2.435e-6
-1.142, 2.435e-6
-1.143, 2.484e-6
-1.144, 2.490e-6
-1.145, 2.447e-6
-1.146, 2.505e-6
-1.147, 2.468e-6
-1.148, 2.523e-6
-1.149, 2.525e-6
-1.150, 2.485e-6
-1.151, 2.532e-6
-1.152, 2.470e-6
-1.153, 2.555e-6
-1.154, 2.509e-6
-1.155, 2.537e-6
-1.156, 2.512e-6
-1.157, 2.523e-6
-1.158, 2.563e-6
-1.159, 2.507e-6
-1.160, 2.540e-6
-1.161, 2.501e-6
-1.162, 2.550e-6
-1.163, 2.580e-6
-1.164, 2.546e-6
-1.165, 2.557e-6
-1.166, 2.527e-6
-1.167, 2.607e-6
-1.168, 2.594e-6
-1.169, 2.565e-6
-1.170, 2.585e-6
-1.171, 2.577e-6
-1.172, 2.579e-6
-1.173, 2.581e-6
-1.174, 2.574e-6
-1.175, 2.607e-6
-1.176, 2.567e-6
-1.177, 2.583e-6
-1.178, 2.639e-6
-1.179, 2.612e-6
-1.180, 2.673e-6
-1.181, 2.654e-6
-1.182, 2.655e-6
-1.183, 2.699e-6
-1.184, 2.686e-6
-1.185, 2.664e-6
-1.186, 2.639e-6
-1.187, 2.697e-6
-1.188, 2.709e-6
-1.189, 2.708e-6
-1.190, 2.710e-6
-1.191, 2.683e-6
-1.192, 2.724e-6
-1.193, 2.696e-6
-1.194, 2.700e-6
-1.195, 2.701e-6
-1.196, 2.663e-6
-1.197, 2.742e-6
-1.198, 2.732e-6
-1.199, 2.762e-6
-1.200, 2.750e-6
-1.201, 2.753e-6
-1.202, 2.789e-6
-1.203, 2.790e-6
-1.204, 2.799e-6
-1.205, 2.765e-6
-1.206, 2.781e-6
-1.207, 2.789e-6
-1.208, 2.794e-6
-1.209, 2.761e-6
-1.210, 2.826e-6
-1.211, 2.797e-6
-1.212, 2.802e-6
-1.213, 2.812e-6
-1.214, 2.787e-6
-1.215, 2.828e-6
-1.216, 2.785e-6
-1.217, 2.839e-6
-1.218, 2.844e-6
-1.219, 2.864e-6
-1.220, 2.811e-6
-1.221, 2.835e-6
-1.222, 2.895e-6
-1.223, 2.859e-6
-1.224, 2.902e-6
-1.225, 2.884e-6
-1.226, 2.886e-6
-1.227, 2.901e-6
-1.228, 2.901e-6
-1.229, 2.944e-6
-1.230, 2.899e-6
-1.231, 2.934e-6
-1.232, 2.968e-6
-1.233, 2.961e-6
-1.234, 3.051e-6
-1.235, 2.944e-6
-1.236, 3.025e-6
-1.237, 3.038e-6
-1.238, 3.027e-6
-1.239, 3.039e-6
-1.240, 2.979e-6
-1.241, 3.054e-6
-1.242, 3.080e-6
-1.243, 3.113e-6
-1.244, 3.112e-6
-1.245, 3.084e-6
-1.246, 3.122e-6
-1.247, 3.115e-6
-1.248, 3.151e-6
-1.249, 3.100e-6
-1.250, 3.114e-6
-1.251, 3.157e-6
-1.252, 3.118e-6
-1.253, 3.221e-6
-1.254, 3.244e-6
-1.255, 3.221e-6
-1.256, 3.215e-6
-1.257, 3.261e-6
-1.258, 3.277e-6
-1.259, 3.283e-6
-1.260, 3.282e-6
-1.261, 3.263e-6
-1.262, 3.327e-6
-1.263, 3.335e-6
-1.264, 3.371e-6
-1.265, 3.341e-6
-1.266, 3.389e-6
-1.267, 3.375e-6
-1.268, 3.397e-6
-1.269, 3.470e-6
-1.270, 3.395e-6
-1.271, 3.455e-6
-1.272, 3.468e-6
-1.273, 3.471e-6
-1.274, 3.514e-6
-1.275, 3.447e-6
-1.276, 3.509e-6
-1.277, 3.527e-6
-1.278, 3.539e-6
-1.279, 3.561e-6
-1.280, 3.554e-6
-1.281, 3.617e-6
-1.282, 3.642e-6
-1.283, 3.697e-6
-1.284, 3.640e-6
-1.285, 3.604e-6
-1.286, 3.658e-6
-1.287, 3.672e-6
-1.288, 3.695e-6
-1.289, 3.704e-6
-1.290, 3.712e-6
-1.291, 3.736e-6
-1.292, 3.742e-6
-1.293, 3.734e-6
-1.294, 3.795e-6
-1.295, 3.775e-6
-1.296, 3.791e-6
-1.297, 3.843e-6
-1.298, 3.900e-6
-1.299, 3.906e-6
-1.300, 3.891e-6
-1.301, 3.895e-6
-1.302, 3.923e-6
-1.303, 3.940e-6
-1.304, 3.973e-6
-1.305, 3.912e-6
-1.306, 3.990e-6
-1.307, 3.998e-6
-1.308, 4.013e-6
-1.309, 4.079e-6
-1.310, 4.064e-6
-1.311, 4.100e-6
-1.312, 4.066e-6
-1.313, 4.114e-6
-1.314, 4.140e-6
-1.315, 4.153e-6
-1.316, 4.179e-6
-1.317, 4.190e-6
-1.318, 4.251e-6
-1.319, 4.249e-6
-1.320, 4.314e-6
-1.321, 4.265e-6
-1.322, 4.322e-6
-1.323, 4.346e-6
-1.324, 4.369e-6
-1.325, 4.397e-6
-1.326, 4.370e-6
-1.327, 4.480e-6
-1.328, 4.475e-6
-1.329, 4.509e-6
-1.330, 4.553e-6
-1.331, 4.505e-6
-1.332, 4.613e-6
-1.333, 4.642e-6
-1.334, 4.642e-6
-1.335, 4.669e-6
-1.336, 4.666e-6
-1.337, 4.754e-6
-1.338, 4.766e-6
-1.339, 4.822e-6
-1.340, 4.815e-6
-1.341, 4.841e-6
-1.342, 4.885e-6
-1.343, 4.944e-6
-1.344, 4.978e-6
-1.345, 5.009e-6
-1.346, 5.036e-6
-1.347, 5.068e-6
-1.348, 5.139e-6
-1.349, 5.187e-6
-1.350, 5.159e-6
-1.351, 5.240e-6
-1.352, 5.248e-6
-1.353, 5.334e-6
-1.354, 5.367e-6
-1.355, 5.405e-6
-1.356, 5.410e-6
-1.357, 5.485e-6
-1.358, 5.559e-6
-1.359, 5.593e-6
-1.360, 5.660e-6
-1.361, 5.644e-6
-1.362, 5.705e-6
-1.363, 5.789e-6
-1.364, 5.838e-6
-1.365, 5.879e-6
-1.366, 5.890e-6
-1.367, 6.020e-6
-1.368, 6.085e-6
-1.369, 6.113e-6
-1.370, 6.250e-6
-1.371, 6.267e-6
-1.372, 6.332e-6
-1.373, 6.482e-6
-1.374, 6.501e-6
-1.375, 6.570e-6
-1.376, 6.631e-6
-1.377, 6.710e-6
-1.378, 6.767e-6
-1.379, 6.889e-6
-1.380, 6.909e-6
-1.381, 7.008e-6
-1.382, 7.126e-6
-1.383, 7.197e-6
-1.384, 7.325e-6
-1.385, 7.428e-6
-1.386, 7.510e-6
-1.387, 7.573e-6
-1.388, 7.673e-6
-1.389, 7.832e-6
-1.390, 7.845e-6
-1.391, 7.971e-6
-1.392, 8.141e-6
-1.393, 8.228e-6
-1.394, 8.376e-6
-1.395, 8.447e-6
-1.396, 8.532e-6
-1.397, 8.677e-6
-1.398, 8.810e-6
-1.399, 8.943e-6
-1.400, 9.099e-6
-1.401, 9.236e-6
-1.402, 9.380e-6
-1.403, 9.510e-6
-1.404, 9.719e-6
-1.405, 9.843e-6
-1.406, 9.956e-6
-1.407, 1.012e-5
-1.408, 1.031e-5
-1.409, 1.046e-5
-1.410, 1.065e-5
-1.411, 1.080e-5
-1.412, 1.099e-5
-1.413, 1.122e-5
-1.414, 1.140e-5
-1.415, 1.163e-5
-1.416, 1.183e-5
-1.417, 1.200e-5
-1.418, 1.223e-5
-1.419, 1.243e-5
-1.420, 1.265e-5
-1.421, 1.290e-5
-1.422, 1.308e-5
-1.423, 1.334e-5
-1.424, 1.365e-5
-1.425, 1.387e-5
-1.426, 1.412e-5
-1.427, 1.444e-5
-1.428, 1.469e-5
-1.429, 1.497e-5
-1.430, 1.526e-5
-1.431, 1.558e-5
-1.432, 1.588e-5
-1.433, 1.617e-5
-1.434, 1.656e-5
-1.435, 1.685e-5
-1.436, 1.723e-5
-1.437, 1.753e-5
-1.438, 1.786e-5
-1.439, 1.823e-5
-1.440, 1.860e-5
-1.441, 1.896e-5
-1.442, 1.936e-5
-1.443, 1.980e-5
-1.444, 2.020e-5
-1.445, 2.062e-5
-1.446, 2.101e-5
-1.447, 2.145e-5
-1.448, 2.195e-5
-1.449, 2.240e-5
-1.450, 2.289e-5
-1.451, 2.333e-5
-1.452, 2.382e-5
-1.453, 2.439e-5
-1.454, 2.487e-5
-1.455, 2.542e-5
-1.456, 2.589e-5
-1.457, 2.650e-5
-1.458, 2.708e-5
-1.459, 2.764e-5
-1.460, 2.824e-5
-1.461, 2.882e-5
-1.462, 2.949e-5
-1.463, 3.015e-5
-1.464, 3.077e-5
-1.465, 3.144e-5
-1.466, 3.209e-5
-1.467, 3.283e-5
-1.468, 3.358e-5
-1.469, 3.430e-5
-1.470, 3.504e-5
-1.471, 3.585e-5
-1.472, 3.658e-5
-1.473, 3.742e-5
-1.474, 3.824e-5
-1.475, 3.904e-5
-1.476, 3.992e-5
-1.477, 4.080e-5
-1.478, 4.176e-5
-1.479, 4.266e-5
-1.480, 4.359e-5
-1.481, 4.455e-5
-1.482, 4.550e-5
-1.483, 4.657e-5
-1.484, 4.755e-5
-1.485, 4.864e-5
-1.486, 4.968e-5
-1.487, 5.076e-5
-1.488, 5.197e-5
-1.489, 5.306e-5
-1.490, 5.430e-5
-1.491, 5.544e-5
-1.492, 5.670e-5
-1.493, 5.798e-5
-1.494, 5.922e-5
-1.495, 6.060e-5
-1.496, 6.188e-5
-1.497, 6.325e-5
-1.498, 6.469e-5
-1.499, 6.613e-5
-1.500, 6.760e-5
-1.501, 6.908e-5
-1.502, 7.059e-5
-1.503, 7.220e-5
-1.504, 7.384e-5
-1.505, 7.541e-5
-1.506, 7.714e-5
-1.507, 7.882e-5
-1.508, 8.059e-5
-1.509, 8.235e-5
-1.510, 8.416e-5
-1.511, 8.606e-5
-1.512, 8.793e-5
-1.513, 8.989e-5
-1.514, 9.188e-5
-1.515, 9.395e-5
-1.516, 9.598e-5
-1.517, 9.812e-5
-1.518, 1.003e-4
-1.519, 1.025e-4
-1.520, 1.048e-4
-1.521, 1.071e-4
-1.522, 1.095e-4
-1.523, 1.119e-4
-1.524, 1.144e-4
-1.525, 1.169e-4
-1.526, 1.195e-4
-1.527, 1.221e-4
-1.528, 1.248e-4
-1.529, 1.276e-4
-1.530, 1.304e-4
-1.531, 1.333e-4
-1.532, 1.362e-4
-1.533, 1.392e-4
-1.534, 1.423e-4
-1.535, 1.454e-4
-1.536, 1.486e-4
-1.537, 1.519e-4
-1.538, 1.552e-4
-1.539, 1.587e-4
-1.540, 1.621e-4
-1.541, 1.657e-4
-1.542, 1.693e-4
-1.543, 1.731e-4
-1.544, 1.770e-4
-1.545, 1.809e-4
-1.546, 1.848e-4
-1.547, 1.888e-4
-1.548, 1.929e-4
-1.549, 1.972e-4
-1.550, 2.015e-4
-1.551, 2.058e-4
-1.552, 2.102e-4
-1.553, 2.148e-4
-1.554, 2.196e-4
-1.555, 2.244e-4
-1.556, 2.293e-4
-1.557, 2.343e-4
-1.558, 2.394e-4
-1.559, 2.446e-4
-1.560, 2.499e-4
-1.561, 2.553e-4
-1.562, 2.609e-4
-1.563, 2.664e-4
-1.564, 2.723e-4
-1.565, 2.781e-4
-1.566, 2.841e-4
-1.567, 2.902e-4
-1.568, 2.963e-4
-1.569, 3.027e-4
-1.570, 3.092e-4
-1.571, 3.158e-4
-1.572, 3.226e-4
-1.573, 3.296e-4
-1.574, 3.366e-4
-1.575, 3.439e-4
-1.576, 3.510e-4
-1.577, 3.585e-4
-1.578, 3.661e-4
-1.579, 3.739e-4
-1.580, 3.818e-4
-1.581, 3.897e-4
-1.582, 3.978e-4
-1.583, 4.062e-4
-1.584, 4.146e-4
-1.585, 4.236e-4
-1.586, 4.325e-4
-1.587, 4.416e-4
-1.588, 4.510e-4
-1.589, 4.604e-4
-1.590, 4.699e-4
-1.591, 4.798e-4
-1.592, 4.895e-4
-1.593, 4.997e-4
-1.594, 5.101e-4
-1.595, 5.205e-4
-1.596, 5.308e-4
-1.597, 5.414e-4
-1.598, 5.526e-4
-1.599, 5.640e-4
-1.600, 5.757e-4
-1.601, 5.875e-4
-1.602, 5.996e-4
-1.603, 6.115e-4
-1.604, 6.234e-4
-1.605, 6.361e-4
-1.606, 6.489e-4
-1.607, 6.619e-4
-1.608, 6.751e-4
-1.609, 6.887e-4
-1.610, 7.024e-4
-1.611, 7.162e-4
-1.612, 7.302e-4
-1.613, 7.447e-4
-1.614, 7.593e-4
-1.615, 7.745e-4
-1.616, 7.895e-4
-1.617, 8.050e-4
-1.618, 8.210e-4
-1.619, 8.370e-4
-1.620, 8.532e-4
-1.621, 8.693e-4
-1.622, 8.855e-4
-1.623, 9.026e-4
-1.624, 9.197e-4
-1.625, 9.379e-4
-1.626, 9.556e-4
-1.627, 9.740e-4
-1.628, 9.929e-4
-1.629, 1.011e-3
-1.630, 1.030e-3
-1.631, 1.049e-3
-1.632, 1.068e-3
-1.633, 1.088e-3
-1.634, 1.107e-3
-1.635, 1.127e-3
-1.636, 1.149e-3
-1.637, 1.170e-3
-1.638, 1.191e-3
-1.639, 1.212e-3
-1.640, 1.234e-3
-1.641, 1.257e-3
-1.642, 1.279e-3
-1.643, 1.301e-3
-1.644, 1.324e-3
-1.645, 1.347e-3
-1.646, 1.371e-3
-1.647, 1.396e-3
-1.648, 1.421e-3
-1.649, 1.443e-3
-1.650, 1.469e-3
-1.651, 1.495e-3
-1.652, 1.521e-3
-1.653, 1.545e-3
-1.654, 1.570e-3
-1.655, 1.596e-3
-1.656, 1.622e-3
-1.657, 1.649e-3
-1.658, 1.677e-3
-1.659, 1.705e-3
-1.660, 1.734e-3
-1.661, 1.761e-3
-1.662, 1.788e-3
-1.663, 1.818e-3
-1.664, 1.847e-3
-1.665, 1.876e-3
-1.666, 1.904e-3
-1.667, 1.934e-3
-1.668, 1.966e-3
-1.669, 1.997e-3
-1.670, 2.029e-3
-1.671, 2.061e-3
-1.672, 2.088e-3
-1.673, 2.121e-3
-1.674, 2.153e-3
-1.675, 2.185e-3
-1.676, 2.218e-3
-1.677, 2.252e-3
-1.678, 2.285e-3
-1.679, 2.318e-3
-1.680, 2.351e-3
-1.681, 2.387e-3
-1.682, 2.422e-3
-1.683, 2.454e-3
-1.684, 2.490e-3
-1.685, 2.527e-3
-1.686, 2.564e-3
-1.687, 2.598e-3
-1.688, 2.634e-3
-1.689, 2.668e-3
-1.690, 2.706e-3
-1.691, 2.743e-3
-1.692, 2.782e-3
-1.693, 2.823e-3
-1.694, 2.861e-3
-1.695, 2.900e-3
-1.696, 2.936e-3
-1.697, 2.974e-3
-1.698, 3.011e-3
-1.699, 3.050e-3
-1.700, 3.090e-3
-1.701, 3.127e-3
-1.702, 3.172e-3
-1.703, 3.214e-3
-1.704, 3.247e-3
-1.705, 3.288e-3
-1.706, 3.333e-3
-1.707, 3.375e-3
-1.708, 3.416e-3
-1.709, 3.459e-3
-1.710, 3.489e-3
-1.711, 3.531e-3
-1.712, 3.570e-3
-1.713, 3.610e-3
-1.714, 3.665e-3
-1.715, 3.709e-3
-1.716, 3.748e-3
-1.717, 3.802e-3
-1.718, 3.853e-3
-1.719, 3.893e-3
-1.720, 3.939e-3
-1.721, 3.968e-3
-1.722, 4.011e-3
-1.723, 4.057e-3
-1.724, 4.099e-3
-1.725, 4.147e-3
-1.726, 4.202e-3
-1.727, 4.250e-3
-1.728, 4.294e-3
-1.729, 4.340e-3
-1.730, 4.388e-3
-1.731, 4.434e-3
-1.732, 4.487e-3
-1.733, 4.536e-3
-1.734, 4.576e-3
-1.735, 4.623e-3
-1.736, 4.666e-3
-1.737, 4.727e-3
-1.738, 4.773e-3
-1.739, 4.809e-3
-1.740, 4.864e-3
-1.741, 4.918e-3
-1.742, 4.978e-3
-1.743, 5.023e-3
-1.744, 5.068e-3
-1.745, 5.118e-3
-1.746, 5.164e-3
-1.747, 5.192e-3
-1.748, 5.244e-3
-1.749, 5.308e-3
-1.750, 5.364e-3
-1.751, 5.415e-3
-1.752, 5.463e-3
-1.753, 5.514e-3
-1.754, 5.571e-3
-1.755, 5.626e-3
-1.756, 5.683e-3
-1.757, 5.733e-3
-1.758, 5.785e-3
-1.759, 5.841e-3
-1.760, 5.895e-3
-1.761, 5.939e-3
-1.762, 5.990e-3
-1.763, 6.044e-3
-1.764, 6.111e-3
-1.765, 6.158e-3
-1.766, 6.218e-3
-1.767, 6.276e-3
-1.768, 6.333e-3
-1.769, 6.371e-3
-1.770, 6.429e-3
-1.771, 6.470e-3
-1.772, 6.527e-3
-1.773, 6.592e-3
-1.774, 6.636e-3
-1.775, 6.692e-3
-1.776, 6.753e-3
-1.777, 6.815e-3
-1.778, 6.877e-3
-1.779, 6.915e-3
-1.780, 6.976e-3
-1.781, 7.048e-3
-1.782, 7.092e-3
-1.783, 7.144e-3
-1.784, 7.183e-3
-1.785, 7.256e-3
-1.786, 7.315e-3
-1.787, 7.370e-3
-1.788, 7.423e-3
-1.789, 7.478e-3
-1.790, 7.532e-3
-1.791, 7.607e-3
-1.792, 7.699e-3
-1.793, 7.732e-3
-1.794, 7.798e-3
-1.795, 7.854e-3
-1.796, 7.900e-3
-1.797, 7.940e-3
-1.798, 7.963e-3
-1.799, 8.003e-3
-1.800, 8.001e-3
-1.799, 7.954e-3
-1.798, 7.891e-3
-1.797, 7.840e-3
-1.796, 7.816e-3
-1.795, 7.763e-3
-1.794, 7.664e-3
-1.793, 7.605e-3
-1.792, 7.557e-3
-1.791, 7.481e-3
-1.790, 7.392e-3
-1.789, 7.322e-3
-1.788, 7.280e-3
-1.787, 7.223e-3
-1.786, 7.159e-3
-1.785, 7.104e-3
-1.784, 7.032e-3
-1.783, 6.978e-3
-1.782, 6.931e-3
-1.781, 6.880e-3
-1.780, 6.817e-3
-1.779, 6.733e-3
-1.778, 6.674e-3
-1.777, 6.630e-3
-1.776, 6.553e-3
-1.775, 6.505e-3
-1.774, 6.437e-3
-1.773, 6.391e-3
-1.772, 6.340e-3
-1.771, 6.303e-3
-1.770, 6.261e-3
-1.769, 6.199e-3
-1.768, 6.141e-3
-1.767, 6.090e-3
-1.766, 6.051e-3
-1.765, 6.012e-3
-1.764, 5.956e-3
-1.763, 5.893e-3
-1.762, 5.831e-3
-1.761, 5.787e-3
-1.760, 5.731e-3
-1.759, 5.683e-3
-1.758, 5.650e-3
-1.757, 5.601e-3
-1.756, 5.563e-3
-1.755, 5.523e-3
-1.754, 5.467e-3
-1.753, 5.425e-3
-1.752, 5.376e-3
-1.751, 5.306e-3
-1.750, 5.302e-3
-1.749, 5.263e-3
-1.748, 5.231e-3
-1.747, 5.190e-3
-1.746, 5.142e-3
-1.745, 5.085e-3
-1.744, 5.038e-3
-1.743, 4.978e-3
-1.742, 4.937e-3
-1.741, 4.894e-3
-1.740, 4.857e-3
-1.739, 4.824e-3
-1.738, 4.780e-3
-1.737, 4.726e-3
-1.736, 4.674e-3
-1.735, 4.628e-3
-1.734, 4.588e-3
-1.733, 4.539e-3
-1.732, 4.486e-3
-1.731, 4.446e-3
-1.730, 4.413e-3
-1.729, 4.376e-3
-1.728, 4.337e-3
-1.727, 4.294e-3
-1.726, 4.251e-3
-1.725, 4.207e-3
-1.724, 4.167e-3
-1.723, 4.122e-3
-1.722, 4.085e-3
-1.721, 4.049e-3
-1.720, 4.005e-3
-1.719, 3.986e-3
-1.718, 3.976e-3
-1.717, 3.942e-3
-1.716, 3.897e-3
-1.715, 3.862e-3
-1.714, 3.818e-3
-1.713, 3.779e-3
-1.712, 3.732e-3
-1.711, 3.691e-3
-1.710, 3.656e-3
-1.709, 3.616e-3
-1.708, 3.587e-3
-1.707, 3.551e-3
-1.706, 3.514e-3
-1.705, 3.478e-3
-1.704, 3.437e-3
-1.703, 3.398e-3
-1.702, 3.366e-3
-1.701, 3.333e-3
-1.700, 3.298e-3
-1.699, 3.262e-3
-1.698, 3.217e-3
-1.697, 3.182e-3
-1.696, 3.152e-3
-1.695, 3.113e-3
-1.694, 3.077e-3
-1.693, 3.048e-3
-1.692, 3.015e-3
-1.691, 2.978e-3
-1.690, 2.934e-3
-1.689, 2.896e-3
-1.688, 2.864e-3
-1.687, 2.839e-3
-1.686, 2.811e-3
-1.685, 2.775e-3
-1.684, 2.742e-3
-1.683, 2.707e-3
-1.682, 2.676e-3
-1.681, 2.644e-3
-1.680, 2.619e-3
-1.679, 2.597e-3
-1.678, 2.570e-3
-1.677, 2.540e-3
-1.676, 2.501e-3
-1.675, 2.464e-3
-1.674, 2.431e-3
-1.673, 2.403e-3
-1.672, 2.374e-3
-1.671, 2.346e-3
-1.670, 2.320e-3
-1.669, 2.291e-3
-1.668, 2.263e-3
-1.667, 2.232e-3
-1.666, 2.204e-3
-1.665, 2.176e-3
-1.664, 2.146e-3
-1.663, 2.119e-3
-1.662, 2.094e-3
-1.661, 2.072e-3
-1.660, 2.046e-3
-1.659, 2.016e-3
-1.658, 1.985e-3
-1.657, 1.958e-3
-1.656, 1.935e-3
-1.655, 1.911e-3
-1.654, 1.889e-3
-1.653, 1.866e-3
-1.652, 1.842e-3
-1.651, 1.811e-3
-1.650, 1.779e-3
-1.649, 1.755e-3
-1.648, 1.733e-3
-1.647, 1.708e-3
-1.646, 1.683e-3
-1.645, 1.658e-3
-1.644, 1.637e-3
-1.643, 1.614e-3
-1.642, 1.593e-3
-1.641, 1.571e-3
-1.640, 1.551e-3
-1.639, 1.529e-3
-1.638, 1.508e-3
-1.637, 1.493e-3
-1.636, 1.470e-3
-1.635, 1.449e-3
-1.634, 1.429e-3
-1.633, 1.405e-3
-1.632, 1.383e-3
-1.631, 1.365e-3
-1.630, 1.344e-3
-1.629, 1.324e-3
-1.628, 1.303e-3
-1.627, 1.284e-3
-1.626, 1.264e-3
-1.625, 1.245e-3
-1.624, 1.226e-3
-1.623, 1.206e-3
-1.622, 1.189e-3
-1.621, 1.171e-3
-1.620, 1.150e-3
-1.619, 1.133e-3
-1.618, 1.116e-3
-1.617, 1.098e-3
-1.616, 1.081e-3
-1.615, 1.064e-3
-1.614, 1.046e-3
-1.613, 1.029e-3
-1.612, 1.013e-3
-1.611, 9.963e-4
-1.610, 9.804e-4
-1.609, 9.645e-4
-1.608, 9.490e-4
-1.607, 9.335e-4
-1.606, 9.174e-4
-1.605, 9.024e-4
-1.604, 8.874e-4
-1.603, 8.719e-4
-1.602, 8.575e-4
-1.601, 8.431e-4
-1.600, 8.287e-4
-1.599, 8.144e-4
-1.598, 8.004e-4
-1.597, 7.863e-4
-1.596, 7.725e-4
-1.595, 7.594e-4
-1.594, 7.460e-4
-1.593, 7.336e-4
-1.592, 7.215e-4
-1.591, 7.089e-4
-1.590, 6.964e-4
-1.589, 6.839e-4
-1.588, 6.714e-4
-1.587, 6.593e-4
-1.586, 6.476e-4
-1.585, 6.360e-4
-1.584, 6.248e-4
-1.583, 6.136e-4
-1.582, 6.028e-4
-1.581, 5.918e-4
-1.580, 5.811e-4
-1.579, 5.702e-4
-1.578, 5.598e-4
-1.577, 5.496e-4
-1.576, 5.394e-4
-1.575, 5.295e-4
-1.574, 5.200e-4
-1.573, 5.104e-4
-1.572, 5.007e-4
-1.571, 4.914e-4
-1.570, 4.823e-4
-1.569, 4.733e-4
-1.568, 4.642e-4
-1.567, 4.556e-4
-1.566, 4.465e-4
-1.565, 4.381e-4
-1.564, 4.299e-4
-1.563, 4.219e-4
-1.562, 4.135e-4
-1.561, 4.055e-4
-1.560, 3.978e-4
-1.559, 3.902e-4
-1.558, 3.825e-4
-1.557, 3.750e-4
-1.556, 3.678e-4
-1.555, 3.605e-4
-1.554, 3.534e-4
-1.553, 3.465e-4
-1.552, 3.397e-4
-1.551, 3.331e-4
-1.550, 3.265e-4
-1.549, 3.199e-4
-1.548, 3.134e-4
-1.547, 3.071e-4
-1.546, 3.011e-4
-1.545, 2.951e-4
-1.544, 2.893e-4
-1.543, 2.835e-4
-1.542, 2.777e-4
-1.541, 2.721e-4
-1.540, 2.667e-4
-1.539, 2.613e-4
-1.538, 2.559e-4
-1.537, 2.507e-4
-1.536, 2.458e-4
-1.535, 2.407e-4
-1.534, 2.358e-4
-1.533, 2.309e-4
-1.532, 2.261e-4
-1.531, 2.216e-4
-1.530, 2.170e-4
-1.529, 2.126e-4
-1.528, 2.082e-4
-1.527, 2.039e-4
-1.526, 1.997e-4
-1.525, 1.956e-4
-1.524, 1.915e-4
-1.523, 1.875e-4
-1.522, 1.836e-4
-1.521, 1.797e-4
-1.520, 1.760e-4
-1.519, 1.724e-4
-1.518, 1.688e-4
-1.517, 1.653e-4
-1.516, 1.618e-4
-1.515, 1.584e-4
-1.514, 1.551e-4
-1.513, 1.518e-4
-1.512, 1.486e-4
-1.511, 1.455e-4
-1.510, 1.424e-4
-1.509, 1.395e-4
-1.508, 1.364e-4
-1.507, 1.335e-4
-1.506, 1.308e-4
-1.505, 1.280e-4
-1.504, 1.253e-4
-1.503, 1.226e-4
-1.502, 1.200e-4
-1.501, 1.175e-4
-1.500, 1.150e-4
-1.499, 1.126e-4
-1.498, 1.101e-4
-1.497, 1.078e-4
-1.496, 1.056e-4
-1.495, 1.033e-4
-1.494, 1.011e-4
-1.493, 9.891e-5
-1.492, 9.684e-5
-1.491, 9.475e-5
-1.490, 9.275e-5
-1.489, 9.080e-5
-1.488, 8.879e-5
-1.487, 8.691e-5
-1.486, 8.504e-5
-1.485, 8.320e-5
-1.484, 8.135e-5
-1.483, 7.931e-5
-1.482, 7.767e-5
-1.481, 7.596e-5
-1.480, 7.437e-5
-1.479, 7.276e-5
-1.478, 7.117e-5
-1.477, 6.964e-5
-1.476, 6.813e-5
-1.475, 6.665e-5
-1.474, 6.525e-5
-1.473, 6.378e-5
-1.472, 6.246e-5
-1.471, 6.108e-5
-1.470, 5.970e-5
-1.469, 5.846e-5
-1.468, 5.715e-5
-1.467, 5.589e-5
-1.466, 5.470e-5
-1.465, 5.351e-5
-1.464, 5.243e-5
-1.463, 5.121e-5
-1.462, 5.010e-5
-1.461, 4.900e-5
-1.460, 4.793e-5
-1.459, 4.687e-5
-1.458, 4.587e-5
-1.457, 4.480e-5
-1.456, 4.389e-5
-1.455, 4.291e-5
-1.454, 4.199e-5
-1.453, 4.106e-5
-1.452, 4.015e-5
-1.451, 3.929e-5
-1.450, 3.844e-5
-1.449, 3.758e-5
-1.448, 3.669e-5
-1.447, 3.590e-5
-1.446, 3.514e-5
-1.445, 3.435e-5
-1.444, 3.362e-5
-1.443, 3.281e-5
-1.442, 3.213e-5
-1.441, 3.139e-5
-1.440, 3.070e-5
-1.439, 3.004e-5
-1.438, 2.932e-5
-1.437, 2.868e-5
-1.436, 2.806e-5
-1.435, 2.746e-5
-1.434, 2.681e-5
-1.433, 2.618e-5
-1.432, 2.563e-5
-1.431, 2.501e-5
-1.430, 2.448e-5
-1.429, 2.394e-5
-1.428, 2.335e-5
-1.427, 2.279e-5
-1.426, 2.233e-5
-1.425, 2.184e-5
-1.424, 2.135e-5
-1.423, 2.085e-5
-1.422, 2.032e-5
-1.421, 1.990e-5
-1.420, 1.942e-5
-1.419, 1.901e-5
-1.418, 1.859e-5
-1.417, 1.816e-5
-1.416, 1.777e-5
-1.415, 1.735e-5
-1.414, 1.698e-5
-1.413, 1.651e-5
-1.412, 1.613e-5
-1.411, 1.570e-5
-1.410, 1.541e-5
-1.409, 1.502e-5
-1.408, 1.470e-5
-1.407, 1.434e-5
-1.406, 1.400e-5
-1.405, 1.371e-5
-1.404, 1.335e-5
-1.403, 1.305e-5
-1.402, 1.269e-5
-1.401, 1.243e-5
-1.400, 1.215e-5
-1.399, 1.186e-5
-1.398, 1.156e-5
-1.397, 1.127e-5
-1.396, 1.103e-5
-1.395, 1.073e-5
-1.394, 1.048e-5
-1.393, 1.022e-5
-1.392, 9.924e-6
-1.391, 9.743e-6
-1.390, 9.454e-6
-1.389, 9.263e-6
-1.388, 9.030e-6
-1.387, 8.786e-6
-1.386, 8.611e-6
-1.385, 8.397e-6
-1.384, 8.213e-6
-1.383, 7.922e-6
-1.382, 7.701e-6
-1.381, 7.524e-6
-1.380, 7.332e-6
-1.379, 7.158e-6
-1.378, 6.957e-6
-1.377, 6.782e-6
-1.376, 6.610e-6
-1.375, 6.448e-6
-1.374, 6.258e-6
-1.373, 6.068e-6
-1.372, 5.901e-6
-1.371, 5.714e-6
-1.370, 5.643e-6
-1.369, 5.465e-6
-1.368, 5.337e-6
-1.367, 5.141e-6
-1.366, 4.993e-6
-1.365, 4.889e-6
-1.364, 4.687e-6
-1.363, 4.574e-6
-1.362, 4.412e-6
-1.361, 4.307e-6
-1.360, 4.189e-6
-1.359, 4.108e-6
-1.358, 3.938e-6
-1.357, 3.817e-6
-1.356, 3.702e-6
-1.355, 3.588e-6
-1.354, 3.502e-6
-1.353, 3.389e-6
-1.352, 3.182e-6
-1.351, 3.165e-6
-1.350, 3.036e-6
-1.349, 2.952e-6
-1.348, 2.850e-6
-1.347, 2.686e-6
-1.346, 2.625e-6
-1.345, 2.539e-6
-1.344, 2.465e-6
-1.343, 2.366e-6
-1.342, 2.273e-6
-1.341, 2.201e-6
-1.340, 2.111e-6
-1.339, 2.017e-6
-1.338, 1.928e-6
-1.337, 1.842e-6
-1.336, 1.780e-6
-1.335, 1.742e-6
-1.334, 1.665e-6
-1.333, 1.573e-6
-1.332, 1.505e-6
-1.331, 1.390e-6
-1.330, 1.336e-6
-1.329, 1.260e-6
-1.328, 1.252e-6
-1.327, 1.125e-6
-1.326, 1.070e-6
-1.325, 1.066e-6
-1.324, 1.000e-6
-1.323, 9.371e-7
-1.322, 7.822e-7
-1.321, 7.891e-7
-1.320, 7.092e-7
-1.319, 6.865e-7
-1.318, 6.243e-7
-1.317, 5.572e-7
-1.316, 5.345e-7
-1.315, 4.467e-7
-1.314, 4.319e-7
-1.313, 3.530e-7
-1.312, 2.968e-7
-1.311, 2.474e-7
-1.310, 1.961e-7
-1.309, 2.080e-7
-1.308, 1.438e-7
-1.307, 8.169e-8
-1.306, 7.676e-8
-1.305, -1.598e-8
-1.304, -3.670e-8
-1.303, -8.603e-8
-1.302, -1.067e-7
-1.301, -1.206e-7
-1.300, -1.650e-7
-1.299, -1.896e-7
-1.298, -2.587e-7
-1.297, -2.932e-7
-1.296, -3.149e-7
-1.295, -3.376e-7
-1.294, -3.820e-7
-1.293, -3.968e-7
-1.292, -4.106e-7
-1.291, -4.757e-7
-1.290, -4.254e-7
-1.289, -5.339e-7
-1.288, -5.478e-7
-1.287, -5.734e-7
-1.286, -6.109e-7
-1.285, -6.198e-7
-1.284, -6.583e-7
-1.283, -6.898e-7
-1.282, -7.076e-7
-1.281, -7.549e-7
-1.280, -7.500e-7
-1.279, -7.905e-7
-1.278, -7.984e-7
-1.277, -8.299e-7
-1.276, -8.901e-7
-1.275, -8.704e-7
-1.274, -9.029e-7
-1.273, -9.138e-7
-1.272, -9.513e-7
-1.271, -9.602e-7
-1.270, -9.690e-7
-1.269, -1.016e-6
-1.268, -9.828e-7
-1.267, -1.039e-6
-1.266, -1.063e-6
-1.265, -1.058e-6
-1.264, -1.121e-6
-1.263, -1.112e-6
-1.262, -1.174e-6
-1.261, -1.135e-6
-1.260, -1.149e-6
-1.259, -1.173e-6
-1.258, -1.178e-6
-1.257, -1.230e-6
-1.256, -1.197e-6
-1.255, -1.221e-6
-1.254, -1.249e-6
-1.253, -1.269e-6
-1.252, -1.300e-6
-1.251, -1.312e-6
-1.250, -1.286e-6
-1.249, -1.290e-6
-1.248, -1.287e-6
-1.247, -1.341e-6
-1.246, -1.379e-6
-1.245, -1.335e-6
-1.244, -1.390e-6
-1.243, -1.385e-6
-1.242, -1.397e-6
-1.241, -1.416e-6
-1.240, -1.394e-6
-1.239, -1.431e-6
-1.238, -1.483e-6
-1.237, -1.477e-6
-1.236, -1.504e-6
-1.235, -1.483e-6
-1.234, -1.521e-6
-1.233, -1.492e-6
-1.232, -1.521e-6
-1.231, -1.535e-6
-1.230, -1.511e-6
-1.229, -1.597e-6
-1.228, -1.574e-6
-1.227, -1.593e-6
-1.226, -1.625e-6
-1.225, -1.573e-6
-1.224, -1.617e-6
-1.223, -1.585e-6
-1.222, -1.649e-6
-1.221, -1.653e-6
-1.220, -1.601e-6
-1.219, -1.658e-6
-1.218, -1.626e-6
-1.217, -1.643e-6
-1.216, -1.637e-6
-1.215, -1.583e-6
-1.214, -1.676e-6
-1.213, -1.626e-6
-1.212, -1.701e-6
-1.211, -1.747e-6
-1.210, -1.674e-6
-1.209, -1.713e-6
-1.208, -1.656e-6
-1.207, -1.690e-6
-1.206, -1.734e-6
-1.205, -1.721e-6
-1.204, -1.747e-6
-1.203, -1.789e-6
-1.202, -1.775e-6
-1.201, -1.814e-6
-1.200, -1.739e-6
-1.199, -1.767e-6
-1.198, -1.752e-6
-1.197, -1.800e-6
-1.196, -1.803e-6
-1.195, -1.788e-6
-1.194, -1.798e-6
-1.193, -1.829e-6
-1.192, -1.830e-6
-1.191, -1.807e-6
-1.190, -1.783e-6
-1.189, -1.764e-6
-1.188, -1.801e-6
-1.187, -1.856e-6
-1.186, -1.872e-6
-1.185, -1.836e-6
-1.184, -1.833e-6
-1.183, -1.885e-6
-1.182, -1.867e-6
-1.181, -1.911e-6
-1.180, -1.848e-6
-1.179, -1.892e-6
-1.178, -1.918e-6
-1.177, -1.938e-6
-1.176, -1.913e-6
-1.175, -1.880e-6
-1.174, -1.859e-6
-1.173, -1.889e-6
-1.172, -1.911e-6
-1.171, -1.961e-6
-1.170, -1.939e-6
-1.169, -1.932e-6
-1.168, -1.950e-6
-1.167, -1.988e-6
-1.166, -2.012e-6
-1.165, -1.952e-6
-1.164, -1.945e-6
-1.163, -2.007e-6
-1.162, -1.989e-6
-1.161, -2.043e-6
-1.160, -2.028e-6
-1.159, -2.037e-6
-1.158, -2.039e-6
-1.157, -2.060e-6
-1.156, -2.087e-6
-1.155, -2.102e-6
-1.154, -2.053e-6
-1.153, -2.062e-6
-1.152, -2.114e-6
-1.151, -2.133e-6
-1.150, -2.133e-6
-1.149, -2.144e-6
-1.148, -2.123e-6
-1.147, -2.171e-6
-1.146, -2.141e-6
-1.145, -2.160e-6
-1.144, -2.100e-6
-1.143, -2.153e-6
-1.142, -2.190e-6
-1.141, -2.162e-6
-1.140, -2.181e-6
-1.139, -2.225e-6
-1.138, -2.273e-6
-1.137, -2.272e-6
-1.136, -2.280e-6
-1.135, -2.268e-6
-1.134, -2.263e-6
-1.133, -2.264e-6
-1.132, -2.313e-6
-1.131, -2.305e-6
-1.130, -2.380e-6
-1.129, -2.317e-6
-1.128, -2.402e-6
-1.127, -2.369e-6
-1.126, -2.358e-6
-1.125, -2.406e-6
-1.124, -2.339e-6
-1.123, -2.455e-6
-1.122, -2.470e-6
-1.121, -2.485e-6
-1.120, -2.509e-6
-1.119, -2.477e-6
-1.118, -2.535e-6
-1.117, -2.498e-6
-1.116, -2.513e-6
-1.115, -2.520e-6
-1.114, -2.497e-6
-1.113, -2.630e-6
-1.112, -2.647e-6
-1.111, -2.647e-6
-1.110, -2.665e-6
-1.109, -2.623e-6
-1.108, -2.673e-6
-1.107, -2.646e-6
-1.106, -2.692e-6
-1.105, -2.721e-6
-1.104, -2.744e-6
-1.103, -2.719e-6
-1.102, -2.765e-6
-1.101, -2.816e-6
-1.100, -2.775e-6
-1.099, -2.819e-6
-1.098, -2.809e-6
-1.097, -2.833e-6
-1.096, -2.842e-6
-1.095, -2.828e-6
-1.094, -2.854e-6
-1.093, -2.845e-6
-1.092, -2.887e-6
-1.091, -2.944e-6
-1.090, -2.932e-6
-1.089, -2.988e-6
-1.088, -2.932e-6
-1.087, -3.016e-6
-1.086, -3.060e-6
-1.085, -3.000e-6
-1.084, -3.008e-6
-1.083, -3.016e-6
-1.082, -3.081e-6
-1.081, -3.129e-6
-1.080, -3.126e-6
-1.079, -3.129e-6
-1.078, -3.143e-6
-1.077, -3.194e-6
-1.076, -3.201e-6
-1.075, -3.248e-6
-1.074, -3.210e-6
-1.073, -3.252e-6
-1.072, -3.263e-6
-1.071, -3.299e-6
-1.070, -3.334e-6
-1.069, -3.285e-6
-1.068, -3.338e-6
-1.067, -3.378e-6
-1.066, -3.363e-6
-1.065, -3.432e-6
-1.064, -3.377e-6
-1.063, -3.448e-6
-1.062, -3.468e-6
-1.061, -3.467e-6
-1.060, -3.481e-6
-1.059, -3.503e-6
-1.058, -3.521e-6
-1.057, -3.559e-6
-1.056, -3.568e-6
-1.055, -3.570e-6
-1.054, -3.607e-6
-1.053, -3.613e-6
-1.052, -3.640e-6
-1.051, -3.695e-6
-1.050, -3.665e-6
-1.049, -3.691e-6
-1.048, -3.724e-6
-1.047, -3.766e-6
-1.046, -3.786e-6
-1.045, -3.768e-6
-1.044, -3.796e-6
-1.043, -3.800e-6
-1.042, -3.813e-6
-1.041, -3.852e-6
-1.040, -3.873e-6
-1.039, -3.839e-6
-1.038, -3.932e-6
-1.037, -3.908e-6
-1.036, -3.959e-6
-1.035, -3.979e-6
-1.034, -3.935e-6
-1.033, -4.036e-6
-1.032, -4.029e-6
-1.031, -4.080e-6
-1.030, -4.088e-6
-1.029, -3.986e-6
-1.028, -4.054e-6
-1.027, -4.053e-6
-1.026, -4.128e-6
-1.025, -4.143e-6
-1.024, -4.168e-6
-1.023, -4.213e-6
-1.022, -4.252e-6
-1.021, -4.281e-6
-1.020, -4.226e-6
-1.019, -4.244e-6
-1.018, -4.274e-6
-1.017, -4.335e-6
-1.016, -4.413e-6
-1.015, -4.341e-6
-1.014, -4.380e-6
-1.013, -4.377e-6
-1.012, -4.409e-6
-1.011, -4.514e-6
-1.010, -4.449e-6
-1.009, -4.473e-6
-1.008, -4.457e-6
-1.007, -4.515e-6
-1.006, -4.610e-6
-1.005, -4.548e-6
-1.004, -4.577e-6
-1.003, -4.620e-6
-1.002, -4.646e-6
-1.001, -4.686e-6
