Apr. 26, 2025   15:29:36
Cyclic Voltammetry
File: c:/users/guazh/data/banditlqround7_x0exp590_r20/2025-04-16-exp1196\exp1196-2025-04-26t15_16_42-arkoh\exp1196_cv_50mvs_efin_-1800mv.bin
Data Source:  Experiment
Instrument Model:  CHI760E
Header: CV ran at 50 mVs
Note: 

Init E (V) = -1
High E (V) = -1
Low E (V) = -1.8
Final E (V) = -1
Init P/N = N
Scan Rate (V/s) = 0.05
Segment = 7
Sample Interval (V) = 0.001
Quiet Time (sec) = 60
Sensitivity (A/V) = 0.001
Comp R (ohm) = 1.7

Results:

Channel 1:
Segment 1:
Ep = -1.185V
ip = 2.314e-7A
Ah = 2.268e-7C

Segment 2:

Segment 3:

Segment 4:

Segment 5:

Segment 6:

Segment 7:

Potential/V, Current/A

-1.000, 3.126e-7
-1.001, 3.491e-7
-1.002, 3.530e-7
-1.003, 3.431e-7
-1.004, 3.846e-7
-1.005, 4.161e-7
-1.006, 4.211e-7
-1.007, 4.122e-7
-1.008, 4.053e-7
-1.009, 4.408e-7
-1.010, 4.586e-7
-1.011, 4.635e-7
-1.012, 4.625e-7
-1.013, 4.536e-7
-1.014, 5.010e-7
-1.015, 4.990e-7
-1.016, 4.783e-7
-1.017, 5.178e-7
-1.018, 4.744e-7
-1.019, 5.365e-7
-1.020, 5.375e-7
-1.021, 5.316e-7
-1.022, 5.523e-7
-1.023, 5.079e-7
-1.024, 5.434e-7
-1.025, 5.819e-7
-1.026, 5.730e-7
-1.027, 5.681e-7
-1.028, 5.464e-7
-1.029, 6.056e-7
-1.030, 6.194e-7
-1.031, 5.997e-7
-1.032, 6.016e-7
-1.033, 6.085e-7
-1.034, 5.937e-7
-1.035, 6.263e-7
-1.036, 6.352e-7
-1.037, 6.026e-7
-1.038, 6.154e-7
-1.039, 6.302e-7
-1.040, 6.776e-7
-1.041, 6.569e-7
-1.042, 6.687e-7
-1.043, 6.569e-7
-1.044, 6.766e-7
-1.045, 7.092e-7
-1.046, 6.865e-7
-1.047, 6.884e-7
-1.048, 6.914e-7
-1.049, 6.904e-7
-1.050, 7.121e-7
-1.051, 7.151e-7
-1.052, 6.963e-7
-1.053, 7.210e-7
-1.054, 7.180e-7
-1.055, 7.161e-7
-1.056, 7.368e-7
-1.057, 7.082e-7
-1.058, 7.319e-7
-1.059, 7.605e-7
-1.060, 7.802e-7
-1.061, 7.822e-7
-1.062, 7.486e-7
-1.063, 7.822e-7
-1.064, 7.960e-7
-1.065, 7.871e-7
-1.066, 8.206e-7
-1.067, 7.624e-7
-1.068, 7.881e-7
-1.069, 8.345e-7
-1.070, 8.059e-7
-1.071, 8.335e-7
-1.072, 8.068e-7
-1.073, 8.118e-7
-1.074, 8.611e-7
-1.075, 8.483e-7
-1.076, 8.374e-7
-1.077, 8.364e-7
-1.078, 8.641e-7
-1.079, 9.075e-7
-1.080, 8.779e-7
-1.081, 8.650e-7
-1.082, 8.720e-7
-1.083, 8.453e-7
-1.084, 9.075e-7
-1.085, 9.233e-7
-1.086, 8.956e-7
-1.087, 9.193e-7
-1.088, 9.085e-7
-1.089, 9.479e-7
-1.090, 9.588e-7
-1.091, 9.006e-7
-1.092, 9.420e-7
-1.093, 9.430e-7
-1.094, 9.489e-7
-1.095, 9.884e-7
-1.096, 9.420e-7
-1.097, 9.864e-7
-1.098, 9.686e-7
-1.099, 1.006e-6
-1.100, 1.029e-6
-1.101, 1.007e-6
-1.102, 9.933e-7
-1.103, 9.973e-7
-1.104, 1.040e-6
-1.105, 1.062e-6
-1.106, 1.030e-6
-1.107, 1.021e-6
-1.108, 1.063e-6
-1.109, 1.080e-6
-1.110, 1.087e-6
-1.111, 1.062e-6
-1.112, 1.038e-6
-1.113, 1.098e-6
-1.114, 1.100e-6
-1.115, 1.134e-6
-1.116, 1.101e-6
-1.117, 1.103e-6
-1.118, 1.139e-6
-1.119, 1.168e-6
-1.120, 1.183e-6
-1.121, 1.166e-6
-1.122, 1.124e-6
-1.123, 1.148e-6
-1.124, 1.171e-6
-1.125, 1.200e-6
-1.126, 1.194e-6
-1.127, 1.195e-6
-1.128, 1.228e-6
-1.129, 1.218e-6
-1.130, 1.270e-6
-1.131, 1.222e-6
-1.132, 1.234e-6
-1.133, 1.245e-6
-1.134, 1.262e-6
-1.135, 1.299e-6
-1.136, 1.288e-6
-1.137, 1.265e-6
-1.138, 1.300e-6
-1.139, 1.323e-6
-1.140, 1.350e-6
-1.141, 1.337e-6
-1.142, 1.310e-6
-1.143, 1.354e-6
-1.144, 1.346e-6
-1.145, 1.395e-6
-1.146, 1.394e-6
-1.147, 1.347e-6
-1.148, 1.399e-6
-1.149, 1.416e-6
-1.150, 1.396e-6
-1.151, 1.423e-6
-1.152, 1.388e-6
-1.153, 1.400e-6
-1.154, 1.465e-6
-1.155, 1.438e-6
-1.156, 1.463e-6
-1.157, 1.458e-6
-1.158, 1.459e-6
-1.159, 1.489e-6
-1.160, 1.506e-6
-1.161, 1.488e-6
-1.162, 1.503e-6
-1.163, 1.474e-6
-1.164, 1.511e-6
-1.165, 1.535e-6
-1.166, 1.537e-6
-1.167, 1.537e-6
-1.168, 1.534e-6
-1.169, 1.533e-6
-1.170, 1.537e-6
-1.171, 1.529e-6
-1.172, 1.539e-6
-1.173, 1.558e-6
-1.174, 1.586e-6
-1.175, 1.586e-6
-1.176, 1.550e-6
-1.177, 1.588e-6
-1.178, 1.571e-6
-1.179, 1.605e-6
-1.180, 1.597e-6
-1.181, 1.577e-6
-1.182, 1.598e-6
-1.183, 1.584e-6
-1.184, 1.598e-6
-1.185, 1.658e-6
-1.186, 1.585e-6
-1.187, 1.599e-6
-1.188, 1.612e-6
-1.189, 1.604e-6
-1.190, 1.620e-6
-1.191, 1.613e-6
-1.192, 1.582e-6
-1.193, 1.616e-6
-1.194, 1.613e-6
-1.195, 1.639e-6
-1.196, 1.587e-6
-1.197, 1.620e-6
-1.198, 1.616e-6
-1.199, 1.627e-6
-1.200, 1.641e-6
-1.201, 1.623e-6
-1.202, 1.558e-6
-1.203, 1.616e-6
-1.204, 1.595e-6
-1.205, 1.616e-6
-1.206, 1.593e-6
-1.207, 1.536e-6
-1.208, 1.590e-6
-1.209, 1.607e-6
-1.210, 1.581e-6
-1.211, 1.576e-6
-1.212, 1.576e-6
-1.213, 1.573e-6
-1.214, 1.612e-6
-1.215, 1.597e-6
-1.216, 1.578e-6
-1.217, 1.543e-6
-1.218, 1.566e-6
-1.219, 1.555e-6
-1.220, 1.549e-6
-1.221, 1.588e-6
-1.222, 1.518e-6
-1.223, 1.578e-6
-1.224, 1.584e-6
-1.225, 1.553e-6
-1.226, 1.570e-6
-1.227, 1.510e-6
-1.228, 1.527e-6
-1.229, 1.593e-6
-1.230, 1.549e-6
-1.231, 1.545e-6
-1.232, 1.547e-6
-1.233, 1.548e-6
-1.234, 1.588e-6
-1.235, 1.562e-6
-1.236, 1.544e-6
-1.237, 1.538e-6
-1.238, 1.539e-6
-1.239, 1.568e-6
-1.240, 1.543e-6
-1.241, 1.527e-6
-1.242, 1.532e-6
-1.243, 1.519e-6
-1.244, 1.593e-6
-1.245, 1.549e-6
-1.246, 1.506e-6
-1.247, 1.513e-6
-1.248, 1.524e-6
-1.249, 1.589e-6
-1.250, 1.577e-6
-1.251, 1.525e-6
-1.252, 1.555e-6
-1.253, 1.560e-6
-1.254, 1.586e-6
-1.255, 1.608e-6
-1.256, 1.548e-6
-1.257, 1.515e-6
-1.258, 1.566e-6
-1.259, 1.568e-6
-1.260, 1.575e-6
-1.261, 1.542e-6
-1.262, 1.568e-6
-1.263, 1.572e-6
-1.264, 1.580e-6
-1.265, 1.601e-6
-1.266, 1.557e-6
-1.267, 1.546e-6
-1.268, 1.555e-6
-1.269, 1.583e-6
-1.270, 1.586e-6
-1.271, 1.580e-6
-1.272, 1.550e-6
-1.273, 1.574e-6
-1.274, 1.617e-6
-1.275, 1.625e-6
-1.276, 1.565e-6
-1.277, 1.561e-6
-1.278, 1.584e-6
-1.279, 1.605e-6
-1.280, 1.623e-6
-1.281, 1.605e-6
-1.282, 1.580e-6
-1.283, 1.602e-6
-1.284, 1.621e-6
-1.285, 1.616e-6
-1.286, 1.593e-6
-1.287, 1.602e-6
-1.288, 1.607e-6
-1.289, 1.638e-6
-1.290, 1.645e-6
-1.291, 1.631e-6
-1.292, 1.606e-6
-1.293, 1.635e-6
-1.294, 1.679e-6
-1.295, 1.664e-6
-1.296, 1.637e-6
-1.297, 1.648e-6
-1.298, 1.627e-6
-1.299, 1.670e-6
-1.300, 1.682e-6
-1.301, 1.679e-6
-1.302, 1.648e-6
-1.303, 1.673e-6
-1.304, 1.683e-6
-1.305, 1.670e-6
-1.306, 1.669e-6
-1.307, 1.678e-6
-1.308, 1.665e-6
-1.309, 1.720e-6
-1.310, 1.718e-6
-1.311, 1.702e-6
-1.312, 1.696e-6
-1.313, 1.675e-6
-1.314, 1.729e-6
-1.315, 1.719e-6
-1.316, 1.680e-6
-1.317, 1.698e-6
-1.318, 1.684e-6
-1.319, 1.744e-6
-1.320, 1.762e-6
-1.321, 1.715e-6
-1.322, 1.718e-6
-1.323, 1.696e-6
-1.324, 1.761e-6
-1.325, 1.763e-6
-1.326, 1.721e-6
-1.327, 1.747e-6
-1.328, 1.745e-6
-1.329, 1.765e-6
-1.330, 1.791e-6
-1.331, 1.758e-6
-1.332, 1.732e-6
-1.333, 1.746e-6
-1.334, 1.783e-6
-1.335, 1.798e-6
-1.336, 1.750e-6
-1.337, 1.747e-6
-1.338, 1.802e-6
-1.339, 1.804e-6
-1.340, 1.801e-6
-1.341, 1.787e-6
-1.342, 1.766e-6
-1.343, 1.777e-6
-1.344, 1.784e-6
-1.345, 1.811e-6
-1.346, 1.793e-6
-1.347, 1.796e-6
-1.348, 1.814e-6
-1.349, 1.832e-6
-1.350, 1.829e-6
-1.351, 1.799e-6
-1.352, 1.795e-6
-1.353, 1.800e-6
-1.354, 1.828e-6
-1.355, 1.858e-6
-1.356, 1.828e-6
-1.357, 1.794e-6
-1.358, 1.864e-6
-1.359, 1.880e-6
-1.360, 1.849e-6
-1.361, 1.838e-6
-1.362, 1.853e-6
-1.363, 1.831e-6
-1.364, 1.873e-6
-1.365, 1.878e-6
-1.366, 1.871e-6
-1.367, 1.858e-6
-1.368, 1.888e-6
-1.369, 1.905e-6
-1.370, 1.885e-6
-1.371, 1.845e-6
-1.372, 1.910e-6
-1.373, 1.892e-6
-1.374, 1.921e-6
-1.375, 1.905e-6
-1.376, 1.910e-6
-1.377, 1.901e-6
-1.378, 1.892e-6
-1.379, 1.938e-6
-1.380, 1.907e-6
-1.381, 1.874e-6
-1.382, 1.908e-6
-1.383, 1.919e-6
-1.384, 1.983e-6
-1.385, 1.967e-6
-1.386, 1.940e-6
-1.387, 1.945e-6
-1.388, 1.974e-6
-1.389, 2.004e-6
-1.390, 1.997e-6
-1.391, 1.947e-6
-1.392, 1.957e-6
-1.393, 1.978e-6
-1.394, 2.000e-6
-1.395, 2.032e-6
-1.396, 1.994e-6
-1.397, 2.002e-6
-1.398, 2.028e-6
-1.399, 2.053e-6
-1.400, 2.033e-6
-1.401, 1.987e-6
-1.402, 2.032e-6
-1.403, 2.032e-6
-1.404, 2.048e-6
-1.405, 2.084e-6
-1.406, 2.008e-6
-1.407, 2.028e-6
-1.408, 2.056e-6
-1.409, 2.063e-6
-1.410, 2.080e-6
-1.411, 2.047e-6
-1.412, 2.055e-6
-1.413, 2.099e-6
-1.414, 2.121e-6
-1.415, 2.145e-6
-1.416, 2.096e-6
-1.417, 2.062e-6
-1.418, 2.120e-6
-1.419, 2.112e-6
-1.420, 2.147e-6
-1.421, 2.122e-6
-1.422, 2.084e-6
-1.423, 2.153e-6
-1.424, 2.181e-6
-1.425, 2.160e-6
-1.426, 2.197e-6
-1.427, 2.123e-6
-1.428, 2.171e-6
-1.429, 2.217e-6
-1.430, 2.207e-6
-1.431, 2.182e-6
-1.432, 2.195e-6
-1.433, 2.183e-6
-1.434, 2.249e-6
-1.435, 2.252e-6
-1.436, 2.215e-6
-1.437, 2.225e-6
-1.438, 2.222e-6
-1.439, 2.276e-6
-1.440, 2.282e-6
-1.441, 2.247e-6
-1.442, 2.246e-6
-1.443, 2.243e-6
-1.444, 2.311e-6
-1.445, 2.286e-6
-1.446, 2.283e-6
-1.447, 2.281e-6
-1.448, 2.269e-6
-1.449, 2.353e-6
-1.450, 2.367e-6
-1.451, 2.282e-6
-1.452, 2.323e-6
-1.453, 2.310e-6
-1.454, 2.336e-6
-1.455, 2.350e-6
-1.456, 2.330e-6
-1.457, 2.335e-6
-1.458, 2.329e-6
-1.459, 2.380e-6
-1.460, 2.416e-6
-1.461, 2.335e-6
-1.462, 2.354e-6
-1.463, 2.354e-6
-1.464, 2.421e-6
-1.465, 2.423e-6
-1.466, 2.407e-6
-1.467, 2.371e-6
-1.468, 2.397e-6
-1.469, 2.408e-6
-1.470, 2.441e-6
-1.471, 2.390e-6
-1.472, 2.427e-6
-1.473, 2.445e-6
-1.474, 2.455e-6
-1.475, 2.479e-6
-1.476, 2.440e-6
-1.477, 2.431e-6
-1.478, 2.458e-6
-1.479, 2.477e-6
-1.480, 2.504e-6
-1.481, 2.478e-6
-1.482, 2.474e-6
-1.483, 2.496e-6
-1.484, 2.543e-6
-1.485, 2.524e-6
-1.486, 2.509e-6
-1.487, 2.499e-6
-1.488, 2.530e-6
-1.489, 2.568e-6
-1.490, 2.577e-6
-1.491, 2.571e-6
-1.492, 2.545e-6
-1.493, 2.551e-6
-1.494, 2.593e-6
-1.495, 2.577e-6
-1.496, 2.612e-6
-1.497, 2.596e-6
-1.498, 2.630e-6
-1.499, 2.656e-6
-1.500, 2.649e-6
-1.501, 2.641e-6
-1.502, 2.633e-6
-1.503, 2.658e-6
-1.504, 2.693e-6
-1.505, 2.689e-6
-1.506, 2.662e-6
-1.507, 2.686e-6
-1.508, 2.695e-6
-1.509, 2.721e-6
-1.510, 2.739e-6
-1.511, 2.738e-6
-1.512, 2.748e-6
-1.513, 2.745e-6
-1.514, 2.796e-6
-1.515, 2.773e-6
-1.516, 2.745e-6
-1.517, 2.807e-6
-1.518, 2.822e-6
-1.519, 2.865e-6
-1.520, 2.852e-6
-1.521, 2.839e-6
-1.522, 2.875e-6
-1.523, 2.872e-6
-1.524, 2.910e-6
-1.525, 2.904e-6
-1.526, 2.865e-6
-1.527, 2.923e-6
-1.528, 2.927e-6
-1.529, 2.967e-6
-1.530, 2.983e-6
-1.531, 2.990e-6
-1.532, 2.993e-6
-1.533, 3.023e-6
-1.534, 3.042e-6
-1.535, 3.071e-6
-1.536, 3.054e-6
-1.537, 3.092e-6
-1.538, 3.146e-6
-1.539, 3.152e-6
-1.540, 3.185e-6
-1.541, 3.146e-6
-1.542, 3.161e-6
-1.543, 3.190e-6
-1.544, 3.220e-6
-1.545, 3.261e-6
-1.546, 3.270e-6
-1.547, 3.253e-6
-1.548, 3.361e-6
-1.549, 3.360e-6
-1.550, 3.382e-6
-1.551, 3.385e-6
-1.552, 3.378e-6
-1.553, 3.430e-6
-1.554, 3.496e-6
-1.555, 3.484e-6
-1.556, 3.483e-6
-1.557, 3.528e-6
-1.558, 3.592e-6
-1.559, 3.635e-6
-1.560, 3.603e-6
-1.561, 3.649e-6
-1.562, 3.665e-6
-1.563, 3.711e-6
-1.564, 3.785e-6
-1.565, 3.776e-6
-1.566, 3.818e-6
-1.567, 3.815e-6
-1.568, 3.876e-6
-1.569, 3.943e-6
-1.570, 3.938e-6
-1.571, 3.936e-6
-1.572, 4.003e-6
-1.573, 4.049e-6
-1.574, 4.126e-6
-1.575, 4.128e-6
-1.576, 4.163e-6
-1.577, 4.214e-6
-1.578, 4.246e-6
-1.579, 4.334e-6
-1.580, 4.355e-6
-1.581, 4.364e-6
-1.582, 4.418e-6
-1.583, 4.469e-6
-1.584, 4.559e-6
-1.585, 4.603e-6
-1.586, 4.612e-6
-1.587, 4.698e-6
-1.588, 4.733e-6
-1.589, 4.834e-6
-1.590, 4.869e-6
-1.591, 4.907e-6
-1.592, 4.936e-6
-1.593, 5.031e-6
-1.594, 5.125e-6
-1.595, 5.174e-6
-1.596, 5.180e-6
-1.597, 5.298e-6
-1.598, 5.361e-6
-1.599, 5.417e-6
-1.600, 5.517e-6
-1.601, 5.523e-6
-1.602, 5.628e-6
-1.603, 5.699e-6
-1.604, 5.793e-6
-1.605, 5.897e-6
-1.606, 5.925e-6
-1.607, 5.996e-6
-1.608, 6.124e-6
-1.609, 6.193e-6
-1.610, 6.282e-6
-1.611, 6.352e-6
-1.612, 6.429e-6
-1.613, 6.535e-6
-1.614, 6.669e-6
-1.615, 6.798e-6
-1.616, 6.830e-6
-1.617, 6.894e-6
-1.618, 7.068e-6
-1.619, 7.159e-6
-1.620, 7.253e-6
-1.621, 7.359e-6
-1.622, 7.431e-6
-1.623, 7.583e-6
-1.624, 7.719e-6
-1.625, 7.781e-6
-1.626, 7.921e-6
-1.627, 8.012e-6
-1.628, 8.155e-6
-1.629, 8.340e-6
-1.630, 8.411e-6
-1.631, 8.520e-6
-1.632, 8.622e-6
-1.633, 8.805e-6
-1.634, 8.986e-6
-1.635, 9.099e-6
-1.636, 9.245e-6
-1.637, 9.335e-6
-1.638, 9.485e-6
-1.639, 9.692e-6
-1.640, 9.828e-6
-1.641, 9.960e-6
-1.642, 1.011e-5
-1.643, 1.029e-5
-1.644, 1.053e-5
-1.645, 1.066e-5
-1.646, 1.079e-5
-1.647, 1.095e-5
-1.648, 1.111e-5
-1.649, 1.136e-5
-1.650, 1.152e-5
-1.651, 1.169e-5
-1.652, 1.191e-5
-1.653, 1.208e-5
-1.654, 1.233e-5
-1.655, 1.252e-5
-1.656, 1.270e-5
-1.657, 1.291e-5
-1.658, 1.313e-5
-1.659, 1.337e-5
-1.660, 1.359e-5
-1.661, 1.379e-5
-1.662, 1.401e-5
-1.663, 1.424e-5
-1.664, 1.453e-5
-1.665, 1.479e-5
-1.666, 1.496e-5
-1.667, 1.522e-5
-1.668, 1.549e-5
-1.669, 1.583e-5
-1.670, 1.606e-5
-1.671, 1.630e-5
-1.672, 1.655e-5
-1.673, 1.683e-5
-1.674, 1.717e-5
-1.675, 1.740e-5
-1.676, 1.767e-5
-1.677, 1.794e-5
-1.678, 1.832e-5
-1.679, 1.862e-5
-1.680, 1.891e-5
-1.681, 1.920e-5
-1.682, 1.954e-5
-1.683, 1.985e-5
-1.684, 2.020e-5
-1.685, 2.051e-5
-1.686, 2.083e-5
-1.687, 2.113e-5
-1.688, 2.152e-5
-1.689, 2.187e-5
-1.690, 2.220e-5
-1.691, 2.263e-5
-1.692, 2.297e-5
-1.693, 2.335e-5
-1.694, 2.377e-5
-1.695, 2.409e-5
-1.696, 2.450e-5
-1.697, 2.485e-5
-1.698, 2.529e-5
-1.699, 2.572e-5
-1.700, 2.613e-5
-1.701, 2.654e-5
-1.702, 2.696e-5
-1.703, 2.743e-5
-1.704, 2.789e-5
-1.705, 2.828e-5
-1.706, 2.876e-5
-1.707, 2.920e-5
-1.708, 2.967e-5
-1.709, 3.023e-5
-1.710, 3.065e-5
-1.711, 3.115e-5
-1.712, 3.165e-5
-1.713, 3.219e-5
-1.714, 3.274e-5
-1.715, 3.326e-5
-1.716, 3.379e-5
-1.717, 3.437e-5
-1.718, 3.489e-5
-1.719, 3.559e-5
-1.720, 3.612e-5
-1.721, 3.665e-5
-1.722, 3.726e-5
-1.723, 3.789e-5
-1.724, 3.858e-5
-1.725, 3.923e-5
-1.726, 3.981e-5
-1.727, 4.047e-5
-1.728, 4.119e-5
-1.729, 4.190e-5
-1.730, 4.261e-5
-1.731, 4.333e-5
-1.732, 4.403e-5
-1.733, 4.479e-5
-1.734, 4.564e-5
-1.735, 4.639e-5
-1.736, 4.714e-5
-1.737, 4.797e-5
-1.738, 4.883e-5
-1.739, 4.971e-5
-1.740, 5.056e-5
-1.741, 5.144e-5
-1.742, 5.232e-5
-1.743, 5.326e-5
-1.744, 5.426e-5
-1.745, 5.526e-5
-1.746, 5.620e-5
-1.747, 5.720e-5
-1.748, 5.831e-5
-1.749, 5.938e-5
-1.750, 6.039e-5
-1.751, 6.153e-5
-1.752, 6.262e-5
-1.753, 6.380e-5
-1.754, 6.501e-5
-1.755, 6.627e-5
-1.756, 6.746e-5
-1.757, 6.870e-5
-1.758, 7.006e-5
-1.759, 7.144e-5
-1.760, 7.275e-5
-1.761, 7.410e-5
-1.762, 7.552e-5
-1.763, 7.702e-5
-1.764, 7.860e-5
-1.765, 8.004e-5
-1.766, 8.165e-5
-1.767, 8.322e-5
-1.768, 8.485e-5
-1.769, 8.660e-5
-1.770, 8.827e-5
-1.771, 9.004e-5
-1.772, 9.186e-5
-1.773, 9.373e-5
-1.774, 9.569e-5
-1.775, 9.761e-5
-1.776, 9.961e-5
-1.777, 1.016e-4
-1.778, 1.037e-4
-1.779, 1.059e-4
-1.780, 1.081e-4
-1.781, 1.103e-4
-1.782, 1.126e-4
-1.783, 1.150e-4
-1.784, 1.174e-4
-1.785, 1.199e-4
-1.786, 1.225e-4
-1.787, 1.251e-4
-1.788, 1.278e-4
-1.789, 1.306e-4
-1.790, 1.335e-4
-1.791, 1.364e-4
-1.792, 1.394e-4
-1.793, 1.425e-4
-1.794, 1.457e-4
-1.795, 1.489e-4
-1.796, 1.522e-4
-1.797, 1.556e-4
-1.798, 1.591e-4
-1.799, 1.627e-4
-1.800, 1.638e-4
-1.799, 1.621e-4
-1.798, 1.603e-4
-1.797, 1.585e-4
-1.796, 1.568e-4
-1.795, 1.549e-4
-1.794, 1.530e-4
-1.793, 1.510e-4
-1.792, 1.491e-4
-1.791, 1.471e-4
-1.790, 1.452e-4
-1.789, 1.432e-4
-1.788, 1.412e-4
-1.787, 1.392e-4
-1.786, 1.372e-4
-1.785, 1.353e-4
-1.784, 1.334e-4
-1.783, 1.314e-4
-1.782, 1.296e-4
-1.781, 1.278e-4
-1.780, 1.259e-4
-1.779, 1.240e-4
-1.778, 1.222e-4
-1.777, 1.204e-4
-1.776, 1.187e-4
-1.775, 1.169e-4
-1.774, 1.152e-4
-1.773, 1.134e-4
-1.772, 1.117e-4
-1.771, 1.101e-4
-1.770, 1.084e-4
-1.769, 1.068e-4
-1.768, 1.051e-4
-1.767, 1.036e-4
-1.766, 1.021e-4
-1.765, 1.005e-4
-1.764, 9.895e-5
-1.763, 9.741e-5
-1.762, 9.594e-5
-1.761, 9.456e-5
-1.760, 9.309e-5
-1.759, 9.167e-5
-1.758, 9.022e-5
-1.757, 8.881e-5
-1.756, 8.749e-5
-1.755, 8.618e-5
-1.754, 8.480e-5
-1.753, 8.344e-5
-1.752, 8.216e-5
-1.751, 8.094e-5
-1.750, 7.968e-5
-1.749, 7.842e-5
-1.748, 7.718e-5
-1.747, 7.598e-5
-1.746, 7.482e-5
-1.745, 7.368e-5
-1.744, 7.246e-5
-1.743, 7.130e-5
-1.742, 7.025e-5
-1.741, 6.917e-5
-1.740, 6.812e-5
-1.739, 6.705e-5
-1.738, 6.597e-5
-1.737, 6.498e-5
-1.736, 6.395e-5
-1.735, 6.300e-5
-1.734, 6.199e-5
-1.733, 6.097e-5
-1.732, 6.004e-5
-1.731, 5.912e-5
-1.730, 5.824e-5
-1.729, 5.729e-5
-1.728, 5.640e-5
-1.727, 5.556e-5
-1.726, 5.468e-5
-1.725, 5.383e-5
-1.724, 5.295e-5
-1.723, 5.205e-5
-1.722, 5.127e-5
-1.721, 5.052e-5
-1.720, 4.979e-5
-1.719, 4.901e-5
-1.718, 4.817e-5
-1.717, 4.746e-5
-1.716, 4.673e-5
-1.715, 4.597e-5
-1.714, 4.523e-5
-1.713, 4.447e-5
-1.712, 4.382e-5
-1.711, 4.319e-5
-1.710, 4.248e-5
-1.709, 4.181e-5
-1.708, 4.109e-5
-1.707, 4.045e-5
-1.706, 3.987e-5
-1.705, 3.919e-5
-1.704, 3.857e-5
-1.703, 3.793e-5
-1.702, 3.734e-5
-1.701, 3.681e-5
-1.700, 3.620e-5
-1.699, 3.561e-5
-1.698, 3.502e-5
-1.697, 3.445e-5
-1.696, 3.391e-5
-1.695, 3.335e-5
-1.694, 3.280e-5
-1.693, 3.230e-5
-1.692, 3.178e-5
-1.691, 3.129e-5
-1.690, 3.075e-5
-1.689, 3.024e-5
-1.688, 2.976e-5
-1.687, 2.924e-5
-1.686, 2.882e-5
-1.685, 2.833e-5
-1.684, 2.781e-5
-1.683, 2.734e-5
-1.682, 2.693e-5
-1.681, 2.650e-5
-1.680, 2.604e-5
-1.679, 2.560e-5
-1.678, 2.517e-5
-1.677, 2.474e-5
-1.676, 2.436e-5
-1.675, 2.397e-5
-1.674, 2.354e-5
-1.673, 2.311e-5
-1.672, 2.276e-5
-1.671, 2.241e-5
-1.670, 2.199e-5
-1.669, 2.160e-5
-1.668, 2.121e-5
-1.667, 2.086e-5
-1.666, 2.055e-5
-1.665, 2.018e-5
-1.664, 1.981e-5
-1.663, 1.940e-5
-1.662, 1.913e-5
-1.661, 1.878e-5
-1.660, 1.843e-5
-1.659, 1.815e-5
-1.658, 1.779e-5
-1.657, 1.750e-5
-1.656, 1.721e-5
-1.655, 1.687e-5
-1.654, 1.654e-5
-1.653, 1.631e-5
-1.652, 1.599e-5
-1.651, 1.573e-5
-1.650, 1.541e-5
-1.649, 1.515e-5
-1.648, 1.482e-5
-1.647, 1.464e-5
-1.646, 1.439e-5
-1.645, 1.409e-5
-1.644, 1.383e-5
-1.643, 1.354e-5
-1.642, 1.331e-5
-1.641, 1.312e-5
-1.640, 1.285e-5
-1.639, 1.260e-5
-1.638, 1.232e-5
-1.637, 1.212e-5
-1.636, 1.196e-5
-1.635, 1.170e-5
-1.634, 1.147e-5
-1.633, 1.125e-5
-1.632, 1.105e-5
-1.631, 1.087e-5
-1.630, 1.063e-5
-1.629, 1.039e-5
-1.628, 1.021e-5
-1.627, 1.003e-5
-1.626, 9.896e-6
-1.625, 9.667e-6
-1.624, 9.443e-6
-1.623, 9.292e-6
-1.622, 9.123e-6
-1.621, 9.008e-6
-1.620, 8.809e-6
-1.619, 8.595e-6
-1.618, 8.433e-6
-1.617, 8.320e-6
-1.616, 8.176e-6
-1.615, 8.026e-6
-1.614, 7.799e-6
-1.613, 7.692e-6
-1.612, 7.553e-6
-1.611, 7.432e-6
-1.610, 7.269e-6
-1.609, 7.086e-6
-1.608, 6.952e-6
-1.607, 6.847e-6
-1.606, 6.735e-6
-1.605, 6.604e-6
-1.604, 6.443e-6
-1.603, 6.281e-6
-1.602, 6.238e-6
-1.601, 6.130e-6
-1.600, 5.978e-6
-1.599, 5.840e-6
-1.598, 5.716e-6
-1.597, 5.624e-6
-1.596, 5.578e-6
-1.595, 5.458e-6
-1.594, 5.335e-6
-1.593, 5.173e-6
-1.592, 5.117e-6
-1.591, 5.037e-6
-1.590, 4.948e-6
-1.589, 4.827e-6
-1.588, 4.724e-6
-1.587, 4.653e-6
-1.586, 4.628e-6
-1.585, 4.477e-6
-1.584, 4.381e-6
-1.583, 4.278e-6
-1.582, 4.232e-6
-1.581, 4.213e-6
-1.580, 4.107e-6
-1.579, 4.014e-6
-1.578, 3.924e-6
-1.577, 3.883e-6
-1.576, 3.834e-6
-1.575, 3.774e-6
-1.574, 3.673e-6
-1.573, 3.587e-6
-1.572, 3.545e-6
-1.571, 3.482e-6
-1.570, 3.426e-6
-1.569, 3.330e-6
-1.568, 3.267e-6
-1.567, 3.195e-6
-1.566, 3.225e-6
-1.565, 3.150e-6
-1.564, 3.053e-6
-1.563, 3.027e-6
-1.562, 2.958e-6
-1.561, 2.926e-6
-1.560, 2.908e-6
-1.559, 2.817e-6
-1.558, 2.762e-6
-1.557, 2.688e-6
-1.556, 2.708e-6
-1.555, 2.640e-6
-1.554, 2.529e-6
-1.553, 2.531e-6
-1.552, 2.511e-6
-1.551, 2.464e-6
-1.550, 2.436e-6
-1.549, 2.363e-6
-1.548, 2.324e-6
-1.547, 2.278e-6
-1.546, 2.266e-6
-1.545, 2.229e-6
-1.544, 2.143e-6
-1.543, 2.125e-6
-1.542, 2.102e-6
-1.541, 2.103e-6
-1.540, 2.062e-6
-1.539, 2.004e-6
-1.538, 1.967e-6
-1.537, 1.975e-6
-1.536, 1.930e-6
-1.535, 1.915e-6
-1.534, 1.862e-6
-1.533, 1.792e-6
-1.532, 1.805e-6
-1.531, 1.785e-6
-1.530, 1.728e-6
-1.529, 1.747e-6
-1.528, 1.655e-6
-1.527, 1.656e-6
-1.526, 1.669e-6
-1.525, 1.611e-6
-1.524, 1.580e-6
-1.523, 1.556e-6
-1.522, 1.509e-6
-1.521, 1.575e-6
-1.520, 1.539e-6
-1.519, 1.453e-6
-1.518, 1.448e-6
-1.517, 1.421e-6
-1.516, 1.427e-6
-1.515, 1.399e-6
-1.514, 1.373e-6
-1.513, 1.358e-6
-1.512, 1.341e-6
-1.511, 1.360e-6
-1.510, 1.261e-6
-1.509, 1.273e-6
-1.508, 1.239e-6
-1.507, 1.213e-6
-1.506, 1.233e-6
-1.505, 1.200e-6
-1.504, 1.174e-6
-1.503, 1.161e-6
-1.502, 1.114e-6
-1.501, 1.172e-6
-1.500, 1.131e-6
-1.499, 1.085e-6
-1.498, 1.104e-6
-1.497, 1.041e-6
-1.496, 1.058e-6
-1.495, 1.056e-6
-1.494, 9.795e-7
-1.493, 9.992e-7
-1.492, 9.854e-7
-1.491, 9.785e-7
-1.490, 9.716e-7
-1.489, 9.400e-7
-1.488, 9.242e-7
-1.487, 9.016e-7
-1.486, 9.124e-7
-1.485, 9.173e-7
-1.484, 8.394e-7
-1.483, 8.552e-7
-1.482, 8.562e-7
-1.481, 8.414e-7
-1.480, 8.601e-7
-1.479, 8.049e-7
-1.478, 7.654e-7
-1.477, 7.920e-7
-1.476, 7.763e-7
-1.475, 7.753e-7
-1.474, 7.595e-7
-1.473, 7.437e-7
-1.472, 7.279e-7
-1.471, 7.131e-7
-1.470, 7.210e-7
-1.469, 6.815e-7
-1.468, 6.707e-7
-1.467, 6.539e-7
-1.466, 6.884e-7
-1.465, 6.628e-7
-1.464, 6.717e-7
-1.463, 6.529e-7
-1.462, 6.500e-7
-1.461, 6.431e-7
-1.460, 6.223e-7
-1.459, 5.987e-7
-1.458, 5.878e-7
-1.457, 5.849e-7
-1.456, 6.066e-7
-1.455, 5.809e-7
-1.454, 5.513e-7
-1.453, 5.158e-7
-1.452, 5.385e-7
-1.451, 5.592e-7
-1.450, 5.257e-7
-1.449, 5.040e-7
-1.448, 5.296e-7
-1.447, 5.148e-7
-1.446, 5.375e-7
-1.445, 5.168e-7
-1.444, 4.813e-7
-1.443, 4.961e-7
-1.442, 4.822e-7
-1.441, 5.049e-7
-1.440, 4.596e-7
-1.439, 4.596e-7
-1.438, 4.497e-7
-1.437, 4.349e-7
-1.436, 4.694e-7
-1.435, 4.546e-7
-1.434, 4.092e-7
-1.433, 4.221e-7
-1.432, 4.201e-7
-1.431, 4.152e-7
-1.430, 4.477e-7
-1.429, 3.796e-7
-1.428, 3.757e-7
-1.427, 3.836e-7
-1.426, 3.777e-7
-1.425, 4.073e-7
-1.424, 3.451e-7
-1.423, 3.481e-7
-1.422, 3.560e-7
-1.421, 3.461e-7
-1.420, 3.609e-7
-1.419, 3.017e-7
-1.418, 3.185e-7
-1.417, 3.925e-7
-1.416, 3.431e-7
-1.415, 3.500e-7
-1.414, 3.145e-7
-1.413, 3.037e-7
-1.412, 2.997e-7
-1.411, 3.066e-7
-1.410, 3.165e-7
-1.409, 3.106e-7
-1.408, 2.770e-7
-1.407, 2.879e-7
-1.406, 2.820e-7
-1.405, 2.997e-7
-1.404, 2.731e-7
-1.403, 2.366e-7
-1.402, 2.297e-7
-1.401, 2.820e-7
-1.400, 2.642e-7
-1.399, 2.376e-7
-1.398, 2.386e-7
-1.397, 2.455e-7
-1.396, 2.711e-7
-1.395, 2.356e-7
-1.394, 2.139e-7
-1.393, 1.803e-7
-1.392, 2.109e-7
-1.391, 2.287e-7
-1.390, 2.395e-7
-1.389, 1.882e-7
-1.388, 1.646e-7
-1.387, 2.021e-7
-1.386, 1.951e-7
-1.385, 1.951e-7
-1.384, 1.892e-7
-1.383, 1.567e-7
-1.382, 1.448e-7
-1.381, 1.764e-7
-1.380, 1.922e-7
-1.379, 1.419e-7
-1.378, 1.142e-7
-1.377, 1.350e-7
-1.376, 1.823e-7
-1.375, 1.557e-7
-1.374, 1.133e-7
-1.373, 1.330e-7
-1.372, 7.380e-8
-1.371, 1.715e-7
-1.370, 1.429e-7
-1.369, 1.064e-7
-1.368, 1.231e-7
-1.367, 1.014e-7
-1.366, 1.360e-7
-1.365, 1.488e-7
-1.364, 8.662e-8
-1.363, 7.676e-8
-1.362, 8.070e-8
-1.361, 7.873e-8
-1.360, 1.468e-7
-1.359, 9.353e-8
-1.358, 8.958e-8
-1.357, 5.111e-8
-1.356, 6.294e-8
-1.355, 1.083e-7
-1.354, 3.631e-8
-1.353, 5.604e-8
-1.352, 5.111e-8
-1.351, 5.308e-8
-1.350, 1.004e-7
-1.349, 5.505e-8
-1.348, 4.223e-8
-1.347, 5.308e-8
-1.346, 6.492e-8
-1.345, 6.590e-8
-1.344, 5.111e-8
-1.343, -1.302e-8
-1.342, 1.460e-8
-1.341, 8.682e-9
-1.340, 5.505e-8
-1.339, 4.321e-8
-1.338, 2.151e-8
-1.337, 1.460e-8
-1.336, -1.105e-8
-1.335, 3.236e-8
-1.334, 6.709e-9
-1.333, -1.184e-9
-1.332, -1.204e-8
-1.331, 1.460e-8
-1.330, -1.697e-8
-1.329, -8.090e-9
-1.328, -1.006e-8
-1.327, -4.459e-8
-1.326, -1.006e-8
-1.325, -2.980e-8
-1.324, -2.881e-8
-1.323, -4.558e-8
-1.322, -4.558e-8
-1.321, -2.980e-8
-1.320, -2.190e-8
-1.319, -6.827e-8
-1.318, -6.926e-8
-1.317, -7.617e-8
-1.316, -6.827e-8
-1.315, -5.446e-8
-1.314, -8.998e-8
-1.313, -1.166e-7
-1.312, -9.886e-8
-1.311, -5.742e-8
-1.310, -6.334e-8
-1.309, -9.491e-8
-1.308, -1.344e-7
-1.307, -1.087e-7
-1.306, -1.058e-7
-1.305, -8.208e-8
-1.304, -1.492e-7
-1.303, -1.255e-7
-1.302, -1.354e-7
-1.301, -8.603e-8
-1.300, -1.255e-7
-1.299, -1.561e-7
-1.298, -1.541e-7
-1.297, -1.551e-7
-1.296, -1.275e-7
-1.295, -1.344e-7
-1.294, -1.768e-7
-1.293, -1.975e-7
-1.292, -1.709e-7
-1.291, -1.511e-7
-1.290, -1.423e-7
-1.289, -1.738e-7
-1.288, -1.926e-7
-1.287, -1.877e-7
-1.286, -1.748e-7
-1.285, -1.709e-7
-1.284, -2.044e-7
-1.283, -2.153e-7
-1.282, -2.005e-7
-1.281, -2.034e-7
-1.280, -1.827e-7
-1.279, -2.360e-7
-1.278, -2.636e-7
-1.277, -2.409e-7
-1.276, -2.222e-7
-1.275, -2.064e-7
-1.274, -2.468e-7
-1.273, -2.498e-7
-1.272, -2.291e-7
-1.271, -2.370e-7
-1.270, -2.301e-7
-1.269, -2.577e-7
-1.268, -2.863e-7
-1.267, -2.755e-7
-1.266, -2.518e-7
-1.265, -2.784e-7
-1.264, -2.794e-7
-1.263, -2.893e-7
-1.262, -2.834e-7
-1.261, -2.587e-7
-1.260, -2.764e-7
-1.259, -2.873e-7
-1.258, -2.991e-7
-1.257, -2.853e-7
-1.256, -2.824e-7
-1.255, -2.952e-7
-1.254, -3.327e-7
-1.253, -3.554e-7
-1.252, -3.090e-7
-1.251, -3.031e-7
-1.250, -3.120e-7
-1.249, -3.129e-7
-1.248, -3.504e-7
-1.247, -3.672e-7
-1.246, -3.287e-7
-1.245, -3.120e-7
-1.244, -3.356e-7
-1.243, -3.485e-7
-1.242, -3.583e-7
-1.241, -3.297e-7
-1.240, -3.287e-7
-1.239, -3.781e-7
-1.238, -3.564e-7
-1.237, -3.406e-7
-1.236, -3.751e-7
-1.235, -3.386e-7
-1.234, -3.573e-7
-1.233, -3.909e-7
-1.232, -3.682e-7
-1.231, -3.781e-7
-1.230, -3.366e-7
-1.229, -3.958e-7
-1.228, -4.126e-7
-1.227, -3.721e-7
-1.226, -3.800e-7
-1.225, -3.800e-7
-1.224, -4.096e-7
-1.223, -4.284e-7
-1.222, -3.958e-7
-1.221, -4.313e-7
-1.220, -3.948e-7
-1.219, -4.353e-7
-1.218, -4.313e-7
-1.217, -4.096e-7
-1.216, -4.008e-7
-1.215, -4.146e-7
-1.214, -4.382e-7
-1.213, -4.353e-7
-1.212, -4.501e-7
-1.211, -4.077e-7
-1.210, -4.116e-7
-1.209, -4.323e-7
-1.208, -4.481e-7
-1.207, -4.373e-7
-1.206, -4.304e-7
-1.205, -4.215e-7
-1.204, -4.530e-7
-1.203, -4.452e-7
-1.202, -4.540e-7
-1.201, -4.294e-7
-1.200, -4.234e-7
-1.199, -4.422e-7
-1.198, -4.580e-7
-1.197, -4.521e-7
-1.196, -4.195e-7
-1.195, -4.491e-7
-1.194, -4.738e-7
-1.193, -4.846e-7
-1.192, -4.846e-7
-1.191, -4.619e-7
-1.190, -4.570e-7
-1.189, -4.718e-7
-1.188, -4.609e-7
-1.187, -4.925e-7
-1.186, -4.461e-7
-1.185, -4.550e-7
-1.184, -4.698e-7
-1.183, -4.757e-7
-1.182, -5.152e-7
-1.181, -4.659e-7
-1.180, -4.876e-7
-1.179, -4.925e-7
-1.178, -5.113e-7
-1.177, -5.290e-7
-1.176, -4.669e-7
-1.175, -4.787e-7
-1.174, -5.093e-7
-1.173, -5.172e-7
-1.172, -5.211e-7
-1.171, -4.925e-7
-1.170, -4.807e-7
-1.169, -5.043e-7
-1.168, -4.994e-7
-1.167, -4.836e-7
-1.166, -4.994e-7
-1.165, -4.629e-7
-1.164, -5.339e-7
-1.163, -5.172e-7
-1.162, -5.458e-7
-1.161, -5.221e-7
-1.160, -5.093e-7
-1.159, -5.241e-7
-1.158, -5.339e-7
-1.157, -5.409e-7
-1.156, -5.113e-7
-1.155, -4.984e-7
-1.154, -5.231e-7
-1.153, -5.113e-7
-1.152, -5.251e-7
-1.151, -5.399e-7
-1.150, -5.113e-7
-1.149, -5.369e-7
-1.148, -5.270e-7
-1.147, -5.379e-7
-1.146, -5.547e-7
-1.145, -5.231e-7
-1.144, -5.497e-7
-1.143, -5.537e-7
-1.142, -5.438e-7
-1.141, -5.359e-7
-1.140, -5.024e-7
-1.139, -5.537e-7
-1.138, -5.547e-7
-1.137, -5.754e-7
-1.136, -5.616e-7
-1.135, -5.339e-7
-1.134, -5.813e-7
-1.133, -5.704e-7
-1.132, -5.547e-7
-1.131, -5.724e-7
-1.130, -5.418e-7
-1.129, -5.537e-7
-1.128, -5.793e-7
-1.127, -5.872e-7
-1.126, -5.843e-7
-1.125, -5.774e-7
-1.124, -5.764e-7
-1.123, -5.882e-7
-1.122, -5.872e-7
-1.121, -5.793e-7
-1.120, -5.892e-7
-1.119, -5.596e-7
-1.118, -6.366e-7
-1.117, -5.961e-7
-1.116, -6.030e-7
-1.115, -6.070e-7
-1.114, -6.020e-7
-1.113, -6.148e-7
-1.112, -5.833e-7
-1.111, -5.922e-7
-1.110, -5.833e-7
-1.109, -5.961e-7
-1.108, -6.119e-7
-1.107, -6.168e-7
-1.106, -6.139e-7
-1.105, -6.109e-7
-1.104, -5.941e-7
-1.103, -5.902e-7
-1.102, -6.010e-7
-1.101, -6.020e-7
-1.100, -6.099e-7
-1.099, -6.444e-7
-1.098, -6.395e-7
-1.097, -6.247e-7
-1.096, -6.227e-7
-1.095, -6.218e-7
-1.094, -6.504e-7
-1.093, -6.573e-7
-1.092, -6.356e-7
-1.091, -6.060e-7
-1.090, -6.484e-7
-1.089, -6.583e-7
-1.088, -6.829e-7
-1.087, -6.425e-7
-1.086, -6.573e-7
-1.085, -6.237e-7
-1.084, -6.740e-7
-1.083, -6.474e-7
-1.082, -6.405e-7
-1.081, -6.721e-7
-1.080, -6.405e-7
-1.079, -6.938e-7
-1.078, -6.780e-7
-1.077, -6.504e-7
-1.076, -6.819e-7
-1.075, -6.366e-7
-1.074, -6.997e-7
-1.073, -6.928e-7
-1.072, -6.583e-7
-1.071, -7.036e-7
-1.070, -6.563e-7
-1.069, -6.938e-7
-1.068, -7.451e-7
-1.067, -6.928e-7
-1.066, -7.096e-7
-1.065, -6.740e-7
-1.064, -7.105e-7
-1.063, -7.115e-7
-1.062, -6.928e-7
-1.061, -7.263e-7
-1.060, -7.086e-7
-1.059, -7.263e-7
-1.058, -7.579e-7
-1.057, -7.036e-7
-1.056, -7.431e-7
-1.055, -6.967e-7
-1.054, -7.421e-7
-1.053, -7.688e-7
-1.052, -7.332e-7
-1.051, -7.165e-7
-1.050, -7.086e-7
-1.049, -7.244e-7
-1.048, -7.678e-7
-1.047, -7.283e-7
-1.046, -7.224e-7
-1.045, -7.303e-7
-1.044, -7.549e-7
-1.043, -7.727e-7
-1.042, -7.461e-7
-1.041, -7.441e-7
-1.040, -7.569e-7
-1.039, -7.707e-7
-1.038, -7.914e-7
-1.037, -7.678e-7
-1.036, -7.372e-7
-1.035, -7.500e-7
-1.034, -7.678e-7
-1.033, -8.161e-7
-1.032, -8.132e-7
-1.031, -7.549e-7
-1.030, -7.766e-7
-1.029, -7.865e-7
-1.028, -8.230e-7
-1.027, -8.013e-7
-1.026, -7.717e-7
-1.025, -7.875e-7
-1.024, -7.845e-7
-1.023, -8.447e-7
-1.022, -8.151e-7
-1.021, -7.885e-7
-1.020, -8.082e-7
-1.019, -8.230e-7
-1.018, -8.595e-7
-1.017, -8.378e-7
-1.016, -7.954e-7
-1.015, -8.122e-7
-1.014, -8.516e-7
-1.013, -8.595e-7
-1.012, -8.378e-7
-1.011, -8.250e-7
-1.010, -8.358e-7
-1.009, -8.526e-7
-1.008, -8.339e-7
-1.007, -8.704e-7
-1.006, -8.260e-7
-1.005, -8.309e-7
-1.004, -8.743e-7
-1.003, -8.625e-7
-1.002, -8.753e-7
-1.001, -8.802e-7
-1.000, -6.671e-7
-1.001, -6.139e-7
-1.002, -5.635e-7
-1.003, -5.103e-7
-1.004, -4.590e-7
-1.005, -3.860e-7
-1.006, -4.146e-7
-1.007, -3.889e-7
-1.008, -3.643e-7
-1.009, -3.277e-7
-1.010, -2.735e-7
-1.011, -2.636e-7
-1.012, -2.567e-7
-1.013, -2.409e-7
-1.014, -2.271e-7
-1.015, -1.699e-7
-1.016, -1.955e-7
-1.017, -2.202e-7
-1.018, -1.571e-7
-1.019, -1.561e-7
-1.020, -1.156e-7
-1.021, -1.038e-7
-1.022, -1.255e-7
-1.023, -8.208e-8
-1.024, -7.321e-8
-1.025, -5.841e-8
-1.026, -2.881e-8
-1.027, -3.966e-8
-1.028, -4.065e-8
-1.029, -1.796e-8
-1.030, -9.077e-9
-1.031, 3.433e-8
-1.032, 8.682e-9
-1.033, 1.263e-8
-1.034, 5.505e-8
-1.035, 4.223e-8
-1.036, 6.294e-8
-1.037, 3.433e-8
-1.038, 7.676e-8
-1.039, 8.070e-8
-1.040, 1.142e-7
-1.041, 1.083e-7
-1.042, 1.212e-7
-1.043, 8.958e-8
-1.044, 1.557e-7
-1.045, 1.369e-7
-1.046, 1.389e-7
-1.047, 1.458e-7
-1.048, 1.310e-7
-1.049, 1.744e-7
-1.050, 2.011e-7
-1.051, 1.951e-7
-1.052, 1.764e-7
-1.053, 1.784e-7
-1.054, 2.395e-7
-1.055, 1.951e-7
-1.056, 2.218e-7
-1.057, 2.326e-7
-1.058, 2.188e-7
-1.059, 2.613e-7
-1.060, 2.603e-7
-1.061, 2.504e-7
-1.062, 2.573e-7
-1.063, 2.386e-7
-1.064, 2.899e-7
-1.065, 3.116e-7
-1.066, 2.780e-7
-1.067, 2.859e-7
-1.068, 3.007e-7
-1.069, 3.027e-7
-1.070, 3.481e-7
-1.071, 2.928e-7
-1.072, 3.007e-7
-1.073, 3.303e-7
-1.074, 3.382e-7
-1.075, 3.717e-7
-1.076, 3.570e-7
-1.077, 3.254e-7
-1.078, 3.964e-7
-1.079, 3.925e-7
-1.080, 4.043e-7
-1.081, 3.619e-7
-1.082, 4.004e-7
-1.083, 3.767e-7
-1.084, 4.349e-7
-1.085, 4.023e-7
-1.086, 3.826e-7
-1.087, 3.875e-7
-1.088, 4.477e-7
-1.089, 4.211e-7
-1.090, 4.576e-7
-1.091, 4.231e-7
-1.092, 4.309e-7
-1.093, 4.309e-7
-1.094, 4.714e-7
-1.095, 4.605e-7
-1.096, 4.517e-7
-1.097, 4.329e-7
-1.098, 4.744e-7
-1.099, 5.059e-7
-1.100, 5.069e-7
-1.101, 5.237e-7
-1.102, 4.665e-7
-1.103, 4.783e-7
-1.104, 5.444e-7
-1.105, 5.237e-7
-1.106, 5.266e-7
-1.107, 4.921e-7
-1.108, 5.266e-7
-1.109, 5.533e-7
-1.110, 5.622e-7
-1.111, 5.533e-7
-1.112, 4.862e-7
-1.113, 5.405e-7
-1.114, 5.720e-7
-1.115, 5.849e-7
-1.116, 5.898e-7
-1.117, 5.306e-7
-1.118, 5.562e-7
-1.119, 6.135e-7
-1.120, 5.878e-7
-1.121, 5.730e-7
-1.122, 5.533e-7
-1.123, 5.740e-7
-1.124, 6.115e-7
-1.125, 5.898e-7
-1.126, 6.253e-7
-1.127, 6.036e-7
-1.128, 5.770e-7
-1.129, 6.401e-7
-1.130, 6.243e-7
-1.131, 6.233e-7
-1.132, 6.214e-7
-1.133, 6.016e-7
-1.134, 6.776e-7
-1.135, 6.667e-7
-1.136, 6.480e-7
-1.137, 6.825e-7
-1.138, 6.174e-7
-1.139, 6.993e-7
-1.140, 6.993e-7
-1.141, 6.539e-7
-1.142, 6.875e-7
-1.143, 6.549e-7
-1.144, 7.023e-7
-1.145, 7.072e-7
-1.146, 6.598e-7
-1.147, 7.062e-7
-1.148, 6.845e-7
-1.149, 7.141e-7
-1.150, 7.082e-7
-1.151, 6.746e-7
-1.152, 6.786e-7
-1.153, 6.855e-7
-1.154, 7.506e-7
-1.155, 7.269e-7
-1.156, 7.388e-7
-1.157, 7.378e-7
-1.158, 7.427e-7
-1.159, 7.368e-7
-1.160, 7.950e-7
-1.161, 7.279e-7
-1.162, 7.615e-7
-1.163, 7.388e-7
-1.164, 7.467e-7
-1.165, 8.019e-7
-1.166, 7.772e-7
-1.167, 7.417e-7
-1.168, 7.911e-7
-1.169, 7.516e-7
-1.170, 8.118e-7
-1.171, 8.068e-7
-1.172, 7.723e-7
-1.173, 8.009e-7
-1.174, 8.197e-7
-1.175, 8.325e-7
-1.176, 8.167e-7
-1.177, 8.167e-7
-1.178, 8.266e-7
-1.179, 8.246e-7
-1.180, 8.325e-7
-1.181, 8.276e-7
-1.182, 8.177e-7
-1.183, 8.532e-7
-1.184, 8.897e-7
-1.185, 8.285e-7
-1.186, 8.483e-7
-1.187, 8.315e-7
-1.188, 8.335e-7
-1.189, 8.710e-7
-1.190, 8.394e-7
-1.191, 8.374e-7
-1.192, 8.631e-7
-1.193, 8.394e-7
-1.194, 8.956e-7
-1.195, 9.006e-7
-1.196, 8.897e-7
-1.197, 8.670e-7
-1.198, 8.700e-7
-1.199, 8.996e-7
-1.200, 8.877e-7
-1.201, 9.104e-7
-1.202, 9.233e-7
-1.203, 8.917e-7
-1.204, 9.469e-7
-1.205, 9.351e-7
-1.206, 8.611e-7
-1.207, 9.173e-7
-1.208, 9.203e-7
-1.209, 9.657e-7
-1.210, 9.311e-7
-1.211, 9.055e-7
-1.212, 9.134e-7
-1.213, 9.459e-7
-1.214, 9.696e-7
-1.215, 9.489e-7
-1.216, 9.371e-7
-1.217, 9.568e-7
-1.218, 9.568e-7
-1.219, 9.864e-7
-1.220, 1.004e-6
-1.221, 9.538e-7
-1.222, 9.746e-7
-1.223, 9.933e-7
-1.224, 9.755e-7
-1.225, 1.000e-6
-1.226, 9.578e-7
-1.227, 9.815e-7
-1.228, 9.923e-7
-1.229, 1.014e-6
-1.230, 1.050e-6
-1.231, 1.026e-6
-1.232, 1.004e-6
-1.233, 1.040e-6
-1.234, 1.024e-6
-1.235, 1.051e-6
-1.236, 1.040e-6
-1.237, 1.022e-6
-1.238, 1.041e-6
-1.239, 1.031e-6
-1.240, 1.078e-6
-1.241, 1.044e-6
-1.242, 1.019e-6
-1.243, 1.074e-6
-1.244, 1.112e-6
-1.245, 1.070e-6
-1.246, 1.036e-6
-1.247, 1.060e-6
-1.248, 1.071e-6
-1.249, 1.099e-6
-1.250, 1.089e-6
-1.251, 1.088e-6
-1.252, 1.045e-6
-1.253, 1.108e-6
-1.254, 1.128e-6
-1.255, 1.099e-6
-1.256, 1.107e-6
-1.257, 1.085e-6
-1.258, 1.089e-6
-1.259, 1.132e-6
-1.260, 1.160e-6
-1.261, 1.118e-6
-1.262, 1.123e-6
-1.263, 1.133e-6
-1.264, 1.159e-6
-1.265, 1.141e-6
-1.266, 1.142e-6
-1.267, 1.120e-6
-1.268, 1.133e-6
-1.269, 1.166e-6
-1.270, 1.175e-6
-1.271, 1.163e-6
-1.272, 1.126e-6
-1.273, 1.156e-6
-1.274, 1.217e-6
-1.275, 1.198e-6
-1.276, 1.164e-6
-1.277, 1.175e-6
-1.278, 1.185e-6
-1.279, 1.200e-6
-1.280, 1.215e-6
-1.281, 1.185e-6
-1.282, 1.200e-6
-1.283, 1.186e-6
-1.284, 1.205e-6
-1.285, 1.221e-6
-1.286, 1.176e-6
-1.287, 1.202e-6
-1.288, 1.209e-6
-1.289, 1.222e-6
-1.290, 1.260e-6
-1.291, 1.210e-6
-1.292, 1.217e-6
-1.293, 1.207e-6
-1.294, 1.229e-6
-1.295, 1.245e-6
-1.296, 1.219e-6
-1.297, 1.253e-6
-1.298, 1.228e-6
-1.299, 1.261e-6
-1.300, 1.336e-6
-1.301, 1.220e-6
-1.302, 1.244e-6
-1.303, 1.283e-6
-1.304, 1.256e-6
-1.305, 1.306e-6
-1.306, 1.278e-6
-1.307, 1.265e-6
-1.308, 1.289e-6
-1.309, 1.298e-6
-1.310, 1.302e-6
-1.311, 1.281e-6
-1.312, 1.266e-6
-1.313, 1.313e-6
-1.314, 1.299e-6
-1.315, 1.300e-6
-1.316, 1.327e-6
-1.317, 1.298e-6
-1.318, 1.314e-6
-1.319, 1.350e-6
-1.320, 1.342e-6
-1.321, 1.288e-6
-1.322, 1.326e-6
-1.323, 1.313e-6
-1.324, 1.353e-6
-1.325, 1.359e-6
-1.326, 1.353e-6
-1.327, 1.326e-6
-1.328, 1.335e-6
-1.329, 1.400e-6
-1.330, 1.349e-6
-1.331, 1.338e-6
-1.332, 1.359e-6
-1.333, 1.354e-6
-1.334, 1.379e-6
-1.335, 1.401e-6
-1.336, 1.370e-6
-1.337, 1.361e-6
-1.338, 1.391e-6
-1.339, 1.423e-6
-1.340, 1.378e-6
-1.341, 1.369e-6
-1.342, 1.390e-6
-1.343, 1.390e-6
-1.344, 1.429e-6
-1.345, 1.424e-6
-1.346, 1.400e-6
-1.347, 1.412e-6
-1.348, 1.414e-6
-1.349, 1.420e-6
-1.350, 1.428e-6
-1.351, 1.431e-6
-1.352, 1.434e-6
-1.353, 1.449e-6
-1.354, 1.472e-6
-1.355, 1.455e-6
-1.356, 1.416e-6
-1.357, 1.473e-6
-1.358, 1.461e-6
-1.359, 1.462e-6
-1.360, 1.483e-6
-1.361, 1.445e-6
-1.362, 1.466e-6
-1.363, 1.493e-6
-1.364, 1.517e-6
-1.365, 1.519e-6
-1.366, 1.509e-6
-1.367, 1.490e-6
-1.368, 1.520e-6
-1.369, 1.501e-6
-1.370, 1.496e-6
-1.371, 1.462e-6
-1.372, 1.496e-6
-1.373, 1.525e-6
-1.374, 1.584e-6
-1.375, 1.546e-6
-1.376, 1.557e-6
-1.377, 1.555e-6
-1.378, 1.563e-6
-1.379, 1.531e-6
-1.380, 1.522e-6
-1.381, 1.566e-6
-1.382, 1.531e-6
-1.383, 1.602e-6
-1.384, 1.596e-6
-1.385, 1.541e-6
-1.386, 1.582e-6
-1.387, 1.587e-6
-1.388, 1.588e-6
-1.389, 1.603e-6
-1.390, 1.598e-6
-1.391, 1.585e-6
-1.392, 1.563e-6
-1.393, 1.620e-6
-1.394, 1.627e-6
-1.395, 1.596e-6
-1.396, 1.610e-6
-1.397, 1.564e-6
-1.398, 1.631e-6
-1.399, 1.692e-6
-1.400, 1.622e-6
-1.401, 1.625e-6
-1.402, 1.604e-6
-1.403, 1.641e-6
-1.404, 1.682e-6
-1.405, 1.652e-6
-1.406, 1.666e-6
-1.407, 1.664e-6
-1.408, 1.648e-6
-1.409, 1.715e-6
-1.410, 1.679e-6
-1.411, 1.642e-6
-1.412, 1.672e-6
-1.413, 1.681e-6
-1.414, 1.747e-6
-1.415, 1.711e-6
-1.416, 1.692e-6
-1.417, 1.685e-6
-1.418, 1.717e-6
-1.419, 1.747e-6
-1.420, 1.725e-6
-1.421, 1.697e-6
-1.422, 1.729e-6
-1.423, 1.755e-6
-1.424, 1.778e-6
-1.425, 1.731e-6
-1.426, 1.751e-6
-1.427, 1.721e-6
-1.428, 1.778e-6
-1.429, 1.785e-6
-1.430, 1.786e-6
-1.431, 1.761e-6
-1.432, 1.787e-6
-1.433, 1.800e-6
-1.434, 1.823e-6
-1.435, 1.837e-6
-1.436, 1.793e-6
-1.437, 1.790e-6
-1.438, 1.846e-6
-1.439, 1.868e-6
-1.440, 1.849e-6
-1.441, 1.830e-6
-1.442, 1.811e-6
-1.443, 1.852e-6
-1.444, 1.903e-6
-1.445, 1.886e-6
-1.446, 1.832e-6
-1.447, 1.879e-6
-1.448, 1.895e-6
-1.449, 1.923e-6
-1.450, 1.909e-6
-1.451, 1.868e-6
-1.452, 1.876e-6
-1.453, 1.930e-6
-1.454, 1.965e-6
-1.455, 1.932e-6
-1.456, 1.896e-6
-1.457, 1.929e-6
-1.458, 1.951e-6
-1.459, 2.000e-6
-1.460, 1.968e-6
-1.461, 2.000e-6
-1.462, 1.974e-6
-1.463, 2.002e-6
-1.464, 2.026e-6
-1.465, 1.983e-6
-1.466, 2.002e-6
-1.467, 1.981e-6
-1.468, 2.017e-6
-1.469, 2.049e-6
-1.470, 2.052e-6
-1.471, 2.046e-6
-1.472, 2.071e-6
-1.473, 2.026e-6
-1.474, 2.101e-6
-1.475, 2.110e-6
-1.476, 2.084e-6
-1.477, 2.083e-6
-1.478, 2.114e-6
-1.479, 2.147e-6
-1.480, 2.129e-6
-1.481, 2.125e-6
-1.482, 2.148e-6
-1.483, 2.132e-6
-1.484, 2.180e-6
-1.485, 2.171e-6
-1.486, 2.192e-6
-1.487, 2.195e-6
-1.488, 2.200e-6
-1.489, 2.261e-6
-1.490, 2.260e-6
-1.491, 2.211e-6
-1.492, 2.277e-6
-1.493, 2.245e-6
-1.494, 2.264e-6
-1.495, 2.298e-6
-1.496, 2.282e-6
-1.497, 2.269e-6
-1.498, 2.345e-6
-1.499, 2.360e-6
-1.500, 2.367e-6
-1.501, 2.315e-6
-1.502, 2.366e-6
-1.503, 2.373e-6
-1.504, 2.396e-6
-1.505, 2.410e-6
-1.506, 2.434e-6
-1.507, 2.402e-6
-1.508, 2.450e-6
-1.509, 2.482e-6
-1.510, 2.489e-6
-1.511, 2.479e-6
-1.512, 2.483e-6
-1.513, 2.529e-6
-1.514, 2.553e-6
-1.515, 2.545e-6
-1.516, 2.579e-6
-1.517, 2.573e-6
-1.518, 2.598e-6
-1.519, 2.625e-6
-1.520, 2.635e-6
-1.521, 2.645e-6
-1.522, 2.634e-6
-1.523, 2.647e-6
-1.524, 2.726e-6
-1.525, 2.702e-6
-1.526, 2.735e-6
-1.527, 2.712e-6
-1.528, 2.801e-6
-1.529, 2.800e-6
-1.530, 2.802e-6
-1.531, 2.783e-6
-1.532, 2.844e-6
-1.533, 2.880e-6
-1.534, 2.872e-6
-1.535, 2.931e-6
-1.536, 2.905e-6
-1.537, 2.927e-6
-1.538, 2.968e-6
-1.539, 3.003e-6
-1.540, 3.030e-6
-1.541, 3.006e-6
-1.542, 3.063e-6
-1.543, 3.133e-6
-1.544, 3.143e-6
-1.545, 3.151e-6
-1.546, 3.177e-6
-1.547, 3.178e-6
-1.548, 3.226e-6
-1.549, 3.280e-6
-1.550, 3.258e-6
-1.551, 3.266e-6
-1.552, 3.330e-6
-1.553, 3.375e-6
-1.554, 3.430e-6
-1.555, 3.441e-6
-1.556, 3.439e-6
-1.557, 3.503e-6
-1.558, 3.518e-6
-1.559, 3.586e-6
-1.560, 3.568e-6
-1.561, 3.631e-6
-1.562, 3.636e-6
-1.563, 3.723e-6
-1.564, 3.773e-6
-1.565, 3.826e-6
-1.566, 3.814e-6
-1.567, 3.841e-6
-1.568, 3.943e-6
-1.569, 3.962e-6
-1.570, 4.014e-6
-1.571, 3.996e-6
-1.572, 4.054e-6
-1.573, 4.151e-6
-1.574, 4.177e-6
-1.575, 4.241e-6
-1.576, 4.241e-6
-1.577, 4.280e-6
-1.578, 4.405e-6
-1.579, 4.443e-6
-1.580, 4.467e-6
-1.581, 4.512e-6
-1.582, 4.556e-6
-1.583, 4.683e-6
-1.584, 4.751e-6
-1.585, 4.778e-6
-1.586, 4.805e-6
-1.587, 4.866e-6
-1.588, 4.978e-6
-1.589, 5.063e-6
-1.590, 5.106e-6
-1.591, 5.174e-6
-1.592, 5.219e-6
-1.593, 5.352e-6
-1.594, 5.468e-6
-1.595, 5.499e-6
-1.596, 5.572e-6
-1.597, 5.626e-6
-1.598, 5.749e-6
-1.599, 5.841e-6
-1.600, 5.901e-6
-1.601, 5.963e-6
-1.602, 6.054e-6
-1.603, 6.220e-6
-1.604, 6.309e-6
-1.605, 6.375e-6
-1.606, 6.468e-6
-1.607, 6.516e-6
-1.608, 6.687e-6
-1.609, 6.819e-6
-1.610, 6.891e-6
-1.611, 6.963e-6
-1.612, 7.103e-6
-1.613, 7.275e-6
-1.614, 7.379e-6
-1.615, 7.474e-6
-1.616, 7.560e-6
-1.617, 7.664e-6
-1.618, 7.802e-6
-1.619, 7.981e-6
-1.620, 8.060e-6
-1.621, 8.190e-6
-1.622, 8.316e-6
-1.623, 8.463e-6
-1.624, 8.640e-6
-1.625, 8.744e-6
-1.626, 8.840e-6
-1.627, 8.980e-6
-1.628, 9.175e-6
-1.629, 9.326e-6
-1.630, 9.444e-6
-1.631, 9.542e-6
-1.632, 9.702e-6
-1.633, 9.888e-6
-1.634, 1.007e-5
-1.635, 1.022e-5
-1.636, 1.033e-5
-1.637, 1.051e-5
-1.638, 1.071e-5
-1.639, 1.092e-5
-1.640, 1.108e-5
-1.641, 1.123e-5
-1.642, 1.142e-5
-1.643, 1.161e-5
-1.644, 1.181e-5
-1.645, 1.202e-5
-1.646, 1.219e-5
-1.647, 1.237e-5
-1.648, 1.260e-5
-1.649, 1.284e-5
-1.650, 1.301e-5
-1.651, 1.322e-5
-1.652, 1.340e-5
-1.653, 1.369e-5
-1.654, 1.390e-5
-1.655, 1.410e-5
-1.656, 1.434e-5
-1.657, 1.459e-5
-1.658, 1.485e-5
-1.659, 1.509e-5
-1.660, 1.532e-5
-1.661, 1.557e-5
-1.662, 1.581e-5
-1.663, 1.614e-5
-1.664, 1.640e-5
-1.665, 1.665e-5
-1.666, 1.693e-5
-1.667, 1.720e-5
-1.668, 1.751e-5
-1.669, 1.784e-5
-1.670, 1.811e-5
-1.671, 1.841e-5
-1.672, 1.865e-5
-1.673, 1.902e-5
-1.674, 1.934e-5
-1.675, 1.966e-5
-1.676, 1.993e-5
-1.677, 2.029e-5
-1.678, 2.068e-5
-1.679, 2.106e-5
-1.680, 2.133e-5
-1.681, 2.169e-5
-1.682, 2.202e-5
-1.683, 2.241e-5
-1.684, 2.281e-5
-1.685, 2.314e-5
-1.686, 2.353e-5
-1.687, 2.393e-5
-1.688, 2.431e-5
-1.689, 2.476e-5
-1.690, 2.513e-5
-1.691, 2.553e-5
-1.692, 2.596e-5
-1.693, 2.639e-5
-1.694, 2.686e-5
-1.695, 2.727e-5
-1.696, 2.766e-5
-1.697, 2.816e-5
-1.698, 2.860e-5
-1.699, 2.911e-5
-1.700, 2.959e-5
-1.701, 3.001e-5
-1.702, 3.051e-5
-1.703, 3.106e-5
-1.704, 3.156e-5
-1.705, 3.205e-5
-1.706, 3.252e-5
-1.707, 3.307e-5
-1.708, 3.366e-5
-1.709, 3.417e-5
-1.710, 3.471e-5
-1.711, 3.528e-5
-1.712, 3.588e-5
-1.713, 3.648e-5
-1.714, 3.710e-5
-1.715, 3.771e-5
-1.716, 3.830e-5
-1.717, 3.893e-5
-1.718, 3.962e-5
-1.719, 4.029e-5
-1.720, 4.094e-5
-1.721, 4.155e-5
-1.722, 4.225e-5
-1.723, 4.301e-5
-1.724, 4.373e-5
-1.725, 4.445e-5
-1.726, 4.514e-5
-1.727, 4.595e-5
-1.728, 4.674e-5
-1.729, 4.755e-5
-1.730, 4.830e-5
-1.731, 4.914e-5
-1.732, 4.997e-5
-1.733, 5.084e-5
-1.734, 5.172e-5
-1.735, 5.258e-5
-1.736, 5.347e-5
-1.737, 5.443e-5
-1.738, 5.540e-5
-1.739, 5.635e-5
-1.740, 5.732e-5
-1.741, 5.830e-5
-1.742, 5.935e-5
-1.743, 6.039e-5
-1.744, 6.152e-5
-1.745, 6.261e-5
-1.746, 6.371e-5
-1.747, 6.486e-5
-1.748, 6.602e-5
-1.749, 6.725e-5
-1.750, 6.843e-5
-1.751, 6.964e-5
-1.752, 7.090e-5
-1.753, 7.228e-5
-1.754, 7.367e-5
-1.755, 7.498e-5
-1.756, 7.636e-5
-1.757, 7.787e-5
-1.758, 7.936e-5
-1.759, 8.089e-5
-1.760, 8.236e-5
-1.761, 8.396e-5
-1.762, 8.554e-5
-1.763, 8.726e-5
-1.764, 8.903e-5
-1.765, 9.071e-5
-1.766, 9.241e-5
-1.767, 9.433e-5
-1.768, 9.616e-5
-1.769, 9.808e-5
-1.770, 1.001e-4
-1.771, 1.020e-4
-1.772, 1.041e-4
-1.773, 1.062e-4
-1.774, 1.084e-4
-1.775, 1.106e-4
-1.776, 1.128e-4
-1.777, 1.152e-4
-1.778, 1.175e-4
-1.779, 1.200e-4
-1.780, 1.225e-4
-1.781, 1.250e-4
-1.782, 1.276e-4
-1.783, 1.304e-4
-1.784, 1.332e-4
-1.785, 1.360e-4
-1.786, 1.389e-4
-1.787, 1.419e-4
-1.788, 1.450e-4
-1.789, 1.482e-4
-1.790, 1.513e-4
-1.791, 1.546e-4
-1.792, 1.580e-4
-1.793, 1.617e-4
-1.794, 1.653e-4
-1.795, 1.690e-4
-1.796, 1.727e-4
-1.797, 1.766e-4
-1.798, 1.806e-4
-1.799, 1.848e-4
-1.800, 1.861e-4
-1.799, 1.841e-4
-1.798, 1.820e-4
-1.797, 1.800e-4
-1.796, 1.780e-4
-1.795, 1.757e-4
-1.794, 1.735e-4
-1.793, 1.712e-4
-1.792, 1.691e-4
-1.791, 1.669e-4
-1.790, 1.645e-4
-1.789, 1.623e-4
-1.788, 1.600e-4
-1.787, 1.578e-4
-1.786, 1.556e-4
-1.785, 1.533e-4
-1.784, 1.510e-4
-1.783, 1.489e-4
-1.782, 1.467e-4
-1.781, 1.447e-4
-1.780, 1.426e-4
-1.779, 1.405e-4
-1.778, 1.383e-4
-1.777, 1.362e-4
-1.776, 1.343e-4
-1.775, 1.321e-4
-1.774, 1.301e-4
-1.773, 1.281e-4
-1.772, 1.262e-4
-1.771, 1.244e-4
-1.770, 1.225e-4
-1.769, 1.205e-4
-1.768, 1.187e-4
-1.767, 1.168e-4
-1.766, 1.151e-4
-1.765, 1.132e-4
-1.764, 1.115e-4
-1.763, 1.097e-4
-1.762, 1.081e-4
-1.761, 1.064e-4
-1.760, 1.047e-4
-1.759, 1.031e-4
-1.758, 1.016e-4
-1.757, 9.999e-5
-1.756, 9.848e-5
-1.755, 9.691e-5
-1.754, 9.541e-5
-1.753, 9.393e-5
-1.752, 9.245e-5
-1.751, 9.107e-5
-1.750, 8.964e-5
-1.749, 8.822e-5
-1.748, 8.686e-5
-1.747, 8.553e-5
-1.746, 8.422e-5
-1.745, 8.285e-5
-1.744, 8.154e-5
-1.743, 8.034e-5
-1.742, 7.906e-5
-1.741, 7.784e-5
-1.740, 7.661e-5
-1.739, 7.539e-5
-1.738, 7.424e-5
-1.737, 7.313e-5
-1.736, 7.195e-5
-1.735, 7.085e-5
-1.734, 6.971e-5
-1.733, 6.867e-5
-1.732, 6.764e-5
-1.731, 6.653e-5
-1.730, 6.556e-5
-1.729, 6.451e-5
-1.728, 6.351e-5
-1.727, 6.258e-5
-1.726, 6.154e-5
-1.725, 6.063e-5
-1.724, 5.964e-5
-1.723, 5.875e-5
-1.722, 5.789e-5
-1.721, 5.697e-5
-1.720, 5.611e-5
-1.719, 5.515e-5
-1.718, 5.426e-5
-1.717, 5.350e-5
-1.716, 5.264e-5
-1.715, 5.179e-5
-1.714, 5.096e-5
-1.713, 5.016e-5
-1.712, 4.945e-5
-1.711, 4.866e-5
-1.710, 4.787e-5
-1.709, 4.713e-5
-1.708, 4.635e-5
-1.707, 4.569e-5
-1.706, 4.498e-5
-1.705, 4.423e-5
-1.704, 4.355e-5
-1.703, 4.286e-5
-1.702, 4.222e-5
-1.701, 4.156e-5
-1.700, 4.086e-5
-1.699, 4.017e-5
-1.698, 3.957e-5
-1.697, 3.897e-5
-1.696, 3.839e-5
-1.695, 3.771e-5
-1.694, 3.713e-5
-1.693, 3.654e-5
-1.692, 3.600e-5
-1.691, 3.543e-5
-1.690, 3.483e-5
-1.689, 3.420e-5
-1.688, 3.371e-5
-1.687, 3.318e-5
-1.686, 3.266e-5
-1.685, 3.208e-5
-1.684, 3.153e-5
-1.683, 3.104e-5
-1.682, 3.059e-5
-1.681, 3.009e-5
-1.680, 2.955e-5
-1.679, 2.903e-5
-1.678, 2.860e-5
-1.677, 2.813e-5
-1.676, 2.772e-5
-1.675, 2.725e-5
-1.674, 2.675e-5
-1.673, 2.633e-5
-1.672, 2.593e-5
-1.671, 2.550e-5
-1.670, 2.507e-5
-1.669, 2.457e-5
-1.668, 2.419e-5
-1.667, 2.382e-5
-1.666, 2.343e-5
-1.665, 2.302e-5
-1.664, 2.265e-5
-1.663, 2.224e-5
-1.662, 2.187e-5
-1.661, 2.148e-5
-1.660, 2.112e-5
-1.659, 2.071e-5
-1.658, 2.038e-5
-1.657, 2.007e-5
-1.656, 1.970e-5
-1.655, 1.940e-5
-1.654, 1.900e-5
-1.653, 1.870e-5
-1.652, 1.838e-5
-1.651, 1.806e-5
-1.650, 1.772e-5
-1.649, 1.738e-5
-1.648, 1.711e-5
-1.647, 1.684e-5
-1.646, 1.650e-5
-1.645, 1.624e-5
-1.644, 1.590e-5
-1.643, 1.564e-5
-1.642, 1.543e-5
-1.641, 1.512e-5
-1.640, 1.482e-5
-1.639, 1.450e-5
-1.638, 1.422e-5
-1.637, 1.405e-5
-1.636, 1.374e-5
-1.635, 1.348e-5
-1.634, 1.325e-5
-1.633, 1.301e-5
-1.632, 1.281e-5
-1.631, 1.255e-5
-1.630, 1.231e-5
-1.629, 1.208e-5
-1.628, 1.186e-5
-1.627, 1.168e-5
-1.626, 1.145e-5
-1.625, 1.120e-5
-1.624, 1.100e-5
-1.623, 1.081e-5
-1.622, 1.063e-5
-1.621, 1.042e-5
-1.620, 1.018e-5
-1.619, 1.001e-5
-1.618, 9.838e-6
-1.617, 9.658e-6
-1.616, 9.483e-6
-1.615, 9.264e-6
-1.614, 9.100e-6
-1.613, 8.963e-6
-1.612, 8.819e-6
-1.611, 8.630e-6
-1.610, 8.408e-6
-1.609, 8.286e-6
-1.608, 8.150e-6
-1.607, 8.022e-6
-1.606, 7.848e-6
-1.605, 7.673e-6
-1.604, 7.533e-6
-1.603, 7.417e-6
-1.602, 7.264e-6
-1.601, 7.176e-6
-1.600, 6.992e-6
-1.599, 6.869e-6
-1.598, 6.779e-6
-1.597, 6.668e-6
-1.596, 6.513e-6
-1.595, 6.381e-6
-1.594, 6.248e-6
-1.593, 6.171e-6
-1.592, 6.052e-6
-1.591, 5.940e-6
-1.590, 5.794e-6
-1.589, 5.684e-6
-1.588, 5.603e-6
-1.587, 5.505e-6
-1.586, 5.396e-6
-1.585, 5.277e-6
-1.584, 5.174e-6
-1.583, 5.123e-6
-1.582, 5.045e-6
-1.581, 4.917e-6
-1.580, 4.853e-6
-1.579, 4.716e-6
-1.578, 4.675e-6
-1.577, 4.615e-6
-1.576, 4.502e-6
-1.575, 4.428e-6
-1.574, 4.299e-6
-1.573, 4.255e-6
-1.572, 4.220e-6
-1.571, 4.126e-6
-1.570, 4.006e-6
-1.569, 3.928e-6
-1.568, 3.917e-6
-1.567, 3.887e-6
-1.566, 3.791e-6
-1.565, 3.679e-6
-1.564, 3.608e-6
-1.563, 3.571e-6
-1.562, 3.525e-6
-1.561, 3.465e-6
-1.560, 3.383e-6
-1.559, 3.299e-6
-1.558, 3.247e-6
-1.557, 3.241e-6
-1.556, 3.161e-6
-1.555, 3.098e-6
-1.554, 3.006e-6
-1.553, 2.973e-6
-1.552, 2.956e-6
-1.551, 2.889e-6
-1.550, 2.828e-6
-1.549, 2.789e-6
-1.548, 2.748e-6
-1.547, 2.732e-6
-1.546, 2.694e-6
-1.545, 2.598e-6
-1.544, 2.524e-6
-1.543, 2.485e-6
-1.542, 2.524e-6
-1.541, 2.448e-6
-1.540, 2.390e-6
-1.539, 2.357e-6
-1.538, 2.299e-6
-1.537, 2.281e-6
-1.536, 2.223e-6
-1.535, 2.205e-6
-1.534, 2.153e-6
-1.533, 2.093e-6
-1.532, 2.108e-6
-1.531, 2.083e-6
-1.530, 1.979e-6
-1.529, 1.949e-6
-1.528, 1.920e-6
-1.527, 1.945e-6
-1.526, 1.871e-6
-1.525, 1.821e-6
-1.524, 1.813e-6
-1.523, 1.799e-6
-1.522, 1.754e-6
-1.521, 1.766e-6
-1.520, 1.673e-6
-1.519, 1.681e-6
-1.518, 1.661e-6
-1.517, 1.642e-6
-1.516, 1.575e-6
-1.515, 1.522e-6
-1.514, 1.529e-6
-1.513, 1.521e-6
-1.512, 1.487e-6
-1.511, 1.487e-6
-1.510, 1.426e-6
-1.509, 1.397e-6
-1.508, 1.407e-6
-1.507, 1.366e-6
-1.506, 1.365e-6
-1.505, 1.302e-6
-1.504, 1.280e-6
-1.503, 1.323e-6
-1.502, 1.301e-6
-1.501, 1.247e-6
-1.500, 1.219e-6
-1.499, 1.199e-6
-1.498, 1.218e-6
-1.497, 1.181e-6
-1.496, 1.175e-6
-1.495, 1.098e-6
-1.494, 1.082e-6
-1.493, 1.104e-6
-1.492, 1.098e-6
-1.491, 1.040e-6
-1.490, 1.017e-6
-1.489, 9.923e-7
-1.488, 1.043e-6
-1.487, 9.844e-7
-1.486, 9.637e-7
-1.485, 9.499e-7
-1.484, 9.144e-7
-1.483, 9.104e-7
-1.482, 9.499e-7
-1.481, 8.552e-7
-1.480, 8.700e-7
-1.479, 8.285e-7
-1.478, 8.660e-7
-1.477, 8.364e-7
-1.476, 7.871e-7
-1.475, 7.911e-7
-1.474, 7.782e-7
-1.473, 7.920e-7
-1.472, 7.980e-7
-1.471, 7.486e-7
-1.470, 7.131e-7
-1.469, 6.963e-7
-1.468, 7.289e-7
-1.467, 7.516e-7
-1.466, 6.717e-7
-1.465, 6.776e-7
-1.464, 6.628e-7
-1.463, 6.401e-7
-1.462, 6.815e-7
-1.461, 6.411e-7
-1.460, 6.105e-7
-1.459, 6.085e-7
-1.458, 6.056e-7
-1.457, 6.164e-7
-1.456, 5.819e-7
-1.455, 5.336e-7
-1.454, 5.622e-7
-1.453, 5.730e-7
-1.452, 5.740e-7
-1.451, 5.474e-7
-1.450, 5.020e-7
-1.449, 5.109e-7
-1.448, 5.237e-7
-1.447, 5.276e-7
-1.446, 4.970e-7
-1.445, 4.517e-7
-1.444, 4.822e-7
-1.443, 4.753e-7
-1.442, 5.079e-7
-1.441, 4.665e-7
-1.440, 4.448e-7
-1.439, 4.171e-7
-1.438, 4.112e-7
-1.437, 4.438e-7
-1.436, 4.349e-7
-1.435, 4.092e-7
-1.434, 3.905e-7
-1.433, 4.033e-7
-1.432, 4.004e-7
-1.431, 3.698e-7
-1.430, 3.175e-7
-1.429, 3.155e-7
-1.428, 3.471e-7
-1.427, 3.254e-7
-1.426, 3.856e-7
-1.425, 3.303e-7
-1.424, 3.204e-7
-1.423, 3.343e-7
-1.422, 3.056e-7
-1.421, 3.264e-7
-1.420, 2.741e-7
-1.419, 2.721e-7
-1.418, 3.126e-7
-1.417, 2.908e-7
-1.416, 2.997e-7
-1.415, 2.879e-7
-1.414, 2.543e-7
-1.413, 2.928e-7
-1.412, 2.543e-7
-1.411, 2.336e-7
-1.410, 2.425e-7
-1.409, 2.119e-7
-1.408, 2.455e-7
-1.407, 2.494e-7
-1.406, 2.277e-7
-1.405, 2.090e-7
-1.404, 2.109e-7
-1.403, 2.257e-7
-1.402, 2.425e-7
-1.401, 1.892e-7
-1.400, 2.011e-7
-1.399, 1.646e-7
-1.398, 2.188e-7
-1.397, 2.297e-7
-1.396, 1.725e-7
-1.395, 1.744e-7
-1.394, 1.626e-7
-1.393, 1.734e-7
-1.392, 2.050e-7
-1.391, 1.261e-7
-1.390, 1.448e-7
-1.389, 1.695e-7
-1.388, 1.665e-7
-1.387, 1.616e-7
-1.386, 1.172e-7
-1.385, 1.360e-7
-1.384, 1.458e-7
-1.383, 1.409e-7
-1.382, 1.754e-7
-1.381, 7.676e-8
-1.380, 1.123e-7
-1.379, 1.014e-7
-1.378, 1.221e-7
-1.377, 1.448e-7
-1.376, 1.123e-7
-1.375, 7.281e-8
-1.374, 1.103e-7
-1.373, 1.093e-7
-1.372, 1.103e-7
-1.371, 8.169e-8
-1.370, 5.703e-8
-1.369, 5.900e-8
-1.368, 8.860e-8
-1.367, 8.860e-8
-1.366, 5.308e-8
-1.365, 6.294e-8
-1.364, 6.788e-8
-1.363, 5.998e-8
-1.362, 6.294e-8
-1.361, 5.900e-8
-1.360, 1.953e-8
-1.359, 4.519e-8
-1.358, 7.281e-8
-1.357, 5.012e-8
-1.356, 3.532e-8
-1.355, 9.669e-9
-1.354, 2.249e-8
-1.353, 4.815e-8
-1.352, 1.855e-8
-1.351, -8.090e-9
-1.350, -4.144e-9
-1.349, 3.137e-8
-1.348, 5.111e-8
-1.347, 2.151e-8
-1.346, -1.006e-8
-1.345, -2.190e-8
-1.344, -5.939e-8
-1.343, 3.039e-8
-1.342, -3.374e-8
-1.341, -2.092e-8
-1.340, -3.275e-8
-1.339, -2.092e-8
-1.338, -2.171e-9
-1.337, -1.697e-8
-1.336, -4.854e-8
-1.335, -5.742e-8
-1.334, -5.249e-8
-1.333, -1.302e-8
-1.332, -2.585e-8
-1.331, -9.195e-8
-1.330, -7.912e-8
-1.329, -5.545e-8
-1.328, -1.204e-8
-1.327, -3.275e-8
-1.326, -8.899e-8
-1.325, -9.096e-8
-1.324, -9.886e-8
-1.323, -6.433e-8
-1.322, -4.854e-8
-1.321, -1.058e-7
-1.320, -1.038e-7
-1.319, -1.087e-7
-1.318, -7.419e-8
-1.317, -8.307e-8
-1.316, -1.334e-7
-1.315, -1.383e-7
-1.314, -1.314e-7
-1.313, -1.048e-7
-1.312, -1.028e-7
-1.311, -1.521e-7
-1.310, -1.363e-7
-1.309, -1.127e-7
-1.308, -1.383e-7
-1.307, -9.984e-8
-1.306, -1.541e-7
-1.305, -1.857e-7
-1.304, -1.472e-7
-1.303, -1.304e-7
-1.302, -1.492e-7
-1.301, -1.689e-7
-1.300, -1.729e-7
-1.299, -1.758e-7
-1.298, -1.590e-7
-1.297, -1.590e-7
-1.296, -2.034e-7
-1.295, -1.916e-7
-1.294, -2.103e-7
-1.293, -1.817e-7
-1.292, -1.906e-7
-1.291, -1.827e-7
-1.290, -2.281e-7
-1.289, -2.143e-7
-1.288, -2.192e-7
-1.287, -2.301e-7
-1.286, -2.064e-7
-1.285, -2.478e-7
-1.284, -2.271e-7
-1.283, -1.916e-7
-1.282, -2.399e-7
-1.281, -2.182e-7
-1.280, -2.774e-7
-1.279, -2.715e-7
-1.278, -2.380e-7
-1.277, -2.735e-7
-1.276, -2.784e-7
-1.275, -2.962e-7
-1.274, -2.893e-7
-1.273, -2.547e-7
-1.272, -2.942e-7
-1.271, -3.031e-7
-1.270, -3.120e-7
-1.269, -3.120e-7
-1.268, -2.764e-7
-1.267, -3.277e-7
-1.266, -3.287e-7
-1.265, -3.504e-7
-1.264, -3.347e-7
-1.263, -3.277e-7
-1.262, -3.011e-7
-1.261, -3.495e-7
-1.260, -3.337e-7
-1.259, -3.406e-7
-1.258, -3.416e-7
-1.257, -3.652e-7
-1.256, -3.731e-7
-1.255, -3.603e-7
-1.254, -3.938e-7
-1.253, -3.317e-7
-1.252, -3.751e-7
-1.251, -3.899e-7
-1.250, -3.810e-7
-1.249, -4.096e-7
-1.248, -3.840e-7
-1.247, -3.938e-7
-1.246, -4.136e-7
-1.245, -3.850e-7
-1.244, -4.008e-7
-1.243, -3.889e-7
-1.242, -4.106e-7
-1.241, -4.264e-7
-1.240, -4.165e-7
-1.239, -4.304e-7
-1.238, -4.136e-7
-1.237, -4.086e-7
-1.236, -4.550e-7
-1.235, -4.274e-7
-1.234, -4.165e-7
-1.233, -4.284e-7
-1.232, -4.284e-7
-1.231, -4.669e-7
-1.230, -4.619e-7
-1.229, -4.550e-7
-1.228, -4.540e-7
-1.227, -4.550e-7
-1.226, -4.757e-7
-1.225, -4.728e-7
-1.224, -4.412e-7
-1.223, -4.284e-7
-1.222, -4.619e-7
-1.221, -4.678e-7
-1.220, -4.886e-7
-1.219, -4.422e-7
-1.218, -4.619e-7
-1.217, -4.521e-7
-1.216, -5.024e-7
-1.215, -5.063e-7
-1.214, -4.422e-7
-1.213, -4.777e-7
-1.212, -4.895e-7
-1.211, -5.339e-7
-1.210, -5.280e-7
-1.209, -4.501e-7
-1.208, -4.590e-7
-1.207, -5.142e-7
-1.206, -5.113e-7
-1.205, -5.014e-7
-1.204, -5.034e-7
-1.203, -5.004e-7
-1.202, -5.379e-7
-1.201, -5.517e-7
-1.200, -5.448e-7
-1.199, -5.201e-7
-1.198, -4.994e-7
-1.197, -5.191e-7
-1.196, -5.330e-7
-1.195, -5.626e-7
-1.194, -5.261e-7
-1.193, -4.767e-7
-1.192, -5.369e-7
-1.191, -5.478e-7
-1.190, -5.764e-7
-1.189, -5.458e-7
-1.188, -5.024e-7
-1.187, -5.547e-7
-1.186, -5.665e-7
-1.185, -5.468e-7
-1.184, -5.507e-7
-1.183, -5.231e-7
-1.182, -5.389e-7
-1.181, -6.010e-7
-1.180, -5.645e-7
-1.179, -5.497e-7
-1.178, -4.945e-7
-1.177, -5.616e-7
-1.176, -6.060e-7
-1.175, -5.665e-7
-1.174, -5.724e-7
-1.173, -5.418e-7
-1.172, -5.695e-7
-1.171, -6.129e-7
-1.170, -5.764e-7
-1.169, -5.537e-7
-1.168, -5.182e-7
-1.167, -5.626e-7
-1.166, -6.030e-7
-1.165, -6.010e-7
-1.164, -6.040e-7
-1.163, -5.803e-7
-1.162, -5.734e-7
-1.161, -6.237e-7
-1.160, -6.020e-7
-1.159, -5.704e-7
-1.158, -5.714e-7
-1.157, -5.724e-7
-1.156, -6.109e-7
-1.155, -6.188e-7
-1.154, -6.129e-7
-1.153, -5.616e-7
-1.152, -5.912e-7
-1.151, -6.237e-7
-1.150, -6.218e-7
-1.149, -5.852e-7
-1.148, -5.971e-7
-1.147, -5.724e-7
-1.146, -6.642e-7
-1.145, -6.188e-7
-1.144, -5.922e-7
-1.143, -6.257e-7
-1.142, -6.119e-7
-1.141, -6.070e-7
-1.140, -6.385e-7
-1.139, -6.218e-7
-1.138, -6.109e-7
-1.137, -6.178e-7
-1.136, -6.504e-7
-1.135, -6.306e-7
-1.134, -6.208e-7
-1.133, -6.148e-7
-1.132, -6.188e-7
-1.131, -6.306e-7
-1.130, -6.583e-7
-1.129, -5.931e-7
-1.128, -6.198e-7
-1.127, -6.366e-7
-1.126, -6.612e-7
-1.125, -6.661e-7
-1.124, -6.514e-7
-1.123, -6.484e-7
-1.122, -6.819e-7
-1.121, -6.543e-7
-1.120, -6.533e-7
-1.119, -6.661e-7
-1.118, -6.277e-7
-1.117, -6.592e-7
-1.116, -6.957e-7
-1.115, -6.711e-7
-1.114, -6.809e-7
-1.113, -6.701e-7
-1.112, -6.780e-7
-1.111, -6.652e-7
-1.110, -6.819e-7
-1.109, -6.543e-7
-1.108, -6.790e-7
-1.107, -6.888e-7
-1.106, -7.135e-7
-1.105, -6.977e-7
-1.104, -6.740e-7
-1.103, -6.661e-7
-1.102, -7.007e-7
-1.101, -7.076e-7
-1.100, -6.809e-7
-1.099, -6.760e-7
-1.098, -6.918e-7
-1.097, -7.283e-7
-1.096, -7.392e-7
-1.095, -7.036e-7
-1.094, -7.105e-7
-1.093, -6.987e-7
-1.092, -7.234e-7
-1.091, -7.313e-7
-1.090, -7.135e-7
-1.089, -7.175e-7
-1.088, -7.056e-7
-1.087, -7.401e-7
-1.086, -7.352e-7
-1.085, -7.313e-7
-1.084, -7.194e-7
-1.083, -7.263e-7
-1.082, -7.234e-7
-1.081, -7.658e-7
-1.080, -7.214e-7
-1.079, -7.303e-7
-1.078, -7.224e-7
-1.077, -7.451e-7
-1.076, -7.717e-7
-1.075, -7.569e-7
-1.074, -7.115e-7
-1.073, -7.658e-7
-1.072, -7.678e-7
-1.071, -7.885e-7
-1.070, -7.648e-7
-1.069, -7.293e-7
-1.068, -7.559e-7
-1.067, -7.648e-7
-1.066, -8.033e-7
-1.065, -8.033e-7
-1.064, -7.382e-7
-1.063, -7.569e-7
-1.062, -7.974e-7
-1.061, -8.013e-7
-1.060, -7.826e-7
-1.059, -7.865e-7
-1.058, -7.905e-7
-1.057, -7.786e-7
-1.056, -8.339e-7
-1.055, -8.329e-7
-1.054, -8.013e-7
-1.053, -7.757e-7
-1.052, -8.132e-7
-1.051, -8.220e-7
-1.050, -8.477e-7
-1.049, -7.865e-7
-1.048, -7.964e-7
-1.047, -8.477e-7
-1.046, -8.319e-7
-1.045, -8.437e-7
-1.044, -8.023e-7
-1.043, -8.053e-7
-1.042, -8.585e-7
-1.041, -8.536e-7
-1.040, -8.714e-7
-1.039, -8.418e-7
-1.038, -8.418e-7
-1.037, -8.832e-7
-1.036, -8.822e-7
-1.035, -8.684e-7
-1.034, -8.161e-7
-1.033, -7.954e-7
-1.032, -8.743e-7
-1.031, -8.704e-7
-1.030, -8.773e-7
-1.029, -8.585e-7
-1.028, -8.260e-7
-1.027, -8.625e-7
-1.026, -9.010e-7
-1.025, -8.674e-7
-1.024, -8.812e-7
-1.023, -8.694e-7
-1.022, -9.059e-7
-1.021, -9.167e-7
-1.020, -9.207e-7
-1.019, -9.424e-7
-1.018, -8.674e-7
-1.017, -8.822e-7
-1.016, -9.384e-7
-1.015, -8.743e-7
-1.014, -8.911e-7
-1.013, -8.950e-7
-1.012, -9.128e-7
-1.011, -9.651e-7
-1.010, -9.138e-7
-1.009, -9.246e-7
-1.008, -9.167e-7
-1.007, -9.306e-7
-1.006, -9.404e-7
-1.005, -9.246e-7
-1.004, -9.424e-7
-1.003, -9.246e-7
-1.002, -9.286e-7
-1.001, -9.819e-7
-1.000, -7.954e-7
-1.001, -6.760e-7
-1.002, -5.991e-7
-1.003, -5.507e-7
-1.004, -5.330e-7
-1.005, -4.965e-7
-1.006, -4.580e-7
-1.007, -4.343e-7
-1.008, -4.037e-7
-1.009, -4.215e-7
-1.010, -3.652e-7
-1.011, -3.159e-7
-1.012, -3.277e-7
-1.013, -2.932e-7
-1.014, -3.139e-7
-1.015, -2.883e-7
-1.016, -2.468e-7
-1.017, -2.419e-7
-1.018, -2.291e-7
-1.019, -2.153e-7
-1.020, -2.153e-7
-1.021, -1.886e-7
-1.022, -1.472e-7
-1.023, -1.620e-7
-1.024, -1.630e-7
-1.025, -1.127e-7
-1.026, -6.235e-8
-1.027, -9.392e-8
-1.028, -8.603e-8
-1.029, -6.531e-8
-1.030, -6.433e-8
-1.031, -3.473e-8
-1.032, -1.105e-8
-1.033, -4.262e-8
-1.034, -2.388e-8
-1.035, -3.275e-8
-1.036, 1.164e-8
-1.037, 3.335e-8
-1.038, -1.184e-9
-1.039, 2.249e-8
-1.040, 2.841e-8
-1.041, 8.268e-8
-1.042, 8.662e-8
-1.043, 5.407e-8
-1.044, 8.268e-8
-1.045, 1.133e-7
-1.046, 1.152e-7
-1.047, 1.271e-7
-1.048, 9.452e-8
-1.049, 1.281e-7
-1.050, 1.271e-7
-1.051, 1.675e-7
-1.052, 1.675e-7
-1.053, 1.488e-7
-1.054, 1.537e-7
-1.055, 1.527e-7
-1.056, 1.833e-7
-1.057, 1.725e-7
-1.058, 1.547e-7
-1.059, 1.794e-7
-1.060, 1.892e-7
-1.061, 2.218e-7
-1.062, 2.346e-7
-1.063, 2.060e-7
-1.064, 2.109e-7
-1.065, 2.514e-7
-1.066, 2.534e-7
-1.067, 2.632e-7
-1.068, 2.395e-7
-1.069, 2.642e-7
-1.070, 2.672e-7
-1.071, 2.948e-7
-1.072, 2.879e-7
-1.073, 2.691e-7
-1.074, 2.435e-7
-1.075, 3.086e-7
-1.076, 3.007e-7
-1.077, 3.155e-7
-1.078, 3.027e-7
-1.079, 2.978e-7
-1.080, 3.382e-7
-1.081, 3.491e-7
-1.082, 3.609e-7
-1.083, 3.323e-7
-1.084, 3.037e-7
-1.085, 3.678e-7
-1.086, 3.737e-7
-1.087, 3.629e-7
-1.088, 3.747e-7
-1.089, 3.757e-7
-1.090, 3.777e-7
-1.091, 4.221e-7
-1.092, 4.260e-7
-1.093, 3.767e-7
-1.094, 3.806e-7
-1.095, 4.102e-7
-1.096, 4.457e-7
-1.097, 4.142e-7
-1.098, 4.280e-7
-1.099, 4.240e-7
-1.100, 4.092e-7
-1.101, 4.783e-7
-1.102, 4.665e-7
-1.103, 4.329e-7
-1.104, 4.596e-7
-1.105, 4.586e-7
-1.106, 5.109e-7
-1.107, 5.000e-7
-1.108, 4.724e-7
-1.109, 4.901e-7
-1.110, 5.030e-7
-1.111, 5.188e-7
-1.112, 5.345e-7
-1.113, 5.197e-7
-1.114, 4.980e-7
-1.115, 5.188e-7
-1.116, 5.730e-7
-1.117, 5.553e-7
-1.118, 5.197e-7
-1.119, 5.326e-7
-1.120, 5.227e-7
-1.121, 5.622e-7
-1.122, 5.858e-7
-1.123, 5.641e-7
-1.124, 5.572e-7
-1.125, 5.750e-7
-1.126, 6.135e-7
-1.127, 5.937e-7
-1.128, 5.898e-7
-1.129, 5.967e-7
-1.130, 6.026e-7
-1.131, 6.056e-7
-1.132, 6.085e-7
-1.133, 6.095e-7
-1.134, 6.026e-7
-1.135, 6.263e-7
-1.136, 6.519e-7
-1.137, 6.579e-7
-1.138, 6.302e-7
-1.139, 6.164e-7
-1.140, 6.598e-7
-1.141, 6.638e-7
-1.142, 6.687e-7
-1.143, 6.598e-7
-1.144, 6.421e-7
-1.145, 6.687e-7
-1.146, 6.894e-7
-1.147, 6.993e-7
-1.148, 6.707e-7
-1.149, 6.470e-7
-1.150, 6.796e-7
-1.151, 6.954e-7
-1.152, 7.072e-7
-1.153, 6.963e-7
-1.154, 6.806e-7
-1.155, 7.319e-7
-1.156, 7.250e-7
-1.157, 7.013e-7
-1.158, 7.457e-7
-1.159, 6.875e-7
-1.160, 7.309e-7
-1.161, 7.506e-7
-1.162, 7.200e-7
-1.163, 7.506e-7
-1.164, 6.973e-7
-1.165, 7.388e-7
-1.166, 7.960e-7
-1.167, 7.585e-7
-1.168, 7.348e-7
-1.169, 7.595e-7
-1.170, 7.565e-7
-1.171, 7.960e-7
-1.172, 7.585e-7
-1.173, 7.792e-7
-1.174, 7.940e-7
-1.175, 7.792e-7
-1.176, 8.049e-7
-1.177, 8.049e-7
-1.178, 7.911e-7
-1.179, 7.891e-7
-1.180, 7.733e-7
-1.181, 8.512e-7
-1.182, 7.989e-7
-1.183, 7.970e-7
-1.184, 8.453e-7
-1.185, 8.305e-7
-1.186, 8.581e-7
-1.187, 8.128e-7
-1.188, 8.088e-7
-1.189, 8.147e-7
-1.190, 8.463e-7
-1.191, 8.769e-7
-1.192, 8.808e-7
-1.193, 8.552e-7
-1.194, 8.532e-7
-1.195, 8.502e-7
-1.196, 8.986e-7
-1.197, 8.868e-7
-1.198, 8.611e-7
-1.199, 8.838e-7
-1.200, 8.779e-7
-1.201, 8.937e-7
-1.202, 8.946e-7
-1.203, 8.759e-7
-1.204, 9.035e-7
-1.205, 9.203e-7
-1.206, 9.420e-7
-1.207, 9.410e-7
-1.208, 8.808e-7
-1.209, 8.976e-7
-1.210, 9.519e-7
-1.211, 9.361e-7
-1.212, 9.598e-7
-1.213, 9.094e-7
-1.214, 9.321e-7
-1.215, 9.765e-7
-1.216, 9.686e-7
-1.217, 9.509e-7
-1.218, 9.686e-7
-1.219, 9.282e-7
-1.220, 9.864e-7
-1.221, 9.825e-7
-1.222, 9.943e-7
-1.223, 9.311e-7
-1.224, 9.627e-7
-1.225, 9.805e-7
-1.226, 1.006e-6
-1.227, 9.795e-7
-1.228, 9.726e-7
-1.229, 1.010e-6
-1.230, 1.034e-6
-1.231, 1.045e-6
-1.232, 1.048e-6
-1.233, 1.020e-6
-1.234, 1.009e-6
-1.235, 1.015e-6
-1.236, 1.066e-6
-1.237, 1.028e-6
-1.238, 1.011e-6
-1.239, 9.943e-7
-1.240, 1.039e-6
-1.241, 1.056e-6
-1.242, 1.045e-6
-1.243, 1.052e-6
-1.244, 1.061e-6
-1.245, 1.039e-6
-1.246, 1.089e-6
-1.247, 1.048e-6
-1.248, 1.051e-6
-1.249, 1.051e-6
-1.250, 1.054e-6
-1.251, 1.113e-6
-1.252, 1.093e-6
-1.253, 1.062e-6
-1.254, 1.078e-6
-1.255, 1.104e-6
-1.256, 1.127e-6
-1.257, 1.115e-6
-1.258, 1.104e-6
-1.259, 1.088e-6
-1.260, 1.102e-6
-1.261, 1.173e-6
-1.262, 1.114e-6
-1.263, 1.106e-6
-1.264, 1.131e-6
-1.265, 1.105e-6
-1.266, 1.187e-6
-1.267, 1.163e-6
-1.268, 1.107e-6
-1.269, 1.149e-6
-1.270, 1.173e-6
-1.271, 1.200e-6
-1.272, 1.165e-6
-1.273, 1.149e-6
-1.274, 1.173e-6
-1.275, 1.165e-6
-1.276, 1.173e-6
-1.277, 1.204e-6
-1.278, 1.154e-6
-1.279, 1.162e-6
-1.280, 1.200e-6
-1.281, 1.212e-6
-1.282, 1.212e-6
-1.283, 1.176e-6
-1.284, 1.202e-6
-1.285, 1.233e-6
-1.286, 1.198e-6
-1.287, 1.220e-6
-1.288, 1.225e-6
-1.289, 1.233e-6
-1.290, 1.267e-6
-1.291, 1.253e-6
-1.292, 1.258e-6
-1.293, 1.246e-6
-1.294, 1.210e-6
-1.295, 1.255e-6
-1.296, 1.263e-6
-1.297, 1.262e-6
-1.298, 1.234e-6
-1.299, 1.245e-6
-1.300, 1.274e-6
-1.301, 1.261e-6
-1.302, 1.232e-6
-1.303, 1.283e-6
-1.304, 1.233e-6
-1.305, 1.269e-6
-1.306, 1.271e-6
-1.307, 1.307e-6
-1.308, 1.288e-6
-1.309, 1.240e-6
-1.310, 1.290e-6
-1.311, 1.299e-6
-1.312, 1.301e-6
-1.313, 1.291e-6
-1.314, 1.284e-6
-1.315, 1.302e-6
-1.316, 1.309e-6
-1.317, 1.287e-6
-1.318, 1.316e-6
-1.319, 1.294e-6
-1.320, 1.308e-6
-1.321, 1.322e-6
-1.322, 1.346e-6
-1.323, 1.328e-6
-1.324, 1.312e-6
-1.325, 1.351e-6
-1.326, 1.394e-6
-1.327, 1.375e-6
-1.328, 1.345e-6
-1.329, 1.343e-6
-1.330, 1.373e-6
-1.331, 1.357e-6
-1.332, 1.375e-6
-1.333, 1.335e-6
-1.334, 1.368e-6
-1.335, 1.369e-6
-1.336, 1.409e-6
-1.337, 1.365e-6
-1.338, 1.372e-6
-1.339, 1.368e-6
-1.340, 1.402e-6
-1.341, 1.424e-6
-1.342, 1.383e-6
-1.343, 1.370e-6
-1.344, 1.423e-6
-1.345, 1.451e-6
-1.346, 1.447e-6
-1.347, 1.420e-6
-1.348, 1.389e-6
-1.349, 1.432e-6
-1.350, 1.456e-6
-1.351, 1.450e-6
-1.352, 1.464e-6
-1.353, 1.400e-6
-1.354, 1.423e-6
-1.355, 1.488e-6
-1.356, 1.470e-6
-1.357, 1.474e-6
-1.358, 1.462e-6
-1.359, 1.470e-6
-1.360, 1.529e-6
-1.361, 1.477e-6
-1.362, 1.477e-6
-1.363, 1.468e-6
-1.364, 1.477e-6
-1.365, 1.493e-6
-1.366, 1.524e-6
-1.367, 1.501e-6
-1.368, 1.509e-6
-1.369, 1.472e-6
-1.370, 1.550e-6
-1.371, 1.538e-6
-1.372, 1.513e-6
-1.373, 1.516e-6
-1.374, 1.510e-6
-1.375, 1.557e-6
-1.376, 1.575e-6
-1.377, 1.510e-6
-1.378, 1.512e-6
-1.379, 1.508e-6
-1.380, 1.567e-6
-1.381, 1.578e-6
-1.382, 1.560e-6
-1.383, 1.575e-6
-1.384, 1.563e-6
-1.385, 1.584e-6
-1.386, 1.628e-6
-1.387, 1.579e-6
-1.388, 1.568e-6
-1.389, 1.581e-6
-1.390, 1.594e-6
-1.391, 1.644e-6
-1.392, 1.597e-6
-1.393, 1.567e-6
-1.394, 1.631e-6
-1.395, 1.607e-6
-1.396, 1.670e-6
-1.397, 1.644e-6
-1.398, 1.601e-6
-1.399, 1.617e-6
-1.400, 1.642e-6
-1.401, 1.701e-6
-1.402, 1.643e-6
-1.403, 1.620e-6
-1.404, 1.652e-6
-1.405, 1.672e-6
-1.406, 1.649e-6
-1.407, 1.681e-6
-1.408, 1.666e-6
-1.409, 1.715e-6
-1.410, 1.690e-6
-1.411, 1.720e-6
-1.412, 1.748e-6
-1.413, 1.677e-6
-1.414, 1.712e-6
-1.415, 1.735e-6
-1.416, 1.756e-6
-1.417, 1.727e-6
-1.418, 1.681e-6
-1.419, 1.771e-6
-1.420, 1.754e-6
-1.421, 1.755e-6
-1.422, 1.793e-6
-1.423, 1.743e-6
-1.424, 1.736e-6
-1.425, 1.798e-6
-1.426, 1.764e-6
-1.427, 1.840e-6
-1.428, 1.800e-6
-1.429, 1.749e-6
-1.430, 1.849e-6
-1.431, 1.833e-6
-1.432, 1.858e-6
-1.433, 1.833e-6
-1.434, 1.810e-6
-1.435, 1.845e-6
-1.436, 1.852e-6
-1.437, 1.838e-6
-1.438, 1.846e-6
-1.439, 1.848e-6
-1.440, 1.901e-6
-1.441, 1.911e-6
-1.442, 1.906e-6
-1.443, 1.888e-6
-1.444, 1.867e-6
-1.445, 1.910e-6
-1.446, 1.919e-6
-1.447, 1.946e-6
-1.448, 1.908e-6
-1.449, 1.937e-6
-1.450, 1.959e-6
-1.451, 1.977e-6
-1.452, 1.943e-6
-1.453, 1.945e-6
-1.454, 1.968e-6
-1.455, 1.950e-6
-1.456, 1.983e-6
-1.457, 1.976e-6
-1.458, 2.015e-6
-1.459, 2.022e-6
-1.460, 2.013e-6
-1.461, 2.033e-6
-1.462, 2.028e-6
-1.463, 2.041e-6
-1.464, 2.036e-6
-1.465, 2.024e-6
-1.466, 2.088e-6
-1.467, 2.060e-6
-1.468, 2.063e-6
-1.469, 2.083e-6
-1.470, 2.105e-6
-1.471, 2.117e-6
-1.472, 2.110e-6
-1.473, 2.082e-6
-1.474, 2.168e-6
-1.475, 2.163e-6
-1.476, 2.179e-6
-1.477, 2.137e-6
-1.478, 2.181e-6
-1.479, 2.191e-6
-1.480, 2.204e-6
-1.481, 2.239e-6
-1.482, 2.207e-6
-1.483, 2.210e-6
-1.484, 2.238e-6
-1.485, 2.267e-6
-1.486, 2.295e-6
-1.487, 2.304e-6
-1.488, 2.268e-6
-1.489, 2.296e-6
-1.490, 2.331e-6
-1.491, 2.348e-6
-1.492, 2.317e-6
-1.493, 2.336e-6
-1.494, 2.341e-6
-1.495, 2.392e-6
-1.496, 2.394e-6
-1.497, 2.434e-6
-1.498, 2.392e-6
-1.499, 2.410e-6
-1.500, 2.476e-6
-1.501, 2.481e-6
-1.502, 2.450e-6
-1.503, 2.468e-6
-1.504, 2.490e-6
-1.505, 2.532e-6
-1.506, 2.527e-6
-1.507, 2.532e-6
-1.508, 2.565e-6
-1.509, 2.544e-6
-1.510, 2.585e-6
-1.511, 2.608e-6
-1.512, 2.577e-6
-1.513, 2.598e-6
-1.514, 2.651e-6
-1.515, 2.700e-6
-1.516, 2.735e-6
-1.517, 2.716e-6
-1.518, 2.699e-6
-1.519, 2.732e-6
-1.520, 2.766e-6
-1.521, 2.784e-6
-1.522, 2.806e-6
-1.523, 2.797e-6
-1.524, 2.833e-6
-1.525, 2.882e-6
-1.526, 2.913e-6
-1.527, 2.878e-6
-1.528, 2.901e-6
-1.529, 2.900e-6
-1.530, 2.977e-6
-1.531, 3.029e-6
-1.532, 2.978e-6
-1.533, 2.996e-6
-1.534, 3.052e-6
-1.535, 3.079e-6
-1.536, 3.132e-6
-1.537, 3.109e-6
-1.538, 3.139e-6
-1.539, 3.155e-6
-1.540, 3.222e-6
-1.541, 3.253e-6
-1.542, 3.264e-6
-1.543, 3.279e-6
-1.544, 3.312e-6
-1.545, 3.351e-6
-1.546, 3.400e-6
-1.547, 3.373e-6
-1.548, 3.390e-6
-1.549, 3.450e-6
-1.550, 3.510e-6
-1.551, 3.538e-6
-1.552, 3.547e-6
-1.553, 3.560e-6
-1.554, 3.646e-6
-1.555, 3.665e-6
-1.556, 3.728e-6
-1.557, 3.772e-6
-1.558, 3.763e-6
-1.559, 3.788e-6
-1.560, 3.835e-6
-1.561, 3.911e-6
-1.562, 3.942e-6
-1.563, 3.919e-6
-1.564, 4.001e-6
-1.565, 4.071e-6
-1.566, 4.149e-6
-1.567, 4.150e-6
-1.568, 4.154e-6
-1.569, 4.217e-6
-1.570, 4.296e-6
-1.571, 4.359e-6
-1.572, 4.390e-6
-1.573, 4.415e-6
-1.574, 4.474e-6
-1.575, 4.551e-6
-1.576, 4.626e-6
-1.577, 4.680e-6
-1.578, 4.697e-6
-1.579, 4.744e-6
-1.580, 4.877e-6
-1.581, 4.952e-6
-1.582, 4.987e-6
-1.583, 4.983e-6
-1.584, 5.065e-6
-1.585, 5.175e-6
-1.586, 5.240e-6
-1.587, 5.305e-6
-1.588, 5.335e-6
-1.589, 5.439e-6
-1.590, 5.559e-6
-1.591, 5.647e-6
-1.592, 5.693e-6
-1.593, 5.750e-6
-1.594, 5.810e-6
-1.595, 5.931e-6
-1.596, 6.024e-6
-1.597, 6.098e-6
-1.598, 6.174e-6
-1.599, 6.251e-6
-1.600, 6.387e-6
-1.601, 6.495e-6
-1.602, 6.581e-6
-1.603, 6.691e-6
-1.604, 6.761e-6
-1.605, 6.903e-6
-1.606, 7.014e-6
-1.607, 7.108e-6
-1.608, 7.237e-6
-1.609, 7.312e-6
-1.610, 7.476e-6
-1.611, 7.596e-6
-1.612, 7.699e-6
-1.613, 7.809e-6
-1.614, 7.919e-6
-1.615, 8.056e-6
-1.616, 8.228e-6
-1.617, 8.291e-6
-1.618, 8.417e-6
-1.619, 8.591e-6
-1.620, 8.762e-6
-1.621, 8.874e-6
-1.622, 8.963e-6
-1.623, 9.127e-6
-1.624, 9.271e-6
-1.625, 9.412e-6
-1.626, 9.592e-6
-1.627, 9.733e-6
-1.628, 9.852e-6
-1.629, 1.003e-5
-1.630, 1.018e-5
-1.631, 1.037e-5
-1.632, 1.051e-5
-1.633, 1.064e-5
-1.634, 1.084e-5
-1.635, 1.101e-5
-1.636, 1.119e-5
-1.637, 1.137e-5
-1.638, 1.154e-5
-1.639, 1.177e-5
-1.640, 1.195e-5
-1.641, 1.214e-5
-1.642, 1.231e-5
-1.643, 1.246e-5
-1.644, 1.268e-5
-1.645, 1.293e-5
-1.646, 1.311e-5
-1.647, 1.333e-5
-1.648, 1.351e-5
-1.649, 1.373e-5
-1.650, 1.400e-5
-1.651, 1.421e-5
-1.652, 1.443e-5
-1.653, 1.462e-5
-1.654, 1.490e-5
-1.655, 1.518e-5
-1.656, 1.542e-5
-1.657, 1.566e-5
-1.658, 1.594e-5
-1.659, 1.617e-5
-1.660, 1.646e-5
-1.661, 1.672e-5
-1.662, 1.700e-5
-1.663, 1.725e-5
-1.664, 1.750e-5
-1.665, 1.787e-5
-1.666, 1.818e-5
-1.667, 1.841e-5
-1.668, 1.873e-5
-1.669, 1.904e-5
-1.670, 1.936e-5
-1.671, 1.972e-5
-1.672, 1.998e-5
-1.673, 2.028e-5
-1.674, 2.064e-5
-1.675, 2.102e-5
-1.676, 2.139e-5
-1.677, 2.169e-5
-1.678, 2.204e-5
-1.679, 2.243e-5
-1.680, 2.278e-5
-1.681, 2.317e-5
-1.682, 2.357e-5
-1.683, 2.389e-5
-1.684, 2.431e-5
-1.685, 2.469e-5
-1.686, 2.515e-5
-1.687, 2.550e-5
-1.688, 2.584e-5
-1.689, 2.633e-5
-1.690, 2.682e-5
-1.691, 2.723e-5
-1.692, 2.761e-5
-1.693, 2.805e-5
-1.694, 2.855e-5
-1.695, 2.902e-5
-1.696, 2.952e-5
-1.697, 2.995e-5
-1.698, 3.045e-5
-1.699, 3.093e-5
-1.700, 3.145e-5
-1.701, 3.199e-5
-1.702, 3.246e-5
-1.703, 3.295e-5
-1.704, 3.351e-5
-1.705, 3.410e-5
-1.706, 3.467e-5
-1.707, 3.517e-5
-1.708, 3.568e-5
-1.709, 3.623e-5
-1.710, 3.686e-5
-1.711, 3.752e-5
-1.712, 3.805e-5
-1.713, 3.861e-5
-1.714, 3.923e-5
-1.715, 3.991e-5
-1.716, 4.055e-5
-1.717, 4.118e-5
-1.718, 4.181e-5
-1.719, 4.255e-5
-1.720, 4.329e-5
-1.721, 4.401e-5
-1.722, 4.472e-5
-1.723, 4.540e-5
-1.724, 4.614e-5
-1.725, 4.696e-5
-1.726, 4.776e-5
-1.727, 4.850e-5
-1.728, 4.932e-5
-1.729, 5.013e-5
-1.730, 5.099e-5
-1.731, 5.187e-5
-1.732, 5.274e-5
-1.733, 5.359e-5
-1.734, 5.446e-5
-1.735, 5.545e-5
-1.736, 5.641e-5
-1.737, 5.736e-5
-1.738, 5.831e-5
-1.739, 5.931e-5
-1.740, 6.038e-5
-1.741, 6.149e-5
-1.742, 6.251e-5
-1.743, 6.355e-5
-1.744, 6.470e-5
-1.745, 6.587e-5
-1.746, 6.708e-5
-1.747, 6.824e-5
-1.748, 6.942e-5
-1.749, 7.067e-5
-1.750, 7.199e-5
-1.751, 7.336e-5
-1.752, 7.463e-5
-1.753, 7.598e-5
-1.754, 7.737e-5
-1.755, 7.883e-5
-1.756, 8.036e-5
-1.757, 8.181e-5
-1.758, 8.332e-5
-1.759, 8.488e-5
-1.760, 8.648e-5
-1.761, 8.821e-5
-1.762, 8.988e-5
-1.763, 9.151e-5
-1.764, 9.327e-5
-1.765, 9.507e-5
-1.766, 9.703e-5
-1.767, 9.888e-5
-1.768, 1.008e-4
-1.769, 1.028e-4
-1.770, 1.048e-4
-1.771, 1.069e-4
-1.772, 1.091e-4
-1.773, 1.112e-4
-1.774, 1.134e-4
-1.775, 1.158e-4
-1.776, 1.182e-4
-1.777, 1.206e-4
-1.778, 1.230e-4
-1.779, 1.255e-4
-1.780, 1.282e-4
-1.781, 1.308e-4
-1.782, 1.336e-4
-1.783, 1.364e-4
-1.784, 1.392e-4
-1.785, 1.423e-4
-1.786, 1.453e-4
-1.787, 1.484e-4
-1.788, 1.516e-4
-1.789, 1.550e-4
-1.790, 1.584e-4
-1.791, 1.618e-4
-1.792, 1.655e-4
-1.793, 1.691e-4
-1.794, 1.728e-4
-1.795, 1.767e-4
-1.796, 1.807e-4
-1.797, 1.847e-4
-1.798, 1.888e-4
-1.799, 1.930e-4
-1.800, 1.944e-4
-1.799, 1.925e-4
-1.798, 1.905e-4
-1.797, 1.883e-4
-1.796, 1.861e-4
-1.795, 1.839e-4
-1.794, 1.817e-4
-1.793, 1.793e-4
-1.792, 1.769e-4
-1.791, 1.745e-4
-1.790, 1.722e-4
-1.789, 1.699e-4
-1.788, 1.676e-4
-1.787, 1.652e-4
-1.786, 1.629e-4
-1.785, 1.606e-4
-1.784, 1.584e-4
-1.783, 1.560e-4
-1.782, 1.537e-4
-1.781, 1.515e-4
-1.780, 1.492e-4
-1.779, 1.471e-4
-1.778, 1.450e-4
-1.777, 1.427e-4
-1.776, 1.406e-4
-1.775, 1.385e-4
-1.774, 1.365e-4
-1.773, 1.344e-4
-1.772, 1.323e-4
-1.771, 1.302e-4
-1.770, 1.283e-4
-1.769, 1.264e-4
-1.768, 1.245e-4
-1.767, 1.226e-4
-1.766, 1.207e-4
-1.765, 1.189e-4
-1.764, 1.171e-4
-1.763, 1.153e-4
-1.762, 1.135e-4
-1.761, 1.118e-4
-1.760, 1.100e-4
-1.759, 1.084e-4
-1.758, 1.068e-4
-1.757, 1.051e-4
-1.756, 1.035e-4
-1.755, 1.019e-4
-1.754, 1.004e-4
-1.753, 9.880e-5
-1.752, 9.720e-5
-1.751, 9.569e-5
-1.750, 9.420e-5
-1.749, 9.279e-5
-1.748, 9.133e-5
-1.747, 8.991e-5
-1.746, 8.852e-5
-1.745, 8.720e-5
-1.744, 8.589e-5
-1.743, 8.453e-5
-1.742, 8.317e-5
-1.741, 8.192e-5
-1.740, 8.065e-5
-1.739, 7.942e-5
-1.738, 7.826e-5
-1.737, 7.702e-5
-1.736, 7.579e-5
-1.735, 7.467e-5
-1.734, 7.348e-5
-1.733, 7.241e-5
-1.732, 7.123e-5
-1.731, 7.017e-5
-1.730, 6.910e-5
-1.729, 6.805e-5
-1.728, 6.697e-5
-1.727, 6.593e-5
-1.726, 6.491e-5
-1.725, 6.396e-5
-1.724, 6.297e-5
-1.723, 6.199e-5
-1.722, 6.103e-5
-1.721, 6.004e-5
-1.720, 5.918e-5
-1.719, 5.829e-5
-1.718, 5.737e-5
-1.717, 5.646e-5
-1.716, 5.560e-5
-1.715, 5.476e-5
-1.714, 5.392e-5
-1.713, 5.305e-5
-1.712, 5.222e-5
-1.711, 5.145e-5
-1.710, 5.064e-5
-1.709, 4.988e-5
-1.708, 4.908e-5
-1.707, 4.830e-5
-1.706, 4.754e-5
-1.705, 4.686e-5
-1.704, 4.618e-5
-1.703, 4.540e-5
-1.702, 4.468e-5
-1.701, 4.398e-5
-1.700, 4.332e-5
-1.699, 4.265e-5
-1.698, 4.194e-5
-1.697, 4.126e-5
-1.696, 4.061e-5
-1.695, 3.996e-5
-1.694, 3.939e-5
-1.693, 3.877e-5
-1.692, 3.809e-5
-1.691, 3.757e-5
-1.690, 3.694e-5
-1.689, 3.634e-5
-1.688, 3.579e-5
-1.687, 3.516e-5
-1.686, 3.462e-5
-1.685, 3.406e-5
-1.684, 3.356e-5
-1.683, 3.300e-5
-1.682, 3.242e-5
-1.681, 3.194e-5
-1.680, 3.142e-5
-1.679, 3.093e-5
-1.678, 3.041e-5
-1.677, 2.986e-5
-1.676, 2.941e-5
-1.675, 2.898e-5
-1.674, 2.848e-5
-1.673, 2.801e-5
-1.672, 2.751e-5
-1.671, 2.708e-5
-1.670, 2.670e-5
-1.669, 2.625e-5
-1.668, 2.580e-5
-1.667, 2.532e-5
-1.666, 2.492e-5
-1.665, 2.453e-5
-1.664, 2.411e-5
-1.663, 2.368e-5
-1.662, 2.329e-5
-1.661, 2.289e-5
-1.660, 2.255e-5
-1.659, 2.218e-5
-1.658, 2.181e-5
-1.657, 2.140e-5
-1.656, 2.101e-5
-1.655, 2.072e-5
-1.654, 2.037e-5
-1.653, 2.001e-5
-1.652, 1.964e-5
-1.651, 1.929e-5
-1.650, 1.902e-5
-1.649, 1.869e-5
-1.648, 1.833e-5
-1.647, 1.799e-5
-1.646, 1.766e-5
-1.645, 1.743e-5
-1.644, 1.713e-5
-1.643, 1.679e-5
-1.642, 1.650e-5
-1.641, 1.620e-5
-1.640, 1.590e-5
-1.639, 1.567e-5
-1.638, 1.532e-5
-1.637, 1.502e-5
-1.636, 1.480e-5
-1.635, 1.453e-5
-1.634, 1.432e-5
-1.633, 1.402e-5
-1.632, 1.375e-5
-1.631, 1.349e-5
-1.630, 1.328e-5
-1.629, 1.310e-5
-1.628, 1.281e-5
-1.627, 1.256e-5
-1.626, 1.229e-5
-1.625, 1.209e-5
-1.624, 1.192e-5
-1.623, 1.169e-5
-1.622, 1.142e-5
-1.621, 1.126e-5
-1.620, 1.102e-5
-1.619, 1.090e-5
-1.618, 1.066e-5
-1.617, 1.044e-5
-1.616, 1.027e-5
-1.615, 1.010e-5
-1.614, 9.908e-6
-1.613, 9.741e-6
-1.612, 9.554e-6
-1.611, 9.383e-6
-1.610, 9.156e-6
-1.609, 9.032e-6
-1.608, 8.858e-6
-1.607, 8.653e-6
-1.606, 8.502e-6
-1.605, 8.367e-6
-1.604, 8.236e-6
-1.603, 8.067e-6
-1.602, 7.863e-6
-1.601, 7.737e-6
-1.600, 7.589e-6
-1.599, 7.461e-6
-1.598, 7.333e-6
-1.597, 7.151e-6
-1.596, 7.062e-6
-1.595, 6.957e-6
-1.594, 6.820e-6
-1.593, 6.655e-6
-1.592, 6.569e-6
-1.591, 6.425e-6
-1.590, 6.341e-6
-1.589, 6.213e-6
-1.588, 6.117e-6
-1.587, 5.985e-6
-1.586, 5.849e-6
-1.585, 5.791e-6
-1.584, 5.662e-6
-1.583, 5.568e-6
-1.582, 5.446e-6
-1.581, 5.316e-6
-1.580, 5.267e-6
-1.579, 5.183e-6
-1.578, 5.060e-6
-1.577, 4.956e-6
-1.576, 4.873e-6
-1.575, 4.846e-6
-1.574, 4.725e-6
-1.573, 4.615e-6
-1.572, 4.530e-6
-1.571, 4.459e-6
-1.570, 4.416e-6
-1.569, 4.324e-6
-1.568, 4.249e-6
-1.567, 4.150e-6
-1.566, 4.062e-6
-1.565, 4.048e-6
-1.564, 4.005e-6
-1.563, 3.858e-6
-1.562, 3.785e-6
-1.561, 3.709e-6
-1.560, 3.685e-6
-1.559, 3.657e-6
-1.558, 3.543e-6
-1.557, 3.465e-6
-1.556, 3.468e-6
-1.555, 3.364e-6
-1.554, 3.332e-6
-1.553, 3.223e-6
-1.552, 3.200e-6
-1.551, 3.151e-6
-1.550, 3.093e-6
-1.549, 3.035e-6
-1.548, 3.002e-6
-1.547, 2.905e-6
-1.546, 2.891e-6
-1.545, 2.824e-6
-1.544, 2.830e-6
-1.543, 2.723e-6
-1.542, 2.670e-6
-1.541, 2.636e-6
-1.540, 2.621e-6
-1.539, 2.575e-6
-1.538, 2.526e-6
-1.537, 2.435e-6
-1.536, 2.434e-6
-1.535, 2.401e-6
-1.534, 2.351e-6
-1.533, 2.318e-6
-1.532, 2.231e-6
-1.531, 2.230e-6
-1.530, 2.224e-6
-1.529, 2.140e-6
-1.528, 2.110e-6
-1.527, 2.044e-6
-1.526, 2.040e-6
-1.525, 2.015e-6
-1.524, 1.945e-6
-1.523, 1.964e-6
-1.522, 1.870e-6
-1.521, 1.858e-6
-1.520, 1.845e-6
-1.519, 1.836e-6
-1.518, 1.785e-6
-1.517, 1.723e-6
-1.516, 1.694e-6
-1.515, 1.704e-6
-1.514, 1.703e-6
-1.513, 1.631e-6
-1.512, 1.574e-6
-1.511, 1.554e-6
-1.510, 1.572e-6
-1.509, 1.568e-6
-1.508, 1.485e-6
-1.507, 1.451e-6
-1.506, 1.406e-6
-1.505, 1.434e-6
-1.504, 1.393e-6
-1.503, 1.380e-6
-1.502, 1.321e-6
-1.501, 1.307e-6
-1.500, 1.313e-6
-1.499, 1.305e-6
-1.498, 1.245e-6
-1.497, 1.211e-6
-1.496, 1.148e-6
-1.495, 1.176e-6
-1.494, 1.211e-6
-1.493, 1.155e-6
-1.492, 1.089e-6
-1.491, 1.094e-6
-1.490, 1.115e-6
-1.489, 1.099e-6
-1.488, 1.006e-6
-1.487, 1.019e-6
-1.486, 9.943e-7
-1.485, 9.805e-7
-1.484, 9.992e-7
-1.483, 9.696e-7
-1.482, 9.420e-7
-1.481, 9.321e-7
-1.480, 9.282e-7
-1.479, 9.252e-7
-1.478, 8.927e-7
-1.477, 8.483e-7
-1.476, 8.276e-7
-1.475, 8.039e-7
-1.474, 8.276e-7
-1.473, 8.354e-7
-1.472, 7.901e-7
-1.471, 7.881e-7
-1.470, 7.378e-7
-1.469, 7.615e-7
-1.468, 7.388e-7
-1.467, 6.944e-7
-1.466, 6.766e-7
-1.465, 7.151e-7
-1.464, 7.230e-7
-1.463, 7.230e-7
-1.462, 6.085e-7
-1.461, 6.273e-7
-1.460, 6.608e-7
-1.459, 6.381e-7
-1.458, 6.075e-7
-1.457, 5.710e-7
-1.456, 5.740e-7
-1.455, 6.214e-7
-1.454, 5.977e-7
-1.453, 5.839e-7
-1.452, 5.326e-7
-1.451, 5.178e-7
-1.450, 5.513e-7
-1.449, 5.040e-7
-1.448, 4.970e-7
-1.447, 5.148e-7
-1.446, 5.059e-7
-1.445, 5.148e-7
-1.444, 4.803e-7
-1.443, 4.803e-7
-1.442, 4.655e-7
-1.441, 4.280e-7
-1.440, 4.339e-7
-1.439, 4.329e-7
-1.438, 4.132e-7
-1.437, 4.201e-7
-1.436, 3.856e-7
-1.435, 4.240e-7
-1.434, 4.132e-7
-1.433, 3.875e-7
-1.432, 3.826e-7
-1.431, 3.165e-7
-1.430, 3.392e-7
-1.429, 3.796e-7
-1.428, 3.303e-7
-1.427, 3.293e-7
-1.426, 3.027e-7
-1.425, 3.214e-7
-1.424, 3.441e-7
-1.423, 3.362e-7
-1.422, 2.889e-7
-1.421, 2.563e-7
-1.420, 2.820e-7
-1.419, 3.155e-7
-1.418, 2.701e-7
-1.417, 2.524e-7
-1.416, 2.534e-7
-1.415, 2.573e-7
-1.414, 2.751e-7
-1.413, 2.366e-7
-1.412, 2.178e-7
-1.411, 2.129e-7
-1.410, 2.534e-7
-1.409, 2.494e-7
-1.408, 2.021e-7
-1.407, 2.011e-7
-1.406, 2.099e-7
-1.405, 2.178e-7
-1.404, 2.129e-7
-1.403, 1.873e-7
-1.402, 1.754e-7
-1.401, 1.646e-7
-1.400, 1.843e-7
-1.399, 1.794e-7
-1.398, 1.586e-7
-1.397, 1.419e-7
-1.396, 1.547e-7
-1.395, 1.626e-7
-1.394, 1.419e-7
-1.393, 1.508e-7
-1.392, 1.064e-7
-1.391, 1.133e-7
-1.390, 1.468e-7
-1.389, 1.369e-7
-1.388, 1.241e-7
-1.387, 1.241e-7
-1.386, 1.133e-7
-1.385, 1.340e-7
-1.384, 1.142e-7
-1.383, 8.169e-8
-1.382, 7.478e-8
-1.381, 3.631e-8
-1.380, 8.662e-8
-1.379, 7.478e-8
-1.378, 8.268e-8
-1.377, 6.590e-8
-1.376, 3.137e-8
-1.375, 7.380e-8
-1.374, 6.985e-8
-1.373, 4.617e-8
-1.372, 4.321e-8
-1.371, 2.545e-8
-1.370, 5.308e-8
-1.369, 8.662e-8
-1.368, 2.249e-8
-1.367, 3.039e-8
-1.366, 1.164e-8
-1.365, 2.841e-8
-1.364, 6.196e-8
-1.363, 7.893e-10
-1.362, 4.736e-9
-1.361, -1.302e-8
-1.360, 1.559e-8
-1.359, 4.420e-8
-1.358, -1.697e-8
-1.357, -2.092e-8
-1.356, -1.105e-8
-1.355, 1.362e-8
-1.354, 5.722e-9
-1.353, -2.980e-8
-1.352, -4.558e-8
-1.351, -1.796e-8
-1.350, 1.855e-8
-1.349, -6.117e-9
-1.348, -1.697e-8
-1.347, -4.657e-8
-1.346, -3.275e-8
-1.345, -4.854e-8
-1.344, -1.302e-8
-1.343, -6.334e-8
-1.342, -8.406e-8
-1.341, -6.433e-8
-1.340, -4.854e-8
-1.339, -4.163e-8
-1.338, -7.025e-8
-1.337, -9.195e-8
-1.336, -7.025e-8
-1.335, -6.729e-8
-1.334, -8.504e-8
-1.333, -9.787e-8
-1.332, -1.146e-7
-1.331, -8.702e-8
-1.330, -9.590e-8
-1.329, -9.688e-8
-1.328, -1.008e-7
-1.327, -1.423e-7
-1.326, -1.166e-7
-1.325, -1.186e-7
-1.324, -1.038e-7
-1.323, -1.058e-7
-1.322, -1.344e-7
-1.321, -1.511e-7
-1.320, -9.886e-8
-1.319, -1.373e-7
-1.318, -1.285e-7
-1.317, -1.827e-7
-1.316, -1.778e-7
-1.315, -1.215e-7
-1.314, -1.206e-7
-1.313, -1.383e-7
-1.312, -1.541e-7
-1.311, -1.906e-7
-1.310, -1.373e-7
-1.309, -1.590e-7
-1.308, -1.373e-7
-1.307, -1.955e-7
-1.306, -2.133e-7
-1.305, -1.847e-7
-1.304, -1.640e-7
-1.303, -1.867e-7
-1.302, -2.034e-7
-1.301, -2.320e-7
-1.300, -1.867e-7
-1.299, -1.926e-7
-1.298, -2.084e-7
-1.297, -2.340e-7
-1.296, -2.695e-7
-1.295, -2.340e-7
-1.294, -1.877e-7
-1.293, -2.153e-7
-1.292, -2.498e-7
-1.291, -3.001e-7
-1.290, -2.360e-7
-1.289, -2.163e-7
-1.288, -2.607e-7
-1.287, -2.912e-7
-1.286, -2.952e-7
-1.285, -2.912e-7
-1.284, -2.163e-7
-1.283, -2.715e-7
-1.282, -2.932e-7
-1.281, -3.307e-7
-1.280, -2.922e-7
-1.279, -2.577e-7
-1.278, -3.199e-7
-1.277, -3.179e-7
-1.276, -3.475e-7
-1.275, -3.327e-7
-1.274, -2.764e-7
-1.273, -3.080e-7
-1.272, -3.573e-7
-1.271, -3.465e-7
-1.270, -3.386e-7
-1.269, -3.337e-7
-1.268, -3.583e-7
-1.267, -3.475e-7
-1.266, -3.485e-7
-1.265, -3.455e-7
-1.264, -3.139e-7
-1.263, -3.376e-7
-1.262, -3.820e-7
-1.261, -3.672e-7
-1.260, -3.741e-7
-1.259, -3.544e-7
-1.258, -3.909e-7
-1.257, -3.919e-7
-1.256, -3.781e-7
-1.255, -4.037e-7
-1.254, -3.938e-7
-1.253, -3.790e-7
-1.252, -4.402e-7
-1.251, -3.998e-7
-1.250, -4.008e-7
-1.249, -4.116e-7
-1.248, -4.106e-7
-1.247, -4.452e-7
-1.246, -4.057e-7
-1.245, -4.027e-7
-1.244, -4.205e-7
-1.243, -4.333e-7
-1.242, -4.412e-7
-1.241, -4.422e-7
-1.240, -4.343e-7
-1.239, -4.461e-7
-1.238, -4.609e-7
-1.237, -4.580e-7
-1.236, -4.609e-7
-1.235, -4.530e-7
-1.234, -4.580e-7
-1.233, -4.481e-7
-1.232, -4.876e-7
-1.231, -4.935e-7
-1.230, -4.718e-7
-1.229, -4.807e-7
-1.228, -4.787e-7
-1.227, -5.093e-7
-1.226, -4.945e-7
-1.225, -5.063e-7
-1.224, -4.925e-7
-1.223, -5.379e-7
-1.222, -5.132e-7
-1.221, -5.399e-7
-1.220, -4.905e-7
-1.219, -5.103e-7
-1.218, -5.201e-7
-1.217, -5.024e-7
-1.216, -5.300e-7
-1.215, -5.132e-7
-1.214, -5.182e-7
-1.213, -5.418e-7
-1.212, -5.399e-7
-1.211, -5.349e-7
-1.210, -5.320e-7
-1.209, -5.122e-7
-1.208, -5.428e-7
-1.207, -5.132e-7
-1.206, -5.428e-7
-1.205, -5.399e-7
-1.204, -5.211e-7
-1.203, -5.852e-7
-1.202, -5.300e-7
-1.201, -5.606e-7
-1.200, -5.655e-7
-1.199, -5.191e-7
-1.198, -5.685e-7
-1.197, -5.616e-7
-1.196, -5.783e-7
-1.195, -5.754e-7
-1.194, -5.448e-7
-1.193, -5.744e-7
-1.192, -5.912e-7
-1.191, -5.389e-7
-1.190, -5.527e-7
-1.189, -5.448e-7
-1.188, -5.882e-7
-1.187, -5.991e-7
-1.186, -5.843e-7
-1.185, -5.606e-7
-1.184, -5.833e-7
-1.183, -5.872e-7
-1.182, -6.148e-7
-1.181, -5.774e-7
-1.180, -5.704e-7
-1.179, -5.823e-7
-1.178, -5.833e-7
-1.177, -6.494e-7
-1.176, -6.444e-7
-1.175, -6.010e-7
-1.174, -5.951e-7
-1.173, -5.981e-7
-1.172, -6.277e-7
-1.171, -6.129e-7
-1.170, -5.961e-7
-1.169, -5.931e-7
-1.168, -6.218e-7
-1.167, -6.622e-7
-1.166, -6.287e-7
-1.165, -5.951e-7
-1.164, -6.188e-7
-1.163, -6.050e-7
-1.162, -6.415e-7
-1.161, -6.523e-7
-1.160, -5.902e-7
-1.159, -5.991e-7
-1.158, -6.375e-7
-1.157, -6.652e-7
-1.156, -6.701e-7
-1.155, -6.306e-7
-1.154, -6.139e-7
-1.153, -6.405e-7
-1.152, -6.770e-7
-1.151, -6.711e-7
-1.150, -6.070e-7
-1.149, -6.060e-7
-1.148, -6.435e-7
-1.147, -6.908e-7
-1.146, -6.879e-7
-1.145, -6.671e-7
-1.144, -6.198e-7
-1.143, -6.356e-7
-1.142, -6.661e-7
-1.141, -6.987e-7
-1.140, -6.543e-7
-1.139, -6.435e-7
-1.138, -6.612e-7
-1.137, -6.869e-7
-1.136, -6.997e-7
-1.135, -6.592e-7
-1.134, -6.592e-7
-1.133, -6.592e-7
-1.132, -6.918e-7
-1.131, -6.987e-7
-1.130, -6.829e-7
-1.129, -6.642e-7
-1.128, -6.869e-7
-1.127, -6.938e-7
-1.126, -7.175e-7
-1.125, -7.076e-7
-1.124, -6.444e-7
-1.123, -6.869e-7
-1.122, -6.948e-7
-1.121, -6.869e-7
-1.120, -7.096e-7
-1.119, -6.829e-7
-1.118, -6.928e-7
-1.117, -7.332e-7
-1.116, -7.066e-7
-1.115, -7.214e-7
-1.114, -6.681e-7
-1.113, -7.362e-7
-1.112, -7.411e-7
-1.111, -7.214e-7
-1.110, -7.490e-7
-1.109, -6.918e-7
-1.108, -7.096e-7
-1.107, -7.609e-7
-1.106, -7.283e-7
-1.105, -7.066e-7
-1.104, -6.908e-7
-1.103, -7.145e-7
-1.102, -7.451e-7
-1.101, -7.530e-7
-1.100, -7.540e-7
-1.099, -7.342e-7
-1.098, -7.273e-7
-1.097, -7.776e-7
-1.096, -7.747e-7
-1.095, -7.332e-7
-1.094, -7.263e-7
-1.093, -7.352e-7
-1.092, -7.658e-7
-1.091, -7.628e-7
-1.090, -7.549e-7
-1.089, -7.470e-7
-1.088, -7.500e-7
-1.087, -7.826e-7
-1.086, -7.905e-7
-1.085, -7.628e-7
-1.084, -7.796e-7
-1.083, -7.638e-7
-1.082, -7.796e-7
-1.081, -8.141e-7
-1.080, -7.766e-7
-1.079, -7.914e-7
-1.078, -7.875e-7
-1.077, -8.053e-7
-1.076, -8.053e-7
-1.075, -7.944e-7
-1.074, -7.836e-7
-1.073, -7.964e-7
-1.072, -8.260e-7
-1.071, -8.220e-7
-1.070, -8.122e-7
-1.069, -8.092e-7
-1.068, -8.191e-7
-1.067, -8.349e-7
-1.066, -8.250e-7
-1.065, -7.974e-7
-1.064, -8.043e-7
-1.063, -8.270e-7
-1.062, -8.714e-7
-1.061, -8.645e-7
-1.060, -8.210e-7
-1.059, -8.260e-7
-1.058, -8.398e-7
-1.057, -8.497e-7
-1.056, -8.566e-7
-1.055, -8.526e-7
-1.054, -8.447e-7
-1.053, -8.418e-7
-1.052, -8.694e-7
-1.051, -8.783e-7
-1.050, -8.605e-7
-1.049, -8.398e-7
-1.048, -9.000e-7
-1.047, -8.595e-7
-1.046, -8.793e-7
-1.045, -8.950e-7
-1.044, -8.684e-7
-1.043, -9.049e-7
-1.042, -9.079e-7
-1.041, -8.990e-7
-1.040, -8.931e-7
-1.039, -8.595e-7
-1.038, -9.167e-7
-1.037, -9.079e-7
-1.036, -9.108e-7
-1.035, -9.049e-7
-1.034, -8.398e-7
-1.033, -8.852e-7
-1.032, -9.325e-7
-1.031, -8.990e-7
-1.030, -9.355e-7
-1.029, -8.773e-7
-1.028, -9.167e-7
-1.027, -9.345e-7
-1.026, -9.365e-7
-1.025, -9.454e-7
-1.024, -9.286e-7
-1.023, -9.246e-7
-1.022, -9.552e-7
-1.021, -9.602e-7
-1.020, -9.503e-7
-1.019, -9.227e-7
-1.018, -9.493e-7
-1.017, -9.779e-7
-1.016, -9.503e-7
-1.015, -9.621e-7
-1.014, -9.592e-7
-1.013, -9.611e-7
-1.012, -9.740e-7
-1.011, -9.779e-7
-1.010, -9.621e-7
-1.009, -9.661e-7
-1.008, -9.562e-7
-1.007, -1.025e-6
-1.006, -9.907e-7
-1.005, -9.907e-7
-1.004, -9.720e-7
-1.003, -9.976e-7
-1.002, -1.036e-6
-1.001, -9.996e-7
