Potential V vs RHE, Current mA cm-2
0.013299999999999867,29.525024828183312
0.012299999999999978,27.219045409403304
0.011299999999999866,25.252596702590903
0.010299999999999976,23.51250180375691
0.009299999999999864,21.843142469916167
0.008299999999999974,20.187930249074075
0.007299999999999862,18.362952672248177
0.006299999999999972,16.56626932141958
0.00529999999999986,14.911057100577487
0.0042999999999999705,13.388827741922707
0.0032999999999998586,12.122661128543498
0.0022999999999999687,10.857909226464155
0.0012999999999998568,9.375291784205599
0.00029999999999996696,7.848818291651225
-0.000700000000000145,6.278488748801033
-0.0017000000000000348,4.883583407134107
-0.0027000000000001467,3.7051288943465317
-0.0037000000000000366,2.5705304318547717
-0.0047000000000001485,1.4373466806628774
-0.005700000000000038,0.12863969849672777
-0.00670000000000015,-1.3543031273607997
-0.00770000000000004,-2.706342716641815
-0.008700000000000152,-3.884797229429391
-0.009700000000000042,-4.887827541033701
-0.010700000000000154,-5.847001802342197
-0.011700000000000044,-6.93774421453814
-0.012700000000000156,-8.202496116617484
-0.013700000000000045,-9.511104068992642
-0.014700000000000157,-10.731999920776168
-0.015700000000000047,-11.73503023238048
-0.01670000000000016,-12.651763154693022
-0.01770000000000005,-13.567081365705702
-0.01870000000000016,-14.61396772760583
-0.01970000000000005,-15.830619445489761
-0.020700000000000163,-17.018976937376394
-0.021700000000000053,-18.10830463827247
-0.022700000000000164,-19.01371987018609
-0.023700000000000054,-19.805958198110513
-0.024700000000000166,-20.683079204026836
-0.025700000000000056,-21.772406904922917
-0.026700000000000168,-22.904175944814945
-0.027700000000000058,-24.078386323702922
-0.02870000000000017,-25.04039000761115
-0.02970000000000006,-25.81848122253692
-0.03070000000000017,-26.61071955046134
-0.03170000000000006,-27.43125210438306
-0.03270000000000017,-28.53472691827779
-0.03370000000000006,-29.66649595816982
-0.034700000000000175,-30.71338232006995
-0.035700000000000065,-31.533914873991666
-0.03670000000000018,-32.283711862920136
-0.03770000000000007,-33.01936173884996
-0.03870000000000018,-33.98136542275818
-0.03970000000000007,-35.02825178465831
-0.04070000000000018,-36.16002082455034
-0.04170000000000007,-37.122024508458566
-0.04270000000000018,-37.90011572338433
-0.04370000000000007,-38.607471373316855
-0.044700000000000184,-39.34312124924667
-0.045700000000000074,-40.34756627215084
-0.046700000000000186,-41.43689397304693
-0.047700000000000076,-42.4413389959511
-0.04870000000000019,-43.36090134086337
-0.04970000000000008,-44.054109877797245
-0.05070000000000019,-44.74731841473111
-0.05170000000000008,-45.581998081651484
-0.05270000000000019,-46.544001765559706
-0.05370000000000008,-47.633329466455784
-0.05470000000000019,-48.63777448935996
-0.05570000000000008,-49.458307043281685
-0.056700000000000195,-50.12322135421825
-0.057700000000000085,-50.81642989115212
-0.058700000000000196,-51.69355089706845
-0.059700000000000086,-52.74043725896857
-0.0607000000000002,-53.74488228187274
-0.06170000000000009,-54.73518019177827
-0.0627000000000002,-55.527418519702685
-0.06370000000000009,-56.1781857176406
-0.0647000000000002,-56.97042404556503
-0.06570000000000009,-57.93242772947325
-0.0667000000000002,-58.97931409137338
-0.0677000000000001,-60.06864179226946
-0.0687000000000002,-60.889174346191176
-0.0697000000000001,-61.63897133511965
-0.07070000000000021,-62.28973853305756
-0.0717000000000001,-63.11027108697928
-0.07270000000000021,-64.0722747708875
-0.0737000000000001,-65.16160247178358
-0.07470000000000021,-66.12360615569182
-0.0757000000000001,-66.9582858226122
-0.07670000000000021,-67.65149435954605
-0.0777000000000001,-68.34470289647993
-0.07870000000000021,-69.26426524139221
-0.0797000000000001,-70.26871026429637
-0.08070000000000022,-71.4004793041884
-0.0817000000000001,-72.36248298809663
-0.08270000000000022,-73.23960399401295
-0.08370000000000011,-73.89037119195086
-0.08470000000000022,-74.62602106788069
-0.08570000000000011,-75.5880247517889
-0.08670000000000022,-76.67735245268499
-0.08770000000000011,-77.80912149257702
-0.08870000000000022,-78.77112517648524
-0.08970000000000011,-79.47848082641775
-0.09070000000000022,-80.12924802435568
-0.09170000000000011,-80.90733923928146
-0.09270000000000023,-81.95422560118158
-0.09370000000000012,-83.08599464107361
-0.09470000000000023,-84.13288100297372
-0.09570000000000012,-85.01000200889004
-0.09670000000000023,-85.70321054582392
-0.09770000000000012,-86.45300753475239
-0.09870000000000023,-87.33012854066871
-0.09970000000000012,-88.37701490256885
-0.10070000000000023,-89.55122528145681
-0.10170000000000012,-90.51322896536506
-0.10270000000000024,-91.33376151928677
-0.10370000000000013,-91.98452871722468
-0.10470000000000024,-92.7767670451491
-0.10570000000000013,-93.73877072905732
-0.10670000000000024,-94.8280984299534
-0.10770000000000013,-95.91742613084948
-0.10870000000000024,-96.83698847576176
-0.10970000000000013,-97.61507969068752
-0.11070000000000024,-98.26584688862545
-0.11170000000000013,-99.10052655554581
-0.11270000000000002,-100.14741291744595
-0.11370000000000013,-101.27918195733798
-0.11470000000000002,-102.3260683192381
-0.11570000000000014,-103.20318932515443
-0.11670000000000003,-103.89639786208829
-0.11770000000000014,-104.64619485101677
-0.11870000000000003,-105.5516100829304
-0.11970000000000014,-106.59849644483052
-0.12070000000000003,-107.73026548472255
-0.12170000000000014,-108.69226916863077
-0.12270000000000003,-109.4845074965552
-0.12370000000000014,-110.17771603348905
-0.12470000000000003,-110.96995436141347
-0.12570000000000014,-111.96025227131899
-0.12670000000000003,-113.10616842420968
-0.12770000000000015,-114.19549612510575
-0.12870000000000004,-115.19994114800993
-0.12970000000000015,-116.02047370193165
-0.13070000000000004,-116.77027069086012
-0.13170000000000015,-117.59080324478184
-0.13270000000000004,-118.63768960668197
-0.13370000000000015,-119.81189998556997
-0.13470000000000004,-120.95781613846064
-0.13570000000000015,-121.86323137037427
-0.13670000000000004,-122.65546969829869
-0.13770000000000016,-123.4760022522204
-0.13870000000000005,-124.43800593612862
-0.13970000000000016,-125.56977497602065
-0.14070000000000005,-126.6732497899154
-0.14170000000000016,-127.66354769982091
-0.14270000000000005,-128.4982273667413
-0.14370000000000016,-129.19143590367514
-0.14470000000000005,-129.98367423159957
-0.14570000000000016,-130.98811925450374
-0.14670000000000005,-132.16232963339172
-0.14770000000000016,-133.3365400122797
-0.14870000000000005,-134.29854369618792
-0.14970000000000017,-135.1332233631083
-0.15070000000000006,-135.91131457803408
-0.15170000000000017,-136.83087692294635
-0.15270000000000006,-137.83532194585052
-0.15370000000000017,-139.0095323247385
-0.15470000000000006,-140.0988600256346
-0.15570000000000017,-141.06086370954282
-0.15670000000000006,-141.89554337646317
-0.15770000000000017,-142.7443701563822
-0.15870000000000006,-143.73466806628772
-0.15970000000000018,-144.86643710617977
-0.16070000000000007,-145.9982061460718
-0.16170000000000018,-147.1299751859638
-0.16270000000000007,-147.97880196588284
-0.16370000000000018,-148.68615761581535
-0.16470000000000007,-149.6764555257209
-0.16570000000000018,-150.66675343562642
-0.16670000000000007,-151.7985224755184
-0.16770000000000018,-152.93029151541046
-0.16870000000000007,-153.920589425316
-0.16970000000000018,-154.6279450752485
-0.17070000000000007,-155.47677185516753
-0.17170000000000019,-156.46706976507306
-0.17270000000000008,-157.59883880496508
-0.1737000000000002,-158.73060784485713
-0.17470000000000008,-159.86237688474912
-0.1757000000000002,-160.8526747946547
-0.17670000000000008,-161.5600304445872
-0.1777000000000002,-162.40885722450622
-0.17870000000000008,-163.54062626439824
-0.1797000000000002,-164.67239530429026
-0.18070000000000008,-165.8041643441823
-0.1817000000000002,-166.93593338407433
-0.18270000000000008,-167.78476016399335
-0.1837000000000002,-168.63358694391238
-0.1847000000000001,-169.48241372383137
-0.1857000000000002,-170.61418276372342
-0.1867000000000001,-171.74595180361547
-0.1877000000000002,-173.01919197349397
-0.1887000000000001,-174.0094898833995
-0.1897000000000002,-174.85831666331853
-0.1907000000000001,-175.84861457322407
-0.1917000000000001,-176.6974413531431
-0.19269999999999998,-177.9706815230216
-0.1937000000000001,-179.24392169290016
-0.19469999999999998,-180.37569073279218
-0.1957000000000001,-181.36598864269772
-0.19669999999999999,-182.07334429263022
-0.1977000000000001,-182.92217107254925
-0.1987,-183.91246898245475
-0.1997000000000001,-185.0442380223468
-0.2007,-186.31747819222534
-0.2017000000000001,-187.44924723211736
-0.2027,-188.4395451420229
-0.2037000000000001,-189.2883719219419
-0.2047,-190.27866983184742
-0.2057000000000001,-191.551910001726
-0.2067,-192.82515017160452
-0.2077000000000001,-193.9569192114965
-0.2087,-194.80574599141553
-0.2097000000000001,-195.51310164134807
-0.2107,-196.2204572912806
-0.2117000000000001,-196.92781294121312
-0.2127,-197.91811085111863
-0.2137000000000001,-199.04987989101065
-0.2147,-200.3231200608892
-0.2157000000000001,-201.31341797079472
-0.2167,-202.30371588070025
-0.21770000000000012,-203.15254266061928
-0.2187,-204.2843117005113
-0.21970000000000012,-205.41608074040332
-0.2207,-206.40637865030885
-0.22170000000000012,-207.3966765602144
-0.2227,-208.1040322101469
-0.22370000000000012,-208.6699167300929
-0.2247,-209.37727238002543
-0.22570000000000012,-210.22609915994445
-0.2267,-211.499339329823
-0.22770000000000012,-212.631108369715
-0.22870000000000001,-213.47993514963403
-0.22970000000000013,-214.18729079956654
-0.23070000000000002,-214.75317531951256
-0.23170000000000013,-215.6020020994316
-0.23270000000000002,-216.73377113932364
-0.23370000000000013,-217.86554017921566
-0.23470000000000002,-219.13878034909416
-0.23570000000000013,-220.1290782589997
-0.23670000000000002,-221.11937616890526
-0.2376999999999999,-221.82673181883774
-0.23870000000000002,-222.9585008587298
-0.2396999999999999,-224.2317410286083
-0.24070000000000003,-225.64645232847332
-0.24169999999999991,-226.77822136836537
-0.24270000000000003,-227.9099904082574
-0.24369999999999992,-228.75881718817644
-0.24470000000000003,-229.60764396809546
-0.24569999999999992,-230.880884137974
-0.24670000000000003,-232.15412430785253
-0.24769999999999992,-233.56883560771757
-0.24870000000000003,-234.7006046476096
-0.24969999999999992,-235.54943142752862
-0.25070000000000003,-236.3982582074476
-0.2516999999999999,-237.53002724733966
-0.25270000000000004,-238.66179628723168
-0.2536999999999999,-240.0765075870967
-0.25470000000000004,-241.20827662698875
-0.2556999999999999,-242.05710340690777
-0.25670000000000004,-242.90593018682682
-0.25769999999999993,-243.6132858367593
-0.25870000000000004,-244.8865260066378
-0.25969999999999993,-245.87682391654337
-0.26070000000000004,-247.1500640864219
-0.26169999999999993,-248.42330425630044
-0.26270000000000004,-249.41360216620598
-0.26369999999999993,-250.1209578161385
-0.26470000000000005,-250.828313466071
-0.26569999999999994,-251.96008250596302
-0.26670000000000005,-253.37479380582806
-0.26769999999999994,-254.64803397570657
-0.26870000000000005,-255.92127414558513
-0.26969999999999994,-257.0530431854772
-0.27070000000000005,-258.0433410953827
-0.27169999999999994,-259.0336390052882
-0.27270000000000005,-260.16540804518024
-0.27369999999999994,-261.2971770850723
-0.27470000000000006,-262.42894612496434
-0.27569999999999995,-263.27777290488336
-0.27670000000000006,-264.12659968480233
-0.27769999999999995,-264.83395533473487
-0.27870000000000006,-265.6827821146539
-0.27969999999999995,-266.5316088945729
-0.28070000000000006,-267.6633779344649
-0.28169999999999995,-268.79514697435695
-0.28270000000000006,-269.926916014249
-0.28369999999999995,-271.05868505414105
-0.28470000000000006,-272.04898296404656
-0.28569999999999995,-273.3222231339251
-0.28670000000000007,-274.4539921738171
-0.28769999999999996,-275.7272323436957
-0.28870000000000007,-276.8590013835877
-0.28969999999999996,-277.7078281635067
-0.29070000000000007,-278.6981260734122
-0.29169999999999996,-279.5469528533313
-0.29270000000000007,-280.67872189322327
-0.29369999999999996,-281.8104909331153
-0.2947000000000001,-282.8007888430208
-0.29569999999999996,-283.64961562293985
-0.2967000000000001,-284.35697127287233
-0.29769999999999996,-285.2057980527914
-0.2987000000000001,-286.196095962697
-0.29969999999999997,-287.1863938726024
-0.3007000000000001,-288.3181629124945
-0.30169999999999997,-289.3084608224
-0.3027000000000001,-290.157287602319
-0.30369999999999997,-290.86464325225154
-0.3047000000000001,-291.85494116215705
-0.30569999999999997,-292.8452390720626
-0.3067000000000001,-293.8355369819681
-0.3077,-295.10877715184665
-0.3087000000000001,-296.0990750617522
-0.3097,-297.0893729716577
-0.3107000000000001,-297.79672862159026
-0.3117,-298.6455554015092
-0.3127000000000001,-299.7773244414013
-0.3137,-301.0505646112798
-0.3147000000000001,-302.18233365117186
-0.3157,-303.0311604310908
-0.3167000000000001,-303.73851608102336
-0.3177,-304.4458717309559
-0.3187000000000001,-305.43616964086146
-0.3197,-306.56793868075346
-0.3207000000000001,-307.69970772064545
-0.3217,-308.8314767605375
-0.3227000000000001,-309.53883241047004
-0.3237,-310.52913032037554
-0.3247000000000001,-311.3779571002945
-0.3257,-312.50972614018656
-0.3267000000000001,-313.6414951800786
-0.3277,-314.6317930899841
-0.3287000000000001,-315.4806198699032
-0.3297,-316.1879755198357
-0.3307000000000001,-316.7538600397817
-0.3317,-317.60268681970075
-0.3327000000000001,-318.4515135996198
-0.3337,-319.58328263951176
-0.3347000000000001,-320.71505167940376
-0.3357,-321.56387845932284
-0.3367000000000001,-322.2712341092554
-0.3377,-322.97858975918786
-0.3387000000000001,-323.8274165391069
-0.3397,-324.67624331902596
-0.3407000000000001,-325.6665412289314
-0.3417,-326.656839138837
-0.3427000000000001,-327.505665918756
-0.3437,-328.071550438702
-0.3447000000000001,-328.92037721862107
-0.3457,-329.9106751285266
-0.3467000000000001,-331.0424441684186
-0.3477,-332.03274207832413
-0.3487000000000001,-333.02303998822964
-0.3497,-333.87186676814866
-0.3507000000000001,-334.43775128809466
-0.3517,-335.1451069380272
-0.3527000000000001,-335.9939337179462
-0.3537,-336.84276049786524
-0.3547000000000001,-337.9745295377573
-0.3557,-338.8233563176763
-0.35670000000000013,-339.5307119676088
-0.3577,-340.2380676175413
-0.35870000000000013,-341.0868943974603
-0.3597,-341.9357211773794
-0.36070000000000013,-342.92601908728494
-0.3617,-343.7748458672039
-0.3626999999999999,-344.34073038714996
-0.3637,-345.04808603708244
-0.3646999999999999,-345.6139705570285
-0.3657,-346.4627973369475
-0.3666999999999999,-347.45309524685297
-0.3677,-348.301922026772
-0.3686999999999999,-349.0092776767046
-0.36970000000000003,-349.71663332663707
-0.3706999999999999,-350.2825178465831
-0.37170000000000003,-351.1313446265021
-0.3726999999999999,-351.9801714064211
-0.37370000000000003,-352.9704693163266
-0.3746999999999999,-353.96076722623224
-0.37570000000000003,-354.66812287616466
-0.3766999999999999,-355.2340073961107
-0.37770000000000004,-355.7998919160567
-0.3786999999999999,-356.50724756598925
-0.37970000000000004,-357.4975454758948
-0.3806999999999999,-358.3463722558138
-0.38170000000000004,-359.0537279057463
-0.38269999999999993,-359.4781412957058
-0.38370000000000004,-359.7610835556788
-0.38469999999999993,-360.3269680756248
-0.38570000000000004,-360.89285259557084
-0.38669999999999993,-360.0440258156518
-0.38570000000000004,-356.08283417602973
-0.38469999999999993,-352.1216425364076
-0.38370000000000004,-348.301922026772
-0.38269999999999993,-344.48220151713645
-0.38170000000000004,-340.80395213748733
-0.3806999999999999,-337.69158727778427
-0.37970000000000004,-334.43775128809466
-0.3786999999999999,-330.9009730384321
-0.37770000000000004,-327.3641947887695
-0.3766999999999999,-323.5444742791339
-0.37570000000000003,-320.00769602947133
-0.3746999999999999,-316.6123889097952
-0.37370000000000003,-313.5000240500921
-0.3726999999999999,-310.52913032037554
-0.37170000000000003,-307.27529433068594
-0.3706999999999999,-303.87998721100985
-0.36970000000000003,-300.48468009133376
-0.3686999999999999,-297.0893729716577
-0.3677,-294.11847924194115
-0.3666999999999999,-291.4305277721976
-0.3657,-288.45963404248096
-0.3646999999999999,-285.4887403127644
-0.3637,-282.3763754530613
-0.3626999999999999,-279.1225394633717
-0.3617,-276.01017460366864
-0.36070000000000013,-273.03928087395207
-0.3597,-270.20985827422203
-0.35870000000000013,-267.5219068044785
-0.3577,-264.40954194477536
-0.35670000000000013,-261.4386482150588
-0.3557,-258.32628335535566
-0.3547000000000001,-255.49686075562562
-0.3537,-252.80890928588207
-0.3527000000000001,-250.1209578161385
-0.3517,-247.4330063463949
-0.3507000000000001,-244.46211261667833
-0.3497,-241.49121888696175
-0.3487000000000001,-238.5203251572452
-0.3477,-235.83237368750162
-0.3467000000000001,-233.28589334774458
-0.3457,-230.59794187800094
-0.3447000000000001,-228.0514615382439
-0.3437,-225.22203893851383
-0.3427000000000001,-222.25114520879725
-0.3417,-219.5631937390537
-0.3407000000000001,-217.15818452928315
-0.3397,-214.89464644949908
-0.3387000000000001,-212.48963723972852
-0.3377,-209.94315689997146
-0.3367000000000001,-207.3966765602144
-0.3357,-204.8501962204573
-0.3347000000000001,-202.30371588070025
-0.3337,-200.04017780091618
-0.3327000000000001,-197.77663972113214
-0.3317,-195.37163051136156
-0.3307000000000001,-192.683679041618
-0.3297,-189.99572757187443
-0.3287000000000001,-187.44924723211736
-0.3277,-185.0442380223468
-0.3267000000000001,-182.92217107254925
-0.3257,-180.65863299276518
-0.3247000000000001,-178.25362378299462
-0.3237,-175.70714344323756
-0.3227000000000001,-173.302134233467
-0.3217,-170.89712502369645
-0.3207000000000001,-168.77505807389886
-0.3197,-166.65299112410133
-0.3187000000000001,-164.53092417430375
-0.3177,-162.2673860945197
-0.3167000000000001,-159.86237688474912
-0.3157,-157.31589654499206
-0.3147000000000001,-155.19382959519453
-0.3137,-153.07176264539694
-0.3127000000000001,-151.23263795557244
-0.3117,-149.1105710057749
-0.3107000000000001,-146.7055617960043
-0.3097,-144.44202371622026
-0.3087000000000001,-142.17848563643616
-0.3077,-140.0988600256346
-0.3067000000000001,-138.23144110981272
-0.30569999999999997,-136.34987508099226
-0.3047000000000001,-134.21366101819604
-0.30369999999999997,-131.99256427740792
-0.3027000000000001,-129.67243774562928
-0.30169999999999997,-127.62110636082497
-0.3007000000000001,-125.71124610600715
-0.29969999999999997,-123.91456275517855
-0.2987000000000001,-122.0471438393567
-0.29769999999999996,-120.03825379354835
-0.2967000000000001,-117.81715705276027
-0.29569999999999996,-115.72338432896
-0.2947000000000001,-113.71449428315165
-0.29369999999999996,-111.8753695933271
-0.29270000000000007,-110.1352746944931
-0.29169999999999996,-108.3102971176672
-0.29070000000000007,-106.30140707185885
-0.28969999999999996,-104.16519300906265
-0.28870000000000007,-102.1563029632543
-0.28769999999999996,-100.31717827342976
-0.28670000000000007,-98.66196605258766
-0.28569999999999995,-97.00675383174556
-0.28470000000000006,-95.18177625491967
-0.28369999999999995,-93.17288620911131
-0.28270000000000006,-91.12155482430701
-0.28169999999999995,-89.15510611749461
-0.28070000000000006,-87.49989389665252
-0.27969999999999995,-85.88712301480638
-0.27870000000000006,-84.27435213296022
-0.27769999999999995,-82.47766878213164
-0.27670000000000006,-80.56780852731384
-0.27569999999999995,-78.55891848150549
-0.27470000000000006,-76.81882358267148
-0.27369999999999994,-75.19190558782671
-0.27270000000000005,-73.72060583596706
-0.27169999999999994,-72.05124650212633
-0.27070000000000005,-70.22626892530042
-0.26969999999999994,-68.34470289647993
-0.26870000000000005,-66.51972531965401
-0.26769999999999994,-64.90695443780788
-0.26670000000000005,-63.421507572949594
