Jan. 13, 2025   19:54:42
Cyclic Voltammetry
File: c:/users/guazh/data/banditlqround7_x0exp772_r5/2025-01-10-exp836\exp836-2025-01-13t19_46_34-h2koh\exp836_cv_sr_700mvs_efin_-1400mv.bin
Data Source:  Experiment
Instrument Model:  CHI760E
Header: CV ran at 700 mVs
Note: 

Init E (V) = -1
High E (V) = -1
Low E (V) = -1.4
Final E (V) = -1
Init P/N = N
Scan Rate (V/s) = 0.7
Segment = 3
Sample Interval (V) = 0.001
Quiet Time (sec) = 2
Sensitivity (A/V) = 0.01
Comp R (ohm) = 1.6

Results:

Channel 1:
Segment 1:

Segment 2:

Segment 3:

Potential/V, Current/A

-1.000, -1.711e-3
-1.001, -1.563e-3
-1.002, -1.418e-3
-1.003, -1.282e-3
-1.004, -1.147e-3
-1.005, -1.008e-3
-1.006, -8.724e-4
-1.007, -7.367e-4
-1.008, -6.103e-4
-1.009, -4.870e-4
-1.010, -3.729e-4
-1.011, -2.650e-4
-1.012, -1.602e-4
-1.013, -6.151e-5
-1.014, 4.332e-5
-1.015, 1.481e-4
-1.016, 2.499e-4
-1.017, 3.640e-4
-1.018, 4.719e-4
-1.019, 5.798e-4
-1.020, 6.815e-4
-1.021, 7.802e-4
-1.022, 8.758e-4
-1.023, 9.652e-4
-1.024, 1.051e-3
-1.025, 1.138e-3
-1.026, 1.221e-3
-1.027, 1.310e-3
-1.028, 1.403e-3
-1.029, 1.499e-3
-1.030, 1.597e-3
-1.031, 1.690e-3
-1.032, 1.782e-3
-1.033, 1.865e-3
-1.034, 1.946e-3
-1.035, 2.023e-3
-1.036, 2.097e-3
-1.037, 2.174e-3
-1.038, 2.248e-3
-1.039, 2.331e-3
-1.040, 2.417e-3
-1.041, 2.504e-3
-1.042, 2.593e-3
-1.043, 2.679e-3
-1.044, 2.763e-3
-1.045, 2.837e-3
-1.046, 2.911e-3
-1.047, 2.978e-3
-1.048, 3.046e-3
-1.049, 3.117e-3
-1.050, 3.191e-3
-1.051, 3.271e-3
-1.052, 3.351e-3
-1.053, 3.432e-3
-1.054, 3.518e-3
-1.055, 3.598e-3
-1.056, 3.669e-3
-1.057, 3.746e-3
-1.058, 3.808e-3
-1.059, 3.876e-3
-1.060, 3.940e-3
-1.061, 4.008e-3
-1.062, 4.082e-3
-1.063, 4.156e-3
-1.064, 4.236e-3
-1.065, 4.320e-3
-1.066, 4.394e-3
-1.067, 4.474e-3
-1.068, 4.542e-3
-1.069, 4.609e-3
-1.070, 4.674e-3
-1.071, 4.733e-3
-1.072, 4.804e-3
-1.073, 4.868e-3
-1.074, 4.942e-3
-1.075, 5.016e-3
-1.076, 5.100e-3
-1.077, 5.180e-3
-1.078, 5.254e-3
-1.079, 5.328e-3
-1.080, 5.399e-3
-1.081, 5.463e-3
-1.082, 5.528e-3
-1.083, 5.587e-3
-1.084, 5.655e-3
-1.085, 5.725e-3
-1.086, 5.796e-3
-1.087, 5.873e-3
-1.088, 5.951e-3
-1.089, 6.034e-3
-1.090, 6.108e-3
-1.091, 6.182e-3
-1.092, 6.253e-3
-1.093, 6.314e-3
-1.094, 6.379e-3
-1.095, 6.447e-3
-1.096, 6.509e-3
-1.097, 6.583e-3
-1.098, 6.654e-3
-1.099, 6.734e-3
-1.100, 6.814e-3
-1.101, 6.891e-3
-1.102, 6.971e-3
-1.103, 7.039e-3
-1.104, 7.107e-3
-1.105, 7.175e-3
-1.106, 7.236e-3
-1.107, 7.304e-3
-1.108, 7.369e-3
-1.109, 7.443e-3
-1.110, 7.520e-3
-1.111, 7.597e-3
-1.112, 7.683e-3
-1.113, 7.763e-3
-1.114, 7.841e-3
-1.115, 7.914e-3
-1.116, 7.982e-3
-1.117, 8.047e-3
-1.118, 8.112e-3
-1.119, 8.180e-3
-1.120, 8.247e-3
-1.121, 8.321e-3
-1.122, 8.405e-3
-1.123, 8.485e-3
-1.124, 8.571e-3
-1.125, 8.651e-3
-1.126, 8.732e-3
-1.127, 8.806e-3
-1.128, 8.873e-3
-1.129, 8.938e-3
-1.130, 9.006e-3
-1.131, 9.071e-3
-1.132, 9.148e-3
-1.133, 9.225e-3
-1.134, 9.305e-3
-1.135, 9.388e-3
-1.136, 9.471e-3
-1.137, 9.552e-3
-1.138, 9.626e-3
-1.139, 9.697e-3
-1.140, 9.767e-3
-1.141, 9.832e-3
-1.142, 9.900e-3
-1.143, 9.971e-3
-1.144, 1.004e-2
-1.145, 1.013e-2
-1.146, 1.021e-2
-1.147, 1.029e-2
-1.148, 1.037e-2
-1.149, 1.045e-2
-1.150, 1.053e-2
-1.151, 1.060e-2
-1.152, 1.066e-2
-1.153, 1.073e-2
-1.154, 1.080e-2
-1.155, 1.087e-2
-1.156, 1.095e-2
-1.157, 1.103e-2
-1.158, 1.112e-2
-1.159, 1.121e-2
-1.160, 1.129e-2
-1.161, 1.137e-2
-1.162, 1.145e-2
-1.163, 1.152e-2
-1.164, 1.159e-2
-1.165, 1.166e-2
-1.166, 1.173e-2
-1.167, 1.181e-2
-1.168, 1.189e-2
-1.169, 1.198e-2
-1.170, 1.207e-2
-1.171, 1.215e-2
-1.172, 1.223e-2
-1.173, 1.231e-2
-1.174, 1.239e-2
-1.175, 1.246e-2
-1.176, 1.252e-2
-1.177, 1.260e-2
-1.178, 1.267e-2
-1.179, 1.275e-2
-1.180, 1.284e-2
-1.181, 1.292e-2
-1.182, 1.301e-2
-1.183, 1.310e-2
-1.184, 1.319e-2
-1.185, 1.327e-2
-1.186, 1.335e-2
-1.187, 1.343e-2
-1.188, 1.350e-2
-1.189, 1.358e-2
-1.190, 1.366e-2
-1.191, 1.374e-2
-1.192, 1.383e-2
-1.193, 1.392e-2
-1.194, 1.401e-2
-1.195, 1.410e-2
-1.196, 1.418e-2
-1.197, 1.426e-2
-1.198, 1.434e-2
-1.199, 1.441e-2
-1.200, 1.448e-2
-1.201, 1.456e-2
-1.202, 1.464e-2
-1.203, 1.473e-2
-1.204, 1.481e-2
-1.205, 1.490e-2
-1.206, 1.499e-2
-1.207, 1.508e-2
-1.208, 1.516e-2
-1.209, 1.523e-2
-1.210, 1.531e-2
-1.211, 1.538e-2
-1.212, 1.546e-2
-1.213, 1.553e-2
-1.214, 1.562e-2
-1.215, 1.571e-2
-1.216, 1.580e-2
-1.217, 1.590e-2
-1.218, 1.598e-2
-1.219, 1.607e-2
-1.220, 1.615e-2
-1.221, 1.623e-2
-1.222, 1.630e-2
-1.223, 1.637e-2
-1.224, 1.646e-2
-1.225, 1.654e-2
-1.226, 1.663e-2
-1.227, 1.672e-2
-1.228, 1.682e-2
-1.229, 1.692e-2
-1.230, 1.701e-2
-1.231, 1.709e-2
-1.232, 1.718e-2
-1.233, 1.725e-2
-1.234, 1.732e-2
-1.235, 1.740e-2
-1.236, 1.748e-2
-1.237, 1.756e-2
-1.238, 1.764e-2
-1.239, 1.773e-2
-1.240, 1.782e-2
-1.241, 1.790e-2
-1.242, 1.799e-2
-1.243, 1.807e-2
-1.244, 1.815e-2
-1.245, 1.822e-2
-1.246, 1.829e-2
-1.247, 1.836e-2
-1.248, 1.843e-2
-1.249, 1.851e-2
-1.250, 1.859e-2
-1.251, 1.868e-2
-1.252, 1.877e-2
-1.253, 1.885e-2
-1.254, 1.894e-2
-1.255, 1.902e-2
-1.256, 1.910e-2
-1.257, 1.917e-2
-1.258, 1.924e-2
-1.259, 1.932e-2
-1.260, 1.939e-2
-1.261, 1.947e-2
-1.262, 1.956e-2
-1.263, 1.965e-2
-1.264, 1.974e-2
-1.265, 1.983e-2
-1.266, 1.992e-2
-1.267, 2.000e-2
-1.268, 2.008e-2
-1.269, 2.015e-2
-1.270, 2.023e-2
-1.271, 2.030e-2
-1.272, 2.038e-2
-1.273, 2.047e-2
-1.274, 2.056e-2
-1.275, 2.065e-2
-1.276, 2.074e-2
-1.277, 2.083e-2
-1.278, 2.092e-2
-1.279, 2.100e-2
-1.280, 2.108e-2
-1.281, 2.115e-2
-1.282, 2.123e-2
-1.283, 2.130e-2
-1.284, 2.139e-2
-1.285, 2.148e-2
-1.286, 2.157e-2
-1.287, 2.167e-2
-1.288, 2.175e-2
-1.289, 2.184e-2
-1.290, 2.192e-2
-1.291, 2.200e-2
-1.292, 2.208e-2
-1.293, 2.214e-2
-1.294, 2.222e-2
-1.295, 2.230e-2
-1.296, 2.238e-2
-1.297, 2.248e-2
-1.298, 2.257e-2
-1.299, 2.267e-2
-1.300, 2.277e-2
-1.301, 2.285e-2
-1.302, 2.293e-2
-1.303, 2.300e-2
-1.304, 2.307e-2
-1.305, 2.315e-2
-1.306, 2.322e-2
-1.307, 2.330e-2
-1.308, 2.338e-2
-1.309, 2.347e-2
-1.310, 2.357e-2
-1.311, 2.366e-2
-1.312, 2.376e-2
-1.313, 2.385e-2
-1.314, 2.393e-2
-1.315, 2.402e-2
-1.316, 2.410e-2
-1.317, 2.418e-2
-1.318, 2.426e-2
-1.319, 2.435e-2
-1.320, 2.444e-2
-1.321, 2.454e-2
-1.322, 2.462e-2
-1.323, 2.471e-2
-1.324, 2.480e-2
-1.325, 2.488e-2
-1.326, 2.496e-2
-1.327, 2.504e-2
-1.328, 2.511e-2
-1.329, 2.519e-2
-1.330, 2.527e-2
-1.331, 2.535e-2
-1.332, 2.544e-2
-1.333, 2.553e-2
-1.334, 2.562e-2
-1.335, 2.572e-2
-1.336, 2.580e-2
-1.337, 2.589e-2
-1.338, 2.597e-2
-1.339, 2.605e-2
-1.340, 2.613e-2
-1.341, 2.621e-2
-1.342, 2.630e-2
-1.343, 2.639e-2
-1.344, 2.648e-2
-1.345, 2.658e-2
-1.346, 2.667e-2
-1.347, 2.676e-2
-1.348, 2.684e-2
-1.349, 2.692e-2
-1.350, 2.700e-2
-1.351, 2.707e-2
-1.352, 2.714e-2
-1.353, 2.721e-2
-1.354, 2.730e-2
-1.355, 2.740e-2
-1.356, 2.750e-2
-1.357, 2.759e-2
-1.358, 2.768e-2
-1.359, 2.777e-2
-1.360, 2.785e-2
-1.361, 2.793e-2
-1.362, 2.800e-2
-1.363, 2.807e-2
-1.364, 2.815e-2
-1.365, 2.823e-2
-1.366, 2.831e-2
-1.367, 2.840e-2
-1.368, 2.849e-2
-1.369, 2.859e-2
-1.370, 2.868e-2
-1.371, 2.876e-2
-1.372, 2.885e-2
-1.373, 2.892e-2
-1.374, 2.899e-2
-1.375, 2.907e-2
-1.376, 2.915e-2
-1.377, 2.923e-2
-1.378, 2.933e-2
-1.379, 2.943e-2
-1.380, 2.954e-2
-1.381, 2.962e-2
-1.382, 2.971e-2
-1.383, 2.979e-2
-1.384, 2.984e-2
-1.385, 2.989e-2
-1.386, 2.994e-2
-1.387, 3.000e-2
-1.388, 3.007e-2
-1.389, 3.016e-2
-1.390, 3.023e-2
-1.391, 3.029e-2
-1.392, 3.037e-2
-1.393, 3.046e-2
-1.394, 3.053e-2
-1.395, 3.058e-2
-1.396, 3.065e-2
-1.397, 3.073e-2
-1.398, 3.081e-2
-1.399, 3.087e-2
-1.400, 3.081e-2
-1.399, 3.055e-2
-1.398, 3.030e-2
-1.397, 3.006e-2
-1.396, 2.982e-2
-1.395, 2.958e-2
-1.394, 2.934e-2
-1.393, 2.909e-2
-1.392, 2.884e-2
-1.391, 2.860e-2
-1.390, 2.836e-2
-1.389, 2.812e-2
-1.388, 2.790e-2
-1.387, 2.769e-2
-1.386, 2.747e-2
-1.385, 2.725e-2
-1.384, 2.704e-2
-1.383, 2.683e-2
-1.382, 2.661e-2
-1.381, 2.639e-2
-1.380, 2.617e-2
-1.379, 2.596e-2
-1.378, 2.575e-2
-1.377, 2.553e-2
-1.376, 2.534e-2
-1.375, 2.515e-2
-1.374, 2.496e-2
-1.373, 2.477e-2
-1.372, 2.458e-2
-1.371, 2.439e-2
-1.370, 2.419e-2
-1.369, 2.398e-2
-1.368, 2.378e-2
-1.367, 2.358e-2
-1.366, 2.339e-2
-1.365, 2.320e-2
-1.364, 2.302e-2
-1.363, 2.284e-2
-1.362, 2.267e-2
-1.361, 2.249e-2
-1.360, 2.231e-2
-1.359, 2.212e-2
-1.358, 2.193e-2
-1.357, 2.174e-2
-1.356, 2.156e-2
-1.355, 2.137e-2
-1.354, 2.118e-2
-1.353, 2.100e-2
-1.352, 2.083e-2
-1.351, 2.065e-2
-1.350, 2.048e-2
-1.349, 2.031e-2
-1.348, 2.014e-2
-1.347, 1.996e-2
-1.346, 1.978e-2
-1.345, 1.960e-2
-1.344, 1.941e-2
-1.343, 1.923e-2
-1.342, 1.905e-2
-1.341, 1.888e-2
-1.340, 1.871e-2
-1.339, 1.855e-2
-1.338, 1.840e-2
-1.337, 1.823e-2
-1.336, 1.807e-2
-1.335, 1.790e-2
-1.334, 1.773e-2
-1.333, 1.756e-2
-1.332, 1.737e-2
-1.331, 1.720e-2
-1.330, 1.703e-2
-1.329, 1.687e-2
-1.328, 1.671e-2
-1.327, 1.655e-2
-1.326, 1.640e-2
-1.325, 1.625e-2
-1.324, 1.608e-2
-1.323, 1.592e-2
-1.322, 1.574e-2
-1.321, 1.557e-2
-1.320, 1.540e-2
-1.319, 1.523e-2
-1.318, 1.507e-2
-1.317, 1.490e-2
-1.316, 1.475e-2
-1.315, 1.459e-2
-1.314, 1.443e-2
-1.313, 1.427e-2
-1.312, 1.411e-2
-1.311, 1.397e-2
-1.310, 1.382e-2
-1.309, 1.366e-2
-1.308, 1.350e-2
-1.307, 1.333e-2
-1.306, 1.318e-2
-1.305, 1.302e-2
-1.304, 1.287e-2
-1.303, 1.272e-2
-1.302, 1.258e-2
-1.301, 1.243e-2
-1.300, 1.228e-2
-1.299, 1.213e-2
-1.298, 1.197e-2
-1.297, 1.181e-2
-1.296, 1.165e-2
-1.295, 1.149e-2
-1.294, 1.134e-2
-1.293, 1.119e-2
-1.292, 1.105e-2
-1.291, 1.091e-2
-1.290, 1.077e-2
-1.289, 1.062e-2
-1.288, 1.048e-2
-1.287, 1.032e-2
-1.286, 1.017e-2
-1.285, 1.002e-2
-1.284, 9.863e-3
-1.283, 9.715e-3
-1.282, 9.570e-3
-1.281, 9.431e-3
-1.280, 9.293e-3
-1.279, 9.160e-3
-1.278, 9.028e-3
-1.277, 8.883e-3
-1.276, 8.738e-3
-1.275, 8.593e-3
-1.274, 8.442e-3
-1.273, 8.297e-3
-1.272, 8.152e-3
-1.271, 8.016e-3
-1.270, 7.881e-3
-1.269, 7.748e-3
-1.268, 7.622e-3
-1.267, 7.495e-3
-1.266, 7.366e-3
-1.265, 7.230e-3
-1.264, 7.094e-3
-1.263, 6.949e-3
-1.262, 6.805e-3
-1.261, 6.669e-3
-1.260, 6.533e-3
-1.259, 6.404e-3
-1.258, 6.280e-3
-1.257, 6.160e-3
-1.256, 6.043e-3
-1.255, 5.923e-3
-1.254, 5.796e-3
-1.253, 5.670e-3
-1.252, 5.534e-3
-1.251, 5.402e-3
-1.250, 5.266e-3
-1.249, 5.134e-3
-1.248, 5.007e-3
-1.247, 4.887e-3
-1.246, 4.767e-3
-1.245, 4.656e-3
-1.244, 4.538e-3
-1.243, 4.421e-3
-1.242, 4.301e-3
-1.241, 4.175e-3
-1.240, 4.048e-3
-1.239, 3.916e-3
-1.238, 3.792e-3
-1.237, 3.666e-3
-1.236, 3.546e-3
-1.235, 3.432e-3
-1.234, 3.321e-3
-1.233, 3.213e-3
-1.232, 3.099e-3
-1.231, 2.988e-3
-1.230, 2.871e-3
-1.229, 2.744e-3
-1.228, 2.621e-3
-1.227, 2.494e-3
-1.226, 2.374e-3
-1.225, 2.254e-3
-1.224, 2.140e-3
-1.223, 2.035e-3
-1.222, 1.927e-3
-1.221, 1.822e-3
-1.220, 1.714e-3
-1.219, 1.606e-3
-1.218, 1.492e-3
-1.217, 1.372e-3
-1.216, 1.252e-3
-1.215, 1.135e-3
-1.214, 1.018e-3
-1.213, 9.066e-4
-1.212, 7.956e-4
-1.211, 6.939e-4
-1.210, 5.921e-4
-1.209, 4.904e-4
-1.208, 3.917e-4
-1.207, 2.807e-4
-1.206, 1.697e-4
-1.205, 5.565e-5
-1.204, -6.151e-5
-1.203, -1.756e-4
-1.202, -2.897e-4
-1.201, -3.945e-4
-1.200, -4.931e-4
-1.199, -5.949e-4
-1.198, -6.905e-4
-1.197, -7.891e-4
-1.196, -8.909e-4
-1.195, -9.988e-4
-1.194, -1.110e-3
-1.193, -1.221e-3
-1.192, -1.335e-3
-1.191, -1.443e-3
-1.190, -1.554e-3
-1.189, -1.655e-3
-1.188, -1.751e-3
-1.187, -1.847e-3
-1.186, -1.936e-3
-1.185, -2.035e-3
-1.184, -2.133e-3
-1.183, -2.235e-3
-1.182, -2.346e-3
-1.181, -2.454e-3
-1.180, -2.562e-3
-1.179, -2.670e-3
-1.178, -2.772e-3
-1.177, -2.870e-3
-1.176, -2.963e-3
-1.175, -3.055e-3
-1.174, -3.148e-3
-1.173, -3.240e-3
-1.172, -3.342e-3
-1.171, -3.441e-3
-1.170, -3.545e-3
-1.169, -3.650e-3
-1.168, -3.752e-3
-1.167, -3.857e-3
-1.166, -3.952e-3
-1.165, -4.045e-3
-1.164, -4.134e-3
-1.163, -4.221e-3
-1.162, -4.310e-3
-1.161, -4.399e-3
-1.160, -4.495e-3
-1.159, -4.600e-3
-1.158, -4.702e-3
-1.157, -4.806e-3
-1.156, -4.905e-3
-1.155, -5.004e-3
-1.154, -5.096e-3
-1.153, -5.179e-3
-1.152, -5.266e-3
-1.151, -5.352e-3
-1.150, -5.438e-3
-1.149, -5.531e-3
-1.148, -5.623e-3
-1.147, -5.722e-3
-1.146, -5.821e-3
-1.145, -5.922e-3
-1.144, -6.021e-3
-1.143, -6.114e-3
-1.142, -6.203e-3
-1.141, -6.286e-3
-1.140, -6.370e-3
-1.139, -6.456e-3
-1.138, -6.539e-3
-1.137, -6.632e-3
-1.136, -6.724e-3
-1.135, -6.820e-3
-1.134, -6.921e-3
-1.133, -7.014e-3
-1.132, -7.109e-3
-1.131, -7.196e-3
-1.130, -7.282e-3
-1.129, -7.368e-3
-1.128, -7.449e-3
-1.127, -7.532e-3
-1.126, -7.615e-3
-1.125, -7.708e-3
-1.124, -7.800e-3
-1.123, -7.890e-3
-1.122, -7.988e-3
-1.121, -8.084e-3
-1.120, -8.173e-3
-1.119, -8.259e-3
-1.118, -8.340e-3
-1.117, -8.420e-3
-1.116, -8.494e-3
-1.115, -8.574e-3
-1.114, -8.657e-3
-1.113, -8.744e-3
-1.112, -8.833e-3
-1.111, -8.925e-3
-1.110, -9.018e-3
-1.109, -9.107e-3
-1.108, -9.197e-3
-1.107, -9.283e-3
-1.106, -9.363e-3
-1.105, -9.443e-3
-1.104, -9.520e-3
-1.103, -9.601e-3
-1.102, -9.687e-3
-1.101, -9.770e-3
-1.100, -9.860e-3
-1.099, -9.952e-3
-1.098, -1.004e-2
-1.097, -1.014e-2
-1.096, -1.022e-2
-1.095, -1.030e-2
-1.094, -1.039e-2
-1.093, -1.046e-2
-1.092, -1.055e-2
-1.091, -1.063e-2
-1.090, -1.072e-2
-1.089, -1.081e-2
-1.088, -1.090e-2
-1.087, -1.099e-2
-1.086, -1.109e-2
-1.085, -1.118e-2
-1.084, -1.127e-2
-1.083, -1.135e-2
-1.082, -1.142e-2
-1.081, -1.149e-2
-1.080, -1.156e-2
-1.079, -1.164e-2
-1.078, -1.172e-2
-1.077, -1.181e-2
-1.076, -1.190e-2
-1.075, -1.199e-2
-1.074, -1.208e-2
-1.073, -1.216e-2
-1.072, -1.223e-2
-1.071, -1.230e-2
-1.070, -1.237e-2
-1.069, -1.244e-2
-1.068, -1.250e-2
-1.067, -1.258e-2
-1.066, -1.266e-2
-1.065, -1.275e-2
-1.064, -1.283e-2
-1.063, -1.292e-2
-1.062, -1.301e-2
-1.061, -1.309e-2
-1.060, -1.316e-2
-1.059, -1.323e-2
-1.058, -1.330e-2
-1.057, -1.337e-2
-1.056, -1.344e-2
-1.055, -1.353e-2
-1.054, -1.361e-2
-1.053, -1.370e-2
-1.052, -1.378e-2
-1.051, -1.387e-2
-1.050, -1.394e-2
-1.049, -1.402e-2
-1.048, -1.409e-2
-1.047, -1.416e-2
-1.046, -1.422e-2
-1.045, -1.429e-2
-1.044, -1.436e-2
-1.043, -1.444e-2
-1.042, -1.452e-2
-1.041, -1.460e-2
-1.040, -1.469e-2
-1.039, -1.477e-2
-1.038, -1.484e-2
-1.037, -1.492e-2
-1.036, -1.499e-2
-1.035, -1.506e-2
-1.034, -1.513e-2
-1.033, -1.520e-2
-1.032, -1.528e-2
-1.031, -1.536e-2
-1.030, -1.544e-2
-1.029, -1.552e-2
-1.028, -1.560e-2
-1.027, -1.568e-2
-1.026, -1.576e-2
-1.025, -1.583e-2
-1.024, -1.590e-2
-1.023, -1.596e-2
-1.022, -1.604e-2
-1.021, -1.611e-2
-1.020, -1.618e-2
-1.019, -1.627e-2
-1.018, -1.635e-2
-1.017, -1.644e-2
-1.016, -1.652e-2
-1.015, -1.659e-2
-1.014, -1.666e-2
-1.013, -1.673e-2
-1.012, -1.679e-2
-1.011, -1.685e-2
-1.010, -1.692e-2
-1.009, -1.699e-2
-1.008, -1.706e-2
-1.007, -1.714e-2
-1.006, -1.722e-2
-1.005, -1.730e-2
-1.004, -1.738e-2
-1.003, -1.745e-2
-1.002, -1.751e-2
-1.001, -1.758e-2
