Sept. 13, 2024   01:19:26
Cyclic Voltammetry
File: c:/users/guazh/data/20240903_batch_252_500/2024-09-03-exp338\exp338-2024-09-13t00_55_05-arkoh\exp338_cv_sr_200mvs_efin_-2000mv.bin
Data Source:  Experiment
Instrument Model:  CHI760E
Header: CV ran at 200 mVs
Note: 

Init E (V) = -1
High E (V) = -1
Low E (V) = -2
Final E (V) = -1
Init P/N = N
Scan Rate (V/s) = 0.2
Segment = 3
Sample Interval (V) = 0.001
Quiet Time (sec) = 2
Sensitivity (A/V) = 0.01
Comp R (ohm) = 1.8

Results:

Channel 1:
Segment 1:

Segment 2:

Segment 3:

Potential/V, Current/A

-1.000, 6.709e-8
-1.001, 5.012e-7
-1.002, 4.617e-7
-1.003, 8.860e-7
-1.004, 7.084e-7
-1.005, 1.083e-6
-1.006, 7.281e-7
-1.007, 9.748e-7
-1.008, 1.054e-6
-1.009, 8.465e-7
-1.010, 1.073e-6
-1.011, 1.083e-6
-1.012, 1.212e-6
-1.013, 1.172e-6
-1.014, 1.073e-6
-1.015, 1.281e-6
-1.016, 1.073e-6
-1.017, 1.212e-6
-1.018, 1.468e-6
-1.019, 1.152e-6
-1.020, 1.458e-6
-1.021, 1.251e-6
-1.022, 1.281e-6
-1.023, 1.360e-6
-1.024, 1.192e-6
-1.025, 1.488e-6
-1.026, 1.369e-6
-1.027, 1.725e-6
-1.028, 1.458e-6
-1.029, 1.369e-6
-1.030, 1.606e-6
-1.031, 1.527e-6
-1.032, 1.547e-6
-1.033, 1.458e-6
-1.034, 1.488e-6
-1.035, 1.882e-6
-1.036, 1.310e-6
-1.037, 1.636e-6
-1.038, 1.616e-6
-1.039, 1.586e-6
-1.040, 1.863e-6
-1.041, 1.596e-6
-1.042, 1.557e-6
-1.043, 1.705e-6
-1.044, 1.606e-6
-1.045, 1.754e-6
-1.046, 1.626e-6
-1.047, 1.843e-6
-1.048, 1.725e-6
-1.049, 1.646e-6
-1.050, 1.981e-6
-1.051, 1.882e-6
-1.052, 1.665e-6
-1.053, 1.873e-6
-1.054, 1.784e-6
-1.055, 2.149e-6
-1.056, 1.675e-6
-1.057, 2.070e-6
-1.058, 2.011e-6
-1.059, 1.646e-6
-1.060, 2.011e-6
-1.061, 1.813e-6
-1.062, 1.981e-6
-1.063, 2.040e-6
-1.064, 1.981e-6
-1.065, 2.070e-6
-1.066, 1.843e-6
-1.067, 2.021e-6
-1.068, 2.070e-6
-1.069, 1.951e-6
-1.070, 2.317e-6
-1.071, 2.040e-6
-1.072, 2.099e-6
-1.073, 2.030e-6
-1.074, 2.129e-6
-1.075, 2.139e-6
-1.076, 2.080e-6
-1.077, 2.139e-6
-1.078, 2.050e-6
-1.079, 1.951e-6
-1.080, 2.080e-6
-1.081, 2.050e-6
-1.082, 2.159e-6
-1.083, 2.326e-6
-1.084, 2.218e-6
-1.085, 2.267e-6
-1.086, 2.267e-6
-1.087, 2.159e-6
-1.088, 2.435e-6
-1.089, 2.247e-6
-1.090, 2.386e-6
-1.091, 2.287e-6
-1.092, 2.376e-6
-1.093, 2.455e-6
-1.094, 2.326e-6
-1.095, 2.395e-6
-1.096, 2.178e-6
-1.097, 2.297e-6
-1.098, 2.435e-6
-1.099, 2.021e-6
-1.100, 2.445e-6
-1.101, 2.188e-6
-1.102, 2.307e-6
-1.103, 2.356e-6
-1.104, 2.317e-6
-1.105, 2.573e-6
-1.106, 2.455e-6
-1.107, 2.474e-6
-1.108, 2.603e-6
-1.109, 2.228e-6
-1.110, 2.563e-6
-1.111, 2.405e-6
-1.112, 2.445e-6
-1.113, 2.553e-6
-1.114, 2.376e-6
-1.115, 2.741e-6
-1.116, 2.524e-6
-1.117, 2.366e-6
-1.118, 2.543e-6
-1.119, 2.474e-6
-1.120, 2.652e-6
-1.121, 2.494e-6
-1.122, 2.721e-6
-1.123, 2.632e-6
-1.124, 2.494e-6
-1.125, 2.760e-6
-1.126, 2.672e-6
-1.127, 2.662e-6
-1.128, 2.622e-6
-1.129, 2.573e-6
-1.130, 2.731e-6
-1.131, 2.879e-6
-1.132, 2.573e-6
-1.133, 2.830e-6
-1.134, 2.691e-6
-1.135, 2.760e-6
-1.136, 2.682e-6
-1.137, 2.770e-6
-1.138, 2.800e-6
-1.139, 2.563e-6
-1.140, 2.770e-6
-1.141, 2.849e-6
-1.142, 2.691e-6
-1.143, 2.760e-6
-1.144, 2.741e-6
-1.145, 2.741e-6
-1.146, 2.859e-6
-1.147, 2.928e-6
-1.148, 3.017e-6
-1.149, 2.741e-6
-1.150, 2.938e-6
-1.151, 2.899e-6
-1.152, 2.830e-6
-1.153, 2.978e-6
-1.154, 3.027e-6
-1.155, 2.997e-6
-1.156, 2.997e-6
-1.157, 3.066e-6
-1.158, 3.126e-6
-1.159, 3.027e-6
-1.160, 3.086e-6
-1.161, 2.938e-6
-1.162, 2.918e-6
-1.163, 3.047e-6
-1.164, 2.997e-6
-1.165, 3.274e-6
-1.166, 2.968e-6
-1.167, 3.076e-6
-1.168, 3.027e-6
-1.169, 2.849e-6
-1.170, 3.175e-6
-1.171, 3.086e-6
-1.172, 3.135e-6
-1.173, 3.165e-6
-1.174, 3.086e-6
-1.175, 3.066e-6
-1.176, 2.987e-6
-1.177, 3.264e-6
-1.178, 3.422e-6
-1.179, 3.096e-6
-1.180, 3.313e-6
-1.181, 3.116e-6
-1.182, 3.145e-6
-1.183, 3.204e-6
-1.184, 3.165e-6
-1.185, 3.244e-6
-1.186, 3.204e-6
-1.187, 3.214e-6
-1.188, 3.362e-6
-1.189, 3.027e-6
-1.190, 3.372e-6
-1.191, 3.402e-6
-1.192, 3.313e-6
-1.193, 3.362e-6
-1.194, 3.086e-6
-1.195, 3.313e-6
-1.196, 3.214e-6
-1.197, 3.471e-6
-1.198, 3.451e-6
-1.199, 3.214e-6
-1.200, 3.244e-6
-1.201, 3.254e-6
-1.202, 3.175e-6
-1.203, 3.333e-6
-1.204, 3.481e-6
-1.205, 3.412e-6
-1.206, 3.313e-6
-1.207, 3.471e-6
-1.208, 3.422e-6
-1.209, 3.392e-6
-1.210, 3.352e-6
-1.211, 3.362e-6
-1.212, 3.402e-6
-1.213, 3.402e-6
-1.214, 3.333e-6
-1.215, 3.461e-6
-1.216, 3.352e-6
-1.217, 3.382e-6
-1.218, 3.520e-6
-1.219, 3.402e-6
-1.220, 3.589e-6
-1.221, 3.560e-6
-1.222, 3.412e-6
-1.223, 3.520e-6
-1.224, 3.254e-6
-1.225, 3.570e-6
-1.226, 3.491e-6
-1.227, 3.698e-6
-1.228, 3.431e-6
-1.229, 3.599e-6
-1.230, 3.560e-6
-1.231, 3.540e-6
-1.232, 3.678e-6
-1.233, 3.668e-6
-1.234, 3.461e-6
-1.235, 3.698e-6
-1.236, 3.599e-6
-1.237, 3.708e-6
-1.238, 3.836e-6
-1.239, 3.688e-6
-1.240, 3.757e-6
-1.241, 3.599e-6
-1.242, 3.451e-6
-1.243, 3.727e-6
-1.244, 3.668e-6
-1.245, 3.816e-6
-1.246, 3.431e-6
-1.247, 3.579e-6
-1.248, 3.796e-6
-1.249, 3.491e-6
-1.250, 3.747e-6
-1.251, 3.520e-6
-1.252, 3.796e-6
-1.253, 3.639e-6
-1.254, 3.639e-6
-1.255, 3.639e-6
-1.256, 3.609e-6
-1.257, 3.836e-6
-1.258, 3.865e-6
-1.259, 3.560e-6
-1.260, 3.875e-6
-1.261, 3.481e-6
-1.262, 3.658e-6
-1.263, 3.777e-6
-1.264, 3.727e-6
-1.265, 3.767e-6
-1.266, 3.678e-6
-1.267, 3.698e-6
-1.268, 4.063e-6
-1.269, 3.589e-6
-1.270, 3.767e-6
-1.271, 3.698e-6
-1.272, 3.579e-6
-1.273, 3.787e-6
-1.274, 3.717e-6
-1.275, 3.895e-6
-1.276, 3.796e-6
-1.277, 3.698e-6
-1.278, 3.856e-6
-1.279, 3.500e-6
-1.280, 4.033e-6
-1.281, 3.688e-6
-1.282, 3.905e-6
-1.283, 3.944e-6
-1.284, 3.698e-6
-1.285, 3.846e-6
-1.286, 3.816e-6
-1.287, 3.964e-6
-1.288, 3.875e-6
-1.289, 3.777e-6
-1.290, 4.013e-6
-1.291, 3.836e-6
-1.292, 3.856e-6
-1.293, 3.984e-6
-1.294, 3.717e-6
-1.295, 4.033e-6
-1.296, 3.806e-6
-1.297, 3.875e-6
-1.298, 4.053e-6
-1.299, 3.806e-6
-1.300, 3.994e-6
-1.301, 3.767e-6
-1.302, 3.984e-6
-1.303, 3.964e-6
-1.304, 3.974e-6
-1.305, 3.875e-6
-1.306, 3.915e-6
-1.307, 3.935e-6
-1.308, 4.132e-6
-1.309, 3.984e-6
-1.310, 4.033e-6
-1.311, 3.895e-6
-1.312, 3.944e-6
-1.313, 4.053e-6
-1.314, 4.004e-6
-1.315, 4.221e-6
-1.316, 3.994e-6
-1.317, 3.944e-6
-1.318, 4.092e-6
-1.319, 3.974e-6
-1.320, 4.004e-6
-1.321, 4.142e-6
-1.322, 3.954e-6
-1.323, 4.161e-6
-1.324, 4.043e-6
-1.325, 4.112e-6
-1.326, 4.112e-6
-1.327, 4.033e-6
-1.328, 4.309e-6
-1.329, 3.944e-6
-1.330, 4.260e-6
-1.331, 4.053e-6
-1.332, 4.290e-6
-1.333, 4.102e-6
-1.334, 4.142e-6
-1.335, 4.359e-6
-1.336, 3.895e-6
-1.337, 4.270e-6
-1.338, 4.300e-6
-1.339, 4.053e-6
-1.340, 4.290e-6
-1.341, 4.201e-6
-1.342, 4.152e-6
-1.343, 4.290e-6
-1.344, 4.191e-6
-1.345, 4.398e-6
-1.346, 4.122e-6
-1.347, 4.211e-6
-1.348, 4.388e-6
-1.349, 4.112e-6
-1.350, 4.655e-6
-1.351, 4.201e-6
-1.352, 4.309e-6
-1.353, 4.487e-6
-1.354, 4.102e-6
-1.355, 4.448e-6
-1.356, 4.260e-6
-1.357, 4.467e-6
-1.358, 4.408e-6
-1.359, 4.290e-6
-1.360, 4.546e-6
-1.361, 4.369e-6
-1.362, 4.457e-6
-1.363, 4.398e-6
-1.364, 4.240e-6
-1.365, 4.526e-6
-1.366, 4.448e-6
-1.367, 4.467e-6
-1.368, 4.418e-6
-1.369, 4.379e-6
-1.370, 4.576e-6
-1.371, 4.546e-6
-1.372, 4.349e-6
-1.373, 4.645e-6
-1.374, 4.467e-6
-1.375, 4.753e-6
-1.376, 4.605e-6
-1.377, 4.615e-6
-1.378, 4.457e-6
-1.379, 4.448e-6
-1.380, 4.556e-6
-1.381, 4.408e-6
-1.382, 4.596e-6
-1.383, 4.822e-6
-1.384, 4.596e-6
-1.385, 5.040e-6
-1.386, 4.694e-6
-1.387, 4.832e-6
-1.388, 4.832e-6
-1.389, 4.586e-6
-1.390, 4.882e-6
-1.391, 4.882e-6
-1.392, 4.990e-6
-1.393, 5.178e-6
-1.394, 4.822e-6
-1.395, 5.010e-6
-1.396, 4.911e-6
-1.397, 4.921e-6
-1.398, 4.793e-6
-1.399, 4.852e-6
-1.400, 5.197e-6
-1.401, 4.980e-6
-1.402, 5.069e-6
-1.403, 5.247e-6
-1.404, 5.109e-6
-1.405, 5.079e-6
-1.406, 5.178e-6
-1.407, 5.237e-6
-1.408, 5.336e-6
-1.409, 5.257e-6
-1.410, 5.355e-6
-1.411, 5.474e-6
-1.412, 5.385e-6
-1.413, 5.296e-6
-1.414, 5.227e-6
-1.415, 5.355e-6
-1.416, 5.395e-6
-1.417, 5.375e-6
-1.418, 5.612e-6
-1.419, 5.276e-6
-1.420, 5.562e-6
-1.421, 5.513e-6
-1.422, 5.464e-6
-1.423, 5.661e-6
-1.424, 5.553e-6
-1.425, 5.947e-6
-1.426, 5.681e-6
-1.427, 5.849e-6
-1.428, 5.888e-6
-1.429, 5.819e-6
-1.430, 5.967e-6
-1.431, 5.937e-6
-1.432, 5.987e-6
-1.433, 6.125e-6
-1.434, 6.006e-6
-1.435, 6.194e-6
-1.436, 6.312e-6
-1.437, 6.204e-6
-1.438, 6.312e-6
-1.439, 6.145e-6
-1.440, 6.352e-6
-1.441, 6.519e-6
-1.442, 6.559e-6
-1.443, 6.658e-6
-1.444, 6.411e-6
-1.445, 6.776e-6
-1.446, 6.756e-6
-1.447, 6.687e-6
-1.448, 6.825e-6
-1.449, 6.677e-6
-1.450, 7.032e-6
-1.451, 6.954e-6
-1.452, 7.102e-6
-1.453, 7.388e-6
-1.454, 7.062e-6
-1.455, 7.161e-6
-1.456, 7.309e-6
-1.457, 7.269e-6
-1.458, 7.496e-6
-1.459, 7.289e-6
-1.460, 7.486e-6
-1.461, 7.476e-6
-1.462, 7.664e-6
-1.463, 7.644e-6
-1.464, 7.585e-6
-1.465, 7.930e-6
-1.466, 7.891e-6
-1.467, 7.920e-6
-1.468, 8.108e-6
-1.469, 8.147e-6
-1.470, 8.206e-6
-1.471, 8.197e-6
-1.472, 8.522e-6
-1.473, 8.394e-6
-1.474, 8.581e-6
-1.475, 8.641e-6
-1.476, 8.650e-6
-1.477, 8.798e-6
-1.478, 8.808e-6
-1.479, 8.828e-6
-1.480, 9.193e-6
-1.481, 9.085e-6
-1.482, 9.193e-6
-1.483, 9.381e-6
-1.484, 9.292e-6
-1.485, 9.795e-6
-1.486, 9.538e-6
-1.487, 9.716e-6
-1.488, 9.874e-6
-1.489, 9.696e-6
-1.490, 1.022e-5
-1.491, 1.009e-5
-1.492, 1.035e-5
-1.493, 1.035e-5
-1.494, 1.029e-5
-1.495, 1.074e-5
-1.496, 1.067e-5
-1.497, 1.085e-5
-1.498, 1.112e-5
-1.499, 1.100e-5
-1.500, 1.126e-5
-1.501, 1.128e-5
-1.502, 1.144e-5
-1.503, 1.160e-5
-1.504, 1.161e-5
-1.505, 1.177e-5
-1.506, 1.208e-5
-1.507, 1.210e-5
-1.508, 1.222e-5
-1.509, 1.218e-5
-1.510, 1.262e-5
-1.511, 1.276e-5
-1.512, 1.277e-5
-1.513, 1.312e-5
-1.514, 1.316e-5
-1.515, 1.324e-5
-1.516, 1.345e-5
-1.517, 1.360e-5
-1.518, 1.402e-5
-1.519, 1.399e-5
-1.520, 1.419e-5
-1.521, 1.427e-5
-1.522, 1.437e-5
-1.523, 1.480e-5
-1.524, 1.479e-5
-1.525, 1.521e-5
-1.526, 1.515e-5
-1.527, 1.546e-5
-1.528, 1.573e-5
-1.529, 1.546e-5
-1.530, 1.627e-5
-1.531, 1.621e-5
-1.532, 1.621e-5
-1.533, 1.675e-5
-1.534, 1.663e-5
-1.535, 1.699e-5
-1.536, 1.715e-5
-1.537, 1.759e-5
-1.538, 1.765e-5
-1.539, 1.779e-5
-1.540, 1.821e-5
-1.541, 1.851e-5
-1.542, 1.855e-5
-1.543, 1.910e-5
-1.544, 1.907e-5
-1.545, 1.961e-5
-1.546, 1.983e-5
-1.547, 2.007e-5
-1.548, 2.022e-5
-1.549, 2.045e-5
-1.550, 2.088e-5
-1.551, 2.085e-5
-1.552, 2.115e-5
-1.553, 2.166e-5
-1.554, 2.189e-5
-1.555, 2.239e-5
-1.556, 2.268e-5
-1.557, 2.273e-5
-1.558, 2.310e-5
-1.559, 2.327e-5
-1.560, 2.374e-5
-1.561, 2.394e-5
-1.562, 2.432e-5
-1.563, 2.478e-5
-1.564, 2.492e-5
-1.565, 2.556e-5
-1.566, 2.590e-5
-1.567, 2.618e-5
-1.568, 2.642e-5
-1.569, 2.661e-5
-1.570, 2.701e-5
-1.571, 2.745e-5
-1.572, 2.775e-5
-1.573, 2.826e-5
-1.574, 2.841e-5
-1.575, 2.910e-5
-1.576, 2.933e-5
-1.577, 2.981e-5
-1.578, 3.035e-5
-1.579, 3.043e-5
-1.580, 3.080e-5
-1.581, 3.158e-5
-1.582, 3.175e-5
-1.583, 3.242e-5
-1.584, 3.263e-5
-1.585, 3.336e-5
-1.586, 3.363e-5
-1.587, 3.408e-5
-1.588, 3.489e-5
-1.589, 3.502e-5
-1.590, 3.569e-5
-1.591, 3.611e-5
-1.592, 3.637e-5
-1.593, 3.726e-5
-1.594, 3.750e-5
-1.595, 3.822e-5
-1.596, 3.857e-5
-1.597, 3.910e-5
-1.598, 3.987e-5
-1.599, 4.006e-5
-1.600, 4.077e-5
-1.601, 4.131e-5
-1.602, 4.174e-5
-1.603, 4.246e-5
-1.604, 4.285e-5
-1.605, 4.365e-5
-1.606, 4.405e-5
-1.607, 4.492e-5
-1.608, 4.542e-5
-1.609, 4.586e-5
-1.610, 4.651e-5
-1.611, 4.728e-5
-1.612, 4.774e-5
-1.613, 4.863e-5
-1.614, 4.897e-5
-1.615, 4.971e-5
-1.616, 5.044e-5
-1.617, 5.094e-5
-1.618, 5.212e-5
-1.619, 5.233e-5
-1.620, 5.330e-5
-1.621, 5.406e-5
-1.622, 5.441e-5
-1.623, 5.545e-5
-1.624, 5.607e-5
-1.625, 5.736e-5
-1.626, 5.788e-5
-1.627, 5.846e-5
-1.628, 5.954e-5
-1.629, 5.995e-5
-1.630, 6.110e-5
-1.631, 6.165e-5
-1.632, 6.210e-5
-1.633, 6.337e-5
-1.634, 6.397e-5
-1.635, 6.497e-5
-1.636, 6.564e-5
-1.637, 6.681e-5
-1.638, 6.805e-5
-1.639, 6.852e-5
-1.640, 6.973e-5
-1.641, 7.035e-5
-1.642, 7.142e-5
-1.643, 7.230e-5
-1.644, 7.348e-5
-1.645, 7.440e-5
-1.646, 7.517e-5
-1.647, 7.649e-5
-1.648, 7.749e-5
-1.649, 7.819e-5
-1.650, 7.939e-5
-1.651, 8.041e-5
-1.652, 8.145e-5
-1.653, 8.298e-5
-1.654, 8.372e-5
-1.655, 8.505e-5
-1.656, 8.610e-5
-1.657, 8.733e-5
-1.658, 8.858e-5
-1.659, 9.001e-5
-1.660, 9.112e-5
-1.661, 9.243e-5
-1.662, 9.359e-5
-1.663, 9.504e-5
-1.664, 9.635e-5
-1.665, 9.764e-5
-1.666, 9.924e-5
-1.667, 1.006e-4
-1.668, 1.022e-4
-1.669, 1.032e-4
-1.670, 1.048e-4
-1.671, 1.064e-4
-1.672, 1.078e-4
-1.673, 1.094e-4
-1.674, 1.107e-4
-1.675, 1.122e-4
-1.676, 1.138e-4
-1.677, 1.150e-4
-1.678, 1.167e-4
-1.679, 1.183e-4
-1.680, 1.199e-4
-1.681, 1.214e-4
-1.682, 1.232e-4
-1.683, 1.248e-4
-1.684, 1.270e-4
-1.685, 1.288e-4
-1.686, 1.306e-4
-1.687, 1.325e-4
-1.688, 1.344e-4
-1.689, 1.364e-4
-1.690, 1.385e-4
-1.691, 1.408e-4
-1.692, 1.425e-4
-1.693, 1.445e-4
-1.694, 1.470e-4
-1.695, 1.489e-4
-1.696, 1.514e-4
-1.697, 1.537e-4
-1.698, 1.563e-4
-1.699, 1.585e-4
-1.700, 1.603e-4
-1.701, 1.628e-4
-1.702, 1.649e-4
-1.703, 1.673e-4
-1.704, 1.697e-4
-1.705, 1.724e-4
-1.706, 1.747e-4
-1.707, 1.776e-4
-1.708, 1.802e-4
-1.709, 1.832e-4
-1.710, 1.855e-4
-1.711, 1.886e-4
-1.712, 1.914e-4
-1.713, 1.943e-4
-1.714, 1.977e-4
-1.715, 2.010e-4
-1.716, 2.034e-4
-1.717, 2.069e-4
-1.718, 2.097e-4
-1.719, 2.126e-4
-1.720, 2.160e-4
-1.721, 2.196e-4
-1.722, 2.221e-4
-1.723, 2.263e-4
-1.724, 2.293e-4
-1.725, 2.333e-4
-1.726, 2.371e-4
-1.727, 2.396e-4
-1.728, 2.443e-4
-1.729, 2.478e-4
-1.730, 2.514e-4
-1.731, 2.557e-4
-1.732, 2.592e-4
-1.733, 2.631e-4
-1.734, 2.677e-4
-1.735, 2.719e-4
-1.736, 2.759e-4
-1.737, 2.799e-4
-1.738, 2.847e-4
-1.739, 2.886e-4
-1.740, 2.938e-4
-1.741, 2.984e-4
-1.742, 3.028e-4
-1.743, 3.079e-4
-1.744, 3.125e-4
-1.745, 3.171e-4
-1.746, 3.222e-4
-1.747, 3.268e-4
-1.748, 3.324e-4
-1.749, 3.373e-4
-1.750, 3.427e-4
-1.751, 3.486e-4
-1.752, 3.536e-4
-1.753, 3.594e-4
-1.754, 3.653e-4
-1.755, 3.711e-4
-1.756, 3.767e-4
-1.757, 3.835e-4
-1.758, 3.897e-4
-1.759, 3.950e-4
-1.760, 4.018e-4
-1.761, 4.075e-4
-1.762, 4.142e-4
-1.763, 4.208e-4
-1.764, 4.270e-4
-1.765, 4.341e-4
-1.766, 4.409e-4
-1.767, 4.482e-4
-1.768, 4.554e-4
-1.769, 4.623e-4
-1.770, 4.704e-4
-1.771, 4.775e-4
-1.772, 4.861e-4
-1.773, 4.937e-4
-1.774, 5.012e-4
-1.775, 5.096e-4
-1.776, 5.172e-4
-1.777, 5.263e-4
-1.778, 5.341e-4
-1.779, 5.435e-4
-1.780, 5.523e-4
-1.781, 5.607e-4
-1.782, 5.702e-4
-1.783, 5.787e-4
-1.784, 5.878e-4
-1.785, 5.979e-4
-1.786, 6.062e-4
-1.787, 6.155e-4
-1.788, 6.253e-4
-1.789, 6.347e-4
-1.790, 6.447e-4
-1.791, 6.551e-4
-1.792, 6.650e-4
-1.793, 6.770e-4
-1.794, 6.868e-4
-1.795, 6.983e-4
-1.796, 7.083e-4
-1.797, 7.201e-4
-1.798, 7.316e-4
-1.799, 7.417e-4
-1.800, 7.543e-4
-1.801, 7.657e-4
-1.802, 7.776e-4
-1.803, 7.904e-4
-1.804, 8.015e-4
-1.805, 8.148e-4
-1.806, 8.270e-4
-1.807, 8.405e-4
-1.808, 8.530e-4
-1.809, 8.660e-4
-1.810, 8.800e-4
-1.811, 8.934e-4
-1.812, 9.077e-4
-1.813, 9.217e-4
-1.814, 9.358e-4
-1.815, 9.507e-4
-1.816, 9.630e-4
-1.817, 9.789e-4
-1.818, 9.926e-4
-1.819, 1.007e-3
-1.820, 1.021e-3
-1.821, 1.037e-3
-1.822, 1.052e-3
-1.823, 1.067e-3
-1.824, 1.084e-3
-1.825, 1.099e-3
-1.826, 1.115e-3
-1.827, 1.132e-3
-1.828, 1.149e-3
-1.829, 1.165e-3
-1.830, 1.182e-3
-1.831, 1.199e-3
-1.832, 1.215e-3
-1.833, 1.230e-3
-1.834, 1.249e-3
-1.835, 1.268e-3
-1.836, 1.285e-3
-1.837, 1.303e-3
-1.838, 1.322e-3
-1.839, 1.342e-3
-1.840, 1.361e-3
-1.841, 1.379e-3
-1.842, 1.400e-3
-1.843, 1.418e-3
-1.844, 1.437e-3
-1.845, 1.458e-3
-1.846, 1.477e-3
-1.847, 1.496e-3
-1.848, 1.516e-3
-1.849, 1.537e-3
-1.850, 1.558e-3
-1.851, 1.577e-3
-1.852, 1.598e-3
-1.853, 1.620e-3
-1.854, 1.640e-3
-1.855, 1.664e-3
-1.856, 1.684e-3
-1.857, 1.705e-3
-1.858, 1.727e-3
-1.859, 1.749e-3
-1.860, 1.772e-3
-1.861, 1.798e-3
-1.862, 1.818e-3
-1.863, 1.841e-3
-1.864, 1.863e-3
-1.865, 1.889e-3
-1.866, 1.912e-3
-1.867, 1.936e-3
-1.868, 1.964e-3
-1.869, 1.985e-3
-1.870, 2.008e-3
-1.871, 2.031e-3
-1.872, 2.055e-3
-1.873, 2.077e-3
-1.874, 2.102e-3
-1.875, 2.128e-3
-1.876, 2.152e-3
-1.877, 2.180e-3
-1.878, 2.205e-3
-1.879, 2.232e-3
-1.880, 2.260e-3
-1.881, 2.282e-3
-1.882, 2.310e-3
-1.883, 2.335e-3
-1.884, 2.359e-3
-1.885, 2.387e-3
-1.886, 2.413e-3
-1.887, 2.438e-3
-1.888, 2.467e-3
-1.889, 2.492e-3
-1.890, 2.519e-3
-1.891, 2.549e-3
-1.892, 2.578e-3
-1.893, 2.611e-3
-1.894, 2.639e-3
-1.895, 2.667e-3
-1.896, 2.698e-3
-1.897, 2.723e-3
-1.898, 2.754e-3
-1.899, 2.782e-3
-1.900, 2.809e-3
-1.901, 2.835e-3
-1.902, 2.863e-3
-1.903, 2.890e-3
-1.904, 2.923e-3
-1.905, 2.957e-3
-1.906, 2.986e-3
-1.907, 3.024e-3
-1.908, 3.054e-3
-1.909, 3.079e-3
-1.910, 3.113e-3
-1.911, 3.143e-3
-1.912, 3.176e-3
-1.913, 3.210e-3
-1.914, 3.237e-3
-1.915, 3.267e-3
-1.916, 3.293e-3
-1.917, 3.319e-3
-1.918, 3.355e-3
-1.919, 3.392e-3
-1.920, 3.428e-3
-1.921, 3.465e-3
-1.922, 3.502e-3
-1.923, 3.532e-3
-1.924, 3.563e-3
-1.925, 3.597e-3
-1.926, 3.630e-3
-1.927, 3.669e-3
-1.928, 3.698e-3
-1.929, 3.726e-3
-1.930, 3.759e-3
-1.931, 3.782e-3
-1.932, 3.815e-3
-1.933, 3.854e-3
-1.934, 3.895e-3
-1.935, 3.932e-3
-1.936, 3.974e-3
-1.937, 4.012e-3
-1.938, 4.047e-3
-1.939, 4.081e-3
-1.940, 4.118e-3
-1.941, 4.157e-3
-1.942, 4.195e-3
-1.943, 4.223e-3
-1.944, 4.259e-3
-1.945, 4.291e-3
-1.946, 4.316e-3
-1.947, 4.355e-3
-1.948, 4.395e-3
-1.949, 4.434e-3
-1.950, 4.480e-3
-1.951, 4.522e-3
-1.952, 4.566e-3
-1.953, 4.597e-3
-1.954, 4.633e-3
-1.955, 4.679e-3
-1.956, 4.713e-3
-1.957, 4.753e-3
-1.958, 4.794e-3
-1.959, 4.822e-3
-1.960, 4.853e-3
-1.961, 4.890e-3
-1.962, 4.934e-3
-1.963, 4.973e-3
-1.964, 5.031e-3
-1.965, 5.079e-3
-1.966, 5.116e-3
-1.967, 5.161e-3
-1.968, 5.194e-3
-1.969, 5.234e-3
-1.970, 5.286e-3
-1.971, 5.320e-3
-1.972, 5.361e-3
-1.973, 5.399e-3
-1.974, 5.431e-3
-1.975, 5.467e-3
-1.976, 5.509e-3
-1.977, 5.555e-3
-1.978, 5.608e-3
-1.979, 5.661e-3
-1.980, 5.702e-3
-1.981, 5.742e-3
-1.982, 5.783e-3
-1.983, 5.818e-3
-1.984, 5.872e-3
-1.985, 5.913e-3
-1.986, 5.952e-3
-1.987, 5.994e-3
-1.988, 6.020e-3
-1.989, 6.056e-3
-1.990, 6.104e-3
-1.991, 6.156e-3
-1.992, 6.203e-3
-1.993, 6.264e-3
-1.994, 6.306e-3
-1.995, 6.360e-3
-1.996, 6.397e-3
-1.997, 6.441e-3
-1.998, 6.507e-3
-1.999, 6.542e-3
-2.000, 6.548e-3
-1.999, 6.515e-3
-1.998, 6.459e-3
-1.997, 6.408e-3
-1.996, 6.381e-3
-1.995, 6.348e-3
-1.994, 6.319e-3
-1.993, 6.292e-3
-1.992, 6.260e-3
-1.991, 6.229e-3
-1.990, 6.185e-3
-1.989, 6.138e-3
-1.988, 6.116e-3
-1.987, 6.068e-3
-1.986, 6.016e-3
-1.985, 5.987e-3
-1.984, 5.940e-3
-1.983, 5.890e-3
-1.982, 5.848e-3
-1.981, 5.816e-3
-1.980, 5.782e-3
-1.979, 5.757e-3
-1.978, 5.729e-3
-1.977, 5.694e-3
-1.976, 5.651e-3
-1.975, 5.613e-3
-1.974, 5.576e-3
-1.973, 5.544e-3
-1.972, 5.502e-3
-1.971, 5.463e-3
-1.970, 5.419e-3
-1.969, 5.368e-3
-1.968, 5.328e-3
-1.967, 5.297e-3
-1.966, 5.269e-3
-1.965, 5.237e-3
-1.964, 5.211e-3
-1.963, 5.174e-3
-1.962, 5.132e-3
-1.961, 5.091e-3
-1.960, 5.053e-3
-1.959, 5.024e-3
-1.958, 4.984e-3
-1.957, 4.942e-3
-1.956, 4.904e-3
-1.955, 4.857e-3
-1.954, 4.817e-3
-1.953, 4.774e-3
-1.952, 4.752e-3
-1.951, 4.726e-3
-1.950, 4.690e-3
-1.949, 4.663e-3
-1.948, 4.624e-3
-1.947, 4.574e-3
-1.946, 4.542e-3
-1.945, 4.509e-3
-1.944, 4.473e-3
-1.943, 4.441e-3
-1.942, 4.405e-3
-1.941, 4.367e-3
-1.940, 4.324e-3
-1.939, 4.292e-3
-1.938, 4.261e-3
-1.937, 4.230e-3
-1.936, 4.199e-3
-1.935, 4.163e-3
-1.934, 4.131e-3
-1.933, 4.093e-3
-1.932, 4.057e-3
-1.931, 4.028e-3
-1.930, 3.992e-3
-1.929, 3.955e-3
-1.928, 3.921e-3
-1.927, 3.889e-3
-1.926, 3.851e-3
-1.925, 3.822e-3
-1.924, 3.796e-3
-1.923, 3.763e-3
-1.922, 3.730e-3
-1.921, 3.696e-3
-1.920, 3.662e-3
-1.919, 3.632e-3
-1.918, 3.595e-3
-1.917, 3.567e-3
-1.916, 3.533e-3
-1.915, 3.494e-3
-1.914, 3.462e-3
-1.913, 3.431e-3
-1.912, 3.404e-3
-1.911, 3.373e-3
-1.910, 3.351e-3
-1.909, 3.327e-3
-1.908, 3.291e-3
-1.907, 3.261e-3
-1.906, 3.232e-3
-1.905, 3.199e-3
-1.904, 3.169e-3
-1.903, 3.139e-3
-1.902, 3.107e-3
-1.901, 3.074e-3
-1.900, 3.039e-3
-1.899, 3.012e-3
-1.898, 2.982e-3
-1.897, 2.962e-3
-1.896, 2.935e-3
-1.895, 2.909e-3
-1.894, 2.883e-3
-1.893, 2.849e-3
-1.892, 2.820e-3
-1.891, 2.794e-3
-1.890, 2.769e-3
-1.889, 2.742e-3
-1.888, 2.713e-3
-1.887, 2.689e-3
-1.886, 2.657e-3
-1.885, 2.627e-3
-1.884, 2.606e-3
-1.883, 2.580e-3
-1.882, 2.557e-3
-1.881, 2.531e-3
-1.880, 2.505e-3
-1.879, 2.478e-3
-1.878, 2.453e-3
-1.877, 2.429e-3
-1.876, 2.404e-3
-1.875, 2.381e-3
-1.874, 2.353e-3
-1.873, 2.329e-3
-1.872, 2.305e-3
-1.871, 2.278e-3
-1.870, 2.253e-3
-1.869, 2.231e-3
-1.868, 2.209e-3
-1.867, 2.183e-3
-1.866, 2.161e-3
-1.865, 2.140e-3
-1.864, 2.114e-3
-1.863, 2.093e-3
-1.862, 2.071e-3
-1.861, 2.048e-3
-1.860, 2.026e-3
-1.859, 2.003e-3
-1.858, 1.980e-3
-1.857, 1.959e-3
-1.856, 1.939e-3
-1.855, 1.917e-3
-1.854, 1.899e-3
-1.853, 1.876e-3
-1.852, 1.855e-3
-1.851, 1.837e-3
-1.850, 1.814e-3
-1.849, 1.794e-3
-1.848, 1.775e-3
-1.847, 1.754e-3
-1.846, 1.733e-3
-1.845, 1.715e-3
-1.844, 1.694e-3
-1.843, 1.674e-3
-1.842, 1.656e-3
-1.841, 1.636e-3
-1.840, 1.617e-3
-1.839, 1.599e-3
-1.838, 1.581e-3
-1.837, 1.562e-3
-1.836, 1.541e-3
-1.835, 1.525e-3
-1.834, 1.507e-3
-1.833, 1.489e-3
-1.832, 1.474e-3
-1.831, 1.455e-3
-1.830, 1.439e-3
-1.829, 1.423e-3
-1.828, 1.404e-3
-1.827, 1.389e-3
-1.826, 1.371e-3
-1.825, 1.357e-3
-1.824, 1.340e-3
-1.823, 1.326e-3
-1.822, 1.311e-3
-1.821, 1.295e-3
-1.820, 1.283e-3
-1.819, 1.267e-3
-1.818, 1.250e-3
-1.817, 1.234e-3
-1.816, 1.220e-3
-1.815, 1.205e-3
-1.814, 1.190e-3
-1.813, 1.177e-3
-1.812, 1.161e-3
-1.811, 1.147e-3
-1.810, 1.134e-3
-1.809, 1.118e-3
-1.808, 1.108e-3
-1.807, 1.093e-3
-1.806, 1.078e-3
-1.805, 1.067e-3
-1.804, 1.052e-3
-1.803, 1.038e-3
-1.802, 1.026e-3
-1.801, 1.015e-3
-1.800, 1.001e-3
-1.799, 9.908e-4
-1.798, 9.794e-4
-1.797, 9.661e-4
-1.796, 9.550e-4
-1.795, 9.427e-4
-1.794, 9.301e-4
-1.793, 9.212e-4
-1.792, 9.057e-4
-1.791, 8.960e-4
-1.790, 8.837e-4
-1.789, 8.708e-4
-1.788, 8.609e-4
-1.787, 8.494e-4
-1.786, 8.384e-4
-1.785, 8.274e-4
-1.784, 8.163e-4
-1.783, 8.061e-4
-1.782, 7.951e-4
-1.781, 7.865e-4
-1.780, 7.765e-4
-1.779, 7.670e-4
-1.778, 7.566e-4
-1.777, 7.482e-4
-1.776, 7.379e-4
-1.775, 7.270e-4
-1.774, 7.202e-4
-1.773, 7.089e-4
-1.772, 7.006e-4
-1.771, 6.917e-4
-1.770, 6.823e-4
-1.769, 6.736e-4
-1.768, 6.638e-4
-1.767, 6.557e-4
-1.766, 6.469e-4
-1.765, 6.385e-4
-1.764, 6.304e-4
-1.763, 6.211e-4
-1.762, 6.145e-4
-1.761, 6.049e-4
-1.760, 5.972e-4
-1.759, 5.899e-4
-1.758, 5.803e-4
-1.757, 5.744e-4
-1.756, 5.653e-4
-1.755, 5.580e-4
-1.754, 5.511e-4
-1.753, 5.429e-4
-1.752, 5.364e-4
-1.751, 5.293e-4
-1.750, 5.220e-4
-1.749, 5.145e-4
-1.748, 5.085e-4
-1.747, 5.004e-4
-1.746, 4.932e-4
-1.745, 4.869e-4
-1.744, 4.791e-4
-1.743, 4.736e-4
-1.742, 4.669e-4
-1.741, 4.612e-4
-1.740, 4.548e-4
-1.739, 4.483e-4
-1.738, 4.424e-4
-1.737, 4.358e-4
-1.736, 4.301e-4
-1.735, 4.249e-4
-1.734, 4.183e-4
-1.733, 4.135e-4
-1.732, 4.075e-4
-1.731, 4.018e-4
-1.730, 3.965e-4
-1.729, 3.918e-4
-1.728, 3.841e-4
-1.727, 3.797e-4
-1.726, 3.741e-4
-1.725, 3.687e-4
-1.724, 3.636e-4
-1.723, 3.590e-4
-1.722, 3.535e-4
-1.721, 3.501e-4
-1.720, 3.438e-4
-1.719, 3.403e-4
-1.718, 3.351e-4
-1.717, 3.298e-4
-1.716, 3.253e-4
-1.715, 3.205e-4
-1.714, 3.166e-4
-1.713, 3.105e-4
-1.712, 3.081e-4
-1.711, 3.034e-4
-1.710, 2.986e-4
-1.709, 2.950e-4
-1.708, 2.905e-4
-1.707, 2.860e-4
-1.706, 2.824e-4
-1.705, 2.778e-4
-1.704, 2.751e-4
-1.703, 2.700e-4
-1.702, 2.664e-4
-1.701, 2.633e-4
-1.700, 2.590e-4
-1.699, 2.561e-4
-1.698, 2.507e-4
-1.697, 2.488e-4
-1.696, 2.436e-4
-1.695, 2.417e-4
-1.694, 2.380e-4
-1.693, 2.348e-4
-1.692, 2.321e-4
-1.691, 2.272e-4
-1.690, 2.256e-4
-1.689, 2.221e-4
-1.688, 2.177e-4
-1.687, 2.165e-4
-1.686, 2.121e-4
-1.685, 2.093e-4
-1.684, 2.058e-4
-1.683, 2.033e-4
-1.682, 1.995e-4
-1.681, 1.971e-4
-1.680, 1.939e-4
-1.679, 1.915e-4
-1.678, 1.888e-4
-1.677, 1.855e-4
-1.676, 1.832e-4
-1.675, 1.805e-4
-1.674, 1.772e-4
-1.673, 1.751e-4
-1.672, 1.727e-4
-1.671, 1.699e-4
-1.670, 1.678e-4
-1.669, 1.653e-4
-1.668, 1.634e-4
-1.667, 1.602e-4
-1.666, 1.587e-4
-1.665, 1.568e-4
-1.664, 1.529e-4
-1.663, 1.513e-4
-1.662, 1.492e-4
-1.661, 1.469e-4
-1.660, 1.444e-4
-1.659, 1.429e-4
-1.658, 1.404e-4
-1.657, 1.376e-4
-1.656, 1.361e-4
-1.655, 1.342e-4
-1.654, 1.320e-4
-1.653, 1.297e-4
-1.652, 1.287e-4
-1.651, 1.261e-4
-1.650, 1.241e-4
-1.649, 1.229e-4
-1.648, 1.204e-4
-1.647, 1.192e-4
-1.646, 1.172e-4
-1.645, 1.158e-4
-1.644, 1.140e-4
-1.643, 1.122e-4
-1.642, 1.105e-4
-1.641, 1.082e-4
-1.640, 1.072e-4
-1.639, 1.049e-4
-1.638, 1.035e-4
-1.637, 1.025e-4
-1.636, 1.000e-4
-1.635, 9.958e-5
-1.634, 9.768e-5
-1.633, 9.579e-5
-1.632, 9.495e-5
-1.631, 9.296e-5
-1.630, 9.147e-5
-1.629, 9.050e-5
-1.628, 8.861e-5
-1.627, 8.781e-5
-1.626, 8.577e-5
-1.625, 8.553e-5
-1.624, 8.351e-5
-1.623, 8.199e-5
-1.622, 8.157e-5
-1.621, 7.945e-5
-1.620, 7.833e-5
-1.619, 7.763e-5
-1.618, 7.550e-5
-1.617, 7.502e-5
-1.616, 7.330e-5
-1.615, 7.227e-5
-1.614, 7.125e-5
-1.613, 7.031e-5
-1.612, 6.891e-5
-1.611, 6.759e-5
-1.610, 6.689e-5
-1.609, 6.570e-5
-1.608, 6.495e-5
-1.607, 6.391e-5
-1.606, 6.259e-5
-1.605, 6.259e-5
-1.604, 6.055e-5
-1.603, 6.020e-5
-1.602, 5.946e-5
-1.601, 5.761e-5
-1.600, 5.755e-5
-1.599, 5.632e-5
-1.598, 5.490e-5
-1.597, 5.459e-5
-1.596, 5.320e-5
-1.595, 5.292e-5
-1.594, 5.123e-5
-1.593, 5.124e-5
-1.592, 5.004e-5
-1.591, 4.888e-5
-1.590, 4.863e-5
-1.589, 4.747e-5
-1.588, 4.657e-5
-1.587, 4.574e-5
-1.586, 4.494e-5
-1.585, 4.475e-5
-1.584, 4.344e-5
-1.583, 4.290e-5
-1.582, 4.217e-5
-1.581, 4.131e-5
-1.580, 4.089e-5
-1.579, 4.004e-5
-1.578, 3.947e-5
-1.577, 3.896e-5
-1.576, 3.813e-5
-1.575, 3.741e-5
-1.574, 3.677e-5
-1.573, 3.584e-5
-1.572, 3.540e-5
-1.571, 3.484e-5
-1.570, 3.450e-5
-1.569, 3.353e-5
-1.568, 3.324e-5
-1.567, 3.266e-5
-1.566, 3.190e-5
-1.565, 3.144e-5
-1.564, 3.098e-5
-1.563, 3.015e-5
-1.562, 3.006e-5
-1.561, 2.870e-5
-1.560, 2.855e-5
-1.559, 2.833e-5
-1.558, 2.743e-5
-1.557, 2.712e-5
-1.556, 2.662e-5
-1.555, 2.617e-5
-1.554, 2.565e-5
-1.553, 2.494e-5
-1.552, 2.506e-5
-1.551, 2.389e-5
-1.550, 2.390e-5
-1.549, 2.354e-5
-1.548, 2.267e-5
-1.547, 2.240e-5
-1.546, 2.195e-5
-1.545, 2.153e-5
-1.544, 2.108e-5
-1.543, 2.082e-5
-1.542, 2.042e-5
-1.541, 1.978e-5
-1.540, 1.996e-5
-1.539, 1.938e-5
-1.538, 1.865e-5
-1.537, 1.844e-5
-1.536, 1.782e-5
-1.535, 1.784e-5
-1.534, 1.708e-5
-1.533, 1.706e-5
-1.532, 1.673e-5
-1.531, 1.602e-5
-1.530, 1.586e-5
-1.529, 1.581e-5
-1.528, 1.512e-5
-1.527, 1.488e-5
-1.526, 1.465e-5
-1.525, 1.444e-5
-1.524, 1.395e-5
-1.523, 1.374e-5
-1.522, 1.327e-5
-1.521, 1.317e-5
-1.520, 1.289e-5
-1.519, 1.264e-5
-1.518, 1.225e-5
-1.517, 1.227e-5
-1.516, 1.173e-5
-1.515, 1.160e-5
-1.514, 1.124e-5
-1.513, 1.101e-5
-1.512, 1.062e-5
-1.511, 1.027e-5
-1.510, 1.020e-5
-1.509, 1.003e-5
-1.508, 9.588e-6
-1.507, 9.351e-6
-1.506, 9.094e-6
-1.505, 9.085e-6
-1.504, 8.907e-6
-1.503, 8.611e-6
-1.502, 8.502e-6
-1.501, 8.167e-6
-1.500, 8.266e-6
-1.499, 7.881e-6
-1.498, 7.654e-6
-1.497, 7.397e-6
-1.496, 7.141e-6
-1.495, 7.328e-6
-1.494, 6.796e-6
-1.493, 6.598e-6
-1.492, 6.539e-6
-1.491, 6.164e-6
-1.490, 6.243e-6
-1.489, 6.026e-6
-1.488, 5.740e-6
-1.487, 5.622e-6
-1.486, 5.454e-6
-1.485, 5.118e-6
-1.484, 5.059e-6
-1.483, 4.970e-6
-1.482, 4.763e-6
-1.481, 4.744e-6
-1.480, 4.596e-6
-1.479, 4.477e-6
-1.478, 4.211e-6
-1.477, 4.083e-6
-1.476, 3.787e-6
-1.475, 3.925e-6
-1.474, 3.609e-6
-1.473, 3.658e-6
-1.472, 3.392e-6
-1.471, 3.264e-6
-1.470, 3.293e-6
-1.469, 2.908e-6
-1.468, 3.066e-6
-1.467, 2.958e-6
-1.466, 2.534e-6
-1.465, 2.682e-6
-1.464, 2.395e-6
-1.463, 2.336e-6
-1.462, 2.336e-6
-1.461, 2.099e-6
-1.460, 2.011e-6
-1.459, 1.892e-6
-1.458, 1.646e-6
-1.457, 1.803e-6
-1.456, 1.547e-6
-1.455, 1.586e-6
-1.454, 1.360e-6
-1.453, 1.438e-6
-1.452, 1.202e-6
-1.451, 1.093e-6
-1.450, 1.212e-6
-1.449, 1.004e-6
-1.448, 6.886e-7
-1.447, 7.281e-7
-1.446, 5.111e-7
-1.445, 7.084e-7
-1.444, 4.913e-7
-1.443, 3.335e-7
-1.442, 4.420e-7
-1.441, 2.052e-7
-1.440, 2.644e-7
-1.439, 3.433e-7
-1.438, -1.796e-7
-1.437, 2.762e-8
-1.436, -3.473e-7
-1.435, -6.117e-8
-1.434, -1.500e-7
-1.433, -4.065e-7
-1.432, -4.065e-7
-1.431, -4.854e-7
-1.430, -4.953e-7
-1.429, -4.558e-7
-1.428, -7.617e-7
-1.427, -6.334e-7
-1.426, -9.392e-7
-1.425, -4.953e-7
-1.424, -1.058e-6
-1.423, -9.392e-7
-1.422, -1.166e-6
-1.421, -1.314e-6
-1.420, -1.225e-6
-1.419, -9.984e-7
-1.418, -1.442e-6
-1.417, -1.334e-6
-1.416, -1.403e-6
-1.415, -1.275e-6
-1.414, -1.373e-6
-1.413, -1.561e-6
-1.412, -1.442e-6
-1.411, -1.590e-6
-1.410, -1.541e-6
-1.409, -1.521e-6
-1.408, -1.817e-6
-1.407, -1.719e-6
-1.406, -2.044e-6
-1.405, -1.768e-6
-1.404, -1.847e-6
-1.403, -1.946e-6
-1.402, -1.581e-6
-1.401, -2.015e-6
-1.400, -2.034e-6
-1.399, -1.985e-6
-1.398, -2.113e-6
-1.397, -1.946e-6
-1.396, -2.261e-6
-1.395, -2.123e-6
-1.394, -2.291e-6
-1.393, -2.271e-6
-1.392, -2.242e-6
-1.391, -2.350e-6
-1.390, -2.281e-6
-1.389, -2.399e-6
-1.388, -2.538e-6
-1.387, -2.419e-6
-1.386, -2.666e-6
-1.385, -2.301e-6
-1.384, -2.360e-6
-1.383, -2.557e-6
-1.382, -2.468e-6
-1.381, -2.764e-6
-1.380, -2.340e-6
-1.379, -2.676e-6
-1.378, -2.725e-6
-1.377, -2.518e-6
-1.376, -2.972e-6
-1.375, -2.616e-6
-1.374, -2.893e-6
-1.373, -2.774e-6
-1.372, -2.735e-6
-1.371, -2.764e-6
-1.370, -2.735e-6
-1.369, -2.814e-6
-1.368, -3.021e-6
-1.367, -2.883e-6
-1.366, -3.021e-6
-1.365, -2.814e-6
-1.364, -2.972e-6
-1.363, -2.952e-6
-1.362, -3.070e-6
-1.361, -2.942e-6
-1.360, -3.001e-6
-1.359, -3.021e-6
-1.358, -3.228e-6
-1.357, -3.011e-6
-1.356, -3.268e-6
-1.355, -3.199e-6
-1.354, -3.149e-6
-1.353, -3.337e-6
-1.352, -3.100e-6
-1.351, -3.337e-6
-1.350, -3.268e-6
-1.349, -3.169e-6
-1.348, -3.416e-6
-1.347, -3.129e-6
-1.346, -3.327e-6
-1.345, -3.129e-6
-1.344, -3.386e-6
-1.343, -3.465e-6
-1.342, -3.356e-6
-1.341, -3.347e-6
-1.340, -3.129e-6
-1.339, -3.277e-6
-1.338, -3.425e-6
-1.337, -3.327e-6
-1.336, -3.465e-6
-1.335, -3.376e-6
-1.334, -3.455e-6
-1.333, -3.248e-6
-1.332, -3.406e-6
-1.331, -3.554e-6
-1.330, -3.347e-6
-1.329, -3.435e-6
-1.328, -3.455e-6
-1.327, -3.396e-6
-1.326, -3.633e-6
-1.325, -3.376e-6
-1.324, -3.544e-6
-1.323, -3.652e-6
-1.322, -3.356e-6
-1.321, -3.564e-6
-1.320, -3.238e-6
-1.319, -3.475e-6
-1.318, -3.652e-6
-1.317, -3.416e-6
-1.316, -3.721e-6
-1.315, -3.485e-6
-1.314, -3.544e-6
-1.313, -3.633e-6
-1.312, -3.633e-6
-1.311, -3.771e-6
-1.310, -3.564e-6
-1.309, -3.573e-6
-1.308, -3.682e-6
-1.307, -3.524e-6
-1.306, -3.761e-6
-1.305, -3.672e-6
-1.304, -3.524e-6
-1.303, -3.593e-6
-1.302, -3.583e-6
-1.301, -3.652e-6
-1.300, -3.406e-6
-1.299, -3.583e-6
-1.298, -3.948e-6
-1.297, -3.623e-6
-1.296, -3.633e-6
-1.295, -3.564e-6
-1.294, -3.731e-6
-1.293, -3.761e-6
-1.292, -3.524e-6
-1.291, -3.830e-6
-1.290, -3.524e-6
-1.289, -3.682e-6
-1.288, -3.800e-6
-1.287, -3.652e-6
-1.286, -3.800e-6
-1.285, -3.662e-6
-1.284, -3.702e-6
-1.283, -3.741e-6
-1.282, -3.800e-6
-1.281, -3.820e-6
-1.280, -3.702e-6
-1.279, -3.761e-6
-1.278, -3.850e-6
-1.277, -3.840e-6
-1.276, -3.820e-6
-1.275, -3.662e-6
-1.274, -3.810e-6
-1.273, -3.860e-6
-1.272, -3.830e-6
-1.271, -3.938e-6
-1.270, -3.731e-6
-1.269, -3.702e-6
-1.268, -3.869e-6
-1.267, -3.899e-6
-1.266, -4.017e-6
-1.265, -3.781e-6
-1.264, -3.810e-6
-1.263, -3.741e-6
-1.262, -3.682e-6
-1.261, -4.077e-6
-1.260, -3.554e-6
-1.259, -3.810e-6
-1.258, -3.889e-6
-1.257, -3.761e-6
-1.256, -3.889e-6
-1.255, -3.761e-6
-1.254, -3.978e-6
-1.253, -3.978e-6
-1.252, -3.781e-6
-1.251, -3.948e-6
-1.250, -3.968e-6
-1.249, -3.781e-6
-1.248, -3.919e-6
-1.247, -3.948e-6
-1.246, -3.899e-6
-1.245, -3.721e-6
-1.244, -3.869e-6
-1.243, -3.899e-6
-1.242, -3.879e-6
-1.241, -3.988e-6
-1.240, -3.800e-6
-1.239, -3.712e-6
-1.238, -3.929e-6
-1.237, -3.820e-6
-1.236, -4.017e-6
-1.235, -3.820e-6
-1.234, -3.938e-6
-1.233, -3.978e-6
-1.232, -3.643e-6
-1.231, -4.008e-6
-1.230, -3.889e-6
-1.229, -3.988e-6
-1.228, -4.077e-6
-1.227, -3.712e-6
-1.226, -4.057e-6
-1.225, -3.810e-6
-1.224, -3.820e-6
-1.223, -4.116e-6
-1.222, -4.037e-6
-1.221, -4.067e-6
-1.220, -3.800e-6
-1.219, -4.027e-6
-1.218, -4.057e-6
-1.217, -3.978e-6
-1.216, -4.234e-6
-1.215, -4.008e-6
-1.214, -4.037e-6
-1.213, -4.077e-6
-1.212, -3.938e-6
-1.211, -4.205e-6
-1.210, -4.037e-6
-1.209, -3.978e-6
-1.208, -4.156e-6
-1.207, -3.938e-6
-1.206, -4.274e-6
-1.205, -3.909e-6
-1.204, -4.215e-6
-1.203, -4.096e-6
-1.202, -4.017e-6
-1.201, -4.294e-6
-1.200, -4.017e-6
-1.199, -4.294e-6
-1.198, -4.254e-6
-1.197, -4.156e-6
-1.196, -4.185e-6
-1.195, -4.057e-6
-1.194, -4.057e-6
-1.193, -4.323e-6
-1.192, -4.106e-6
-1.191, -4.422e-6
-1.190, -4.126e-6
-1.189, -4.156e-6
-1.188, -4.116e-6
-1.187, -4.116e-6
-1.186, -4.195e-6
-1.185, -3.998e-6
-1.184, -4.244e-6
-1.183, -4.008e-6
-1.182, -3.998e-6
-1.181, -4.313e-6
-1.180, -3.948e-6
-1.179, -4.037e-6
-1.178, -4.363e-6
-1.177, -4.057e-6
-1.176, -4.225e-6
-1.175, -4.185e-6
-1.174, -4.363e-6
-1.173, -4.234e-6
-1.172, -4.037e-6
-1.171, -4.481e-6
-1.170, -4.225e-6
-1.169, -4.234e-6
-1.168, -4.333e-6
-1.167, -4.205e-6
-1.166, -4.264e-6
-1.165, -4.185e-6
-1.164, -4.294e-6
-1.163, -4.333e-6
-1.162, -4.264e-6
-1.161, -4.363e-6
-1.160, -4.106e-6
-1.159, -4.165e-6
-1.158, -4.491e-6
-1.157, -4.156e-6
-1.156, -4.521e-6
-1.155, -4.225e-6
-1.154, -4.333e-6
-1.153, -4.452e-6
-1.152, -4.412e-6
-1.151, -4.550e-6
-1.150, -4.264e-6
-1.149, -4.452e-6
-1.148, -4.540e-6
-1.147, -4.205e-6
-1.146, -4.432e-6
-1.145, -4.323e-6
-1.144, -4.175e-6
-1.143, -4.412e-6
-1.142, -4.511e-6
-1.141, -4.471e-6
-1.140, -4.234e-6
-1.139, -4.461e-6
-1.138, -4.511e-6
-1.137, -4.284e-6
-1.136, -4.481e-6
-1.135, -4.452e-6
-1.134, -4.432e-6
-1.133, -4.521e-6
-1.132, -4.294e-6
-1.131, -4.412e-6
-1.130, -4.373e-6
-1.129, -4.422e-6
-1.128, -4.570e-6
-1.127, -4.491e-6
-1.126, -4.688e-6
-1.125, -4.570e-6
-1.124, -4.570e-6
-1.123, -4.521e-6
-1.122, -4.600e-6
-1.121, -4.817e-6
-1.120, -4.471e-6
-1.119, -4.353e-6
-1.118, -4.600e-6
-1.117, -4.669e-6
-1.116, -4.521e-6
-1.115, -4.550e-6
-1.114, -4.649e-6
-1.113, -4.738e-6
-1.112, -4.461e-6
-1.111, -4.817e-6
-1.110, -4.471e-6
-1.109, -4.590e-6
-1.108, -4.738e-6
-1.107, -4.639e-6
-1.106, -4.708e-6
-1.105, -4.787e-6
-1.104, -4.609e-6
-1.103, -4.826e-6
-1.102, -4.629e-6
-1.101, -4.787e-6
-1.100, -4.639e-6
-1.099, -4.649e-6
-1.098, -5.004e-6
-1.097, -4.688e-6
-1.096, -4.807e-6
-1.095, -4.826e-6
-1.094, -4.886e-6
-1.093, -4.767e-6
-1.092, -4.747e-6
-1.091, -4.905e-6
-1.090, -4.728e-6
-1.089, -4.797e-6
-1.088, -5.043e-6
-1.087, -4.718e-6
-1.086, -4.984e-6
-1.085, -4.905e-6
-1.084, -4.886e-6
-1.083, -5.073e-6
-1.082, -4.757e-6
-1.081, -5.004e-6
-1.080, -4.925e-6
-1.079, -4.698e-6
-1.078, -5.043e-6
-1.077, -4.955e-6
-1.076, -4.984e-6
-1.075, -5.004e-6
-1.074, -5.063e-6
-1.073, -5.182e-6
-1.072, -5.053e-6
-1.071, -5.122e-6
-1.070, -4.994e-6
-1.069, -5.083e-6
-1.068, -5.093e-6
-1.067, -5.034e-6
-1.066, -5.182e-6
-1.065, -4.905e-6
-1.064, -5.261e-6
-1.063, -5.172e-6
-1.062, -5.132e-6
-1.061, -5.221e-6
-1.060, -5.063e-6
-1.059, -5.132e-6
-1.058, -5.270e-6
-1.057, -5.191e-6
-1.056, -5.251e-6
-1.055, -5.122e-6
-1.054, -5.142e-6
-1.053, -5.221e-6
-1.052, -5.122e-6
-1.051, -5.399e-6
-1.050, -5.093e-6
-1.049, -5.290e-6
-1.048, -5.448e-6
-1.047, -5.261e-6
-1.046, -5.478e-6
-1.045, -5.566e-6
-1.044, -5.201e-6
-1.043, -5.576e-6
-1.042, -5.270e-6
-1.041, -5.566e-6
-1.040, -5.389e-6
-1.039, -5.458e-6
-1.038, -5.487e-6
-1.037, -5.458e-6
-1.036, -5.527e-6
-1.035, -5.527e-6
-1.034, -5.517e-6
-1.033, -5.616e-6
-1.032, -5.557e-6
-1.031, -5.685e-6
-1.030, -5.487e-6
-1.029, -5.566e-6
-1.028, -5.754e-6
-1.027, -5.586e-6
-1.026, -5.744e-6
-1.025, -5.606e-6
-1.024, -5.764e-6
-1.023, -5.754e-6
-1.022, -5.685e-6
-1.021, -6.040e-6
-1.020, -5.783e-6
-1.019, -5.754e-6
-1.018, -5.833e-6
-1.017, -5.823e-6
-1.016, -6.119e-6
-1.015, -5.803e-6
-1.014, -5.754e-6
-1.013, -5.892e-6
-1.012, -5.872e-6
-1.011, -6.040e-6
-1.010, -5.823e-6
-1.009, -5.931e-6
-1.008, -6.070e-6
-1.007, -5.971e-6
-1.006, -6.089e-6
-1.005, -5.931e-6
-1.004, -5.991e-6
-1.003, -6.060e-6
-1.002, -6.040e-6
-1.001, -6.060e-6
