Mar. 8, 2025   21:02:48
Cyclic Voltammetry
File: c:/users/guazh/data/banditlqround7_x0exp169_r20_3/2025-03-03-exp912\exp912-2025-03-08t20_48_34-arkoh\exp912_cv_sr_300mvs_efin_-1600mv.bin
Data Source:  Experiment
Instrument Model:  CHI760E
Header: CV ran at 300 mVs
Note: 

Init E (V) = -1
High E (V) = -1
Low E (V) = -1.6
Final E (V) = -1
Init P/N = N
Scan Rate (V/s) = 0.3
Segment = 3
Sample Interval (V) = 0.001
Quiet Time (sec) = 2
Sensitivity (A/V) = 0.01
Comp R (ohm) = 1.4

Results:

Channel 1:
Segment 1:

Segment 2:

Segment 3:

Potential/V, Current/A

-1.000, 2.174e-5
-1.001, 4.024e-5
-1.002, 4.024e-5
-1.003, 4.024e-5
-1.004, 4.024e-5
-1.005, 4.332e-5
-1.006, 4.332e-5
-1.007, 4.332e-5
-1.008, 4.024e-5
-1.009, 4.332e-5
-1.010, 4.640e-5
-1.011, 4.332e-5
-1.012, 4.332e-5
-1.013, 4.332e-5
-1.014, 4.332e-5
-1.015, 4.640e-5
-1.016, 4.640e-5
-1.017, 4.332e-5
-1.018, 4.332e-5
-1.019, 4.332e-5
-1.020, 4.640e-5
-1.021, 4.640e-5
-1.022, 4.332e-5
-1.023, 4.640e-5
-1.024, 4.640e-5
-1.025, 4.640e-5
-1.026, 4.640e-5
-1.027, 4.640e-5
-1.028, 4.640e-5
-1.029, 4.640e-5
-1.030, 4.640e-5
-1.031, 4.949e-5
-1.032, 4.640e-5
-1.033, 4.640e-5
-1.034, 4.640e-5
-1.035, 4.640e-5
-1.036, 4.949e-5
-1.037, 4.640e-5
-1.038, 4.640e-5
-1.039, 4.640e-5
-1.040, 4.949e-5
-1.041, 4.949e-5
-1.042, 4.640e-5
-1.043, 4.640e-5
-1.044, 4.949e-5
-1.045, 4.949e-5
-1.046, 4.949e-5
-1.047, 4.949e-5
-1.048, 4.949e-5
-1.049, 4.640e-5
-1.050, 4.949e-5
-1.051, 4.949e-5
-1.052, 4.949e-5
-1.053, 4.949e-5
-1.054, 4.949e-5
-1.055, 4.949e-5
-1.056, 4.949e-5
-1.057, 4.949e-5
-1.058, 4.949e-5
-1.059, 4.949e-5
-1.060, 4.949e-5
-1.061, 4.949e-5
-1.062, 4.949e-5
-1.063, 4.949e-5
-1.064, 4.949e-5
-1.065, 4.949e-5
-1.066, 4.949e-5
-1.067, 4.949e-5
-1.068, 4.949e-5
-1.069, 4.949e-5
-1.070, 4.949e-5
-1.071, 5.257e-5
-1.072, 4.640e-5
-1.073, 4.949e-5
-1.074, 4.949e-5
-1.075, 5.257e-5
-1.076, 5.257e-5
-1.077, 4.949e-5
-1.078, 5.257e-5
-1.079, 4.949e-5
-1.080, 5.257e-5
-1.081, 5.257e-5
-1.082, 4.949e-5
-1.083, 4.949e-5
-1.084, 5.257e-5
-1.085, 5.257e-5
-1.086, 5.257e-5
-1.087, 5.257e-5
-1.088, 4.949e-5
-1.089, 5.257e-5
-1.090, 5.257e-5
-1.091, 5.257e-5
-1.092, 5.257e-5
-1.093, 4.949e-5
-1.094, 5.257e-5
-1.095, 5.257e-5
-1.096, 5.257e-5
-1.097, 5.257e-5
-1.098, 5.257e-5
-1.099, 5.257e-5
-1.100, 5.257e-5
-1.101, 5.257e-5
-1.102, 5.257e-5
-1.103, 5.257e-5
-1.104, 5.257e-5
-1.105, 5.257e-5
-1.106, 5.257e-5
-1.107, 5.257e-5
-1.108, 5.257e-5
-1.109, 5.257e-5
-1.110, 5.565e-5
-1.111, 5.257e-5
-1.112, 5.257e-5
-1.113, 5.257e-5
-1.114, 5.257e-5
-1.115, 5.565e-5
-1.116, 5.565e-5
-1.117, 5.257e-5
-1.118, 5.257e-5
-1.119, 5.257e-5
-1.120, 5.565e-5
-1.121, 5.565e-5
-1.122, 5.257e-5
-1.123, 5.257e-5
-1.124, 5.257e-5
-1.125, 5.565e-5
-1.126, 5.565e-5
-1.127, 5.257e-5
-1.128, 5.257e-5
-1.129, 5.257e-5
-1.130, 5.565e-5
-1.131, 5.565e-5
-1.132, 5.565e-5
-1.133, 5.257e-5
-1.134, 5.565e-5
-1.135, 5.565e-5
-1.136, 5.565e-5
-1.137, 5.565e-5
-1.138, 5.565e-5
-1.139, 5.565e-5
-1.140, 5.565e-5
-1.141, 5.565e-5
-1.142, 5.257e-5
-1.143, 5.565e-5
-1.144, 5.565e-5
-1.145, 5.565e-5
-1.146, 5.565e-5
-1.147, 5.565e-5
-1.148, 5.565e-5
-1.149, 5.565e-5
-1.150, 5.873e-5
-1.151, 5.565e-5
-1.152, 5.565e-5
-1.153, 5.565e-5
-1.154, 5.565e-5
-1.155, 5.565e-5
-1.156, 5.565e-5
-1.157, 5.565e-5
-1.158, 5.565e-5
-1.159, 5.565e-5
-1.160, 5.565e-5
-1.161, 5.873e-5
-1.162, 5.565e-5
-1.163, 5.565e-5
-1.164, 5.565e-5
-1.165, 5.873e-5
-1.166, 5.873e-5
-1.167, 5.873e-5
-1.168, 5.565e-5
-1.169, 5.873e-5
-1.170, 5.873e-5
-1.171, 5.873e-5
-1.172, 5.873e-5
-1.173, 5.873e-5
-1.174, 5.873e-5
-1.175, 5.873e-5
-1.176, 5.873e-5
-1.177, 5.873e-5
-1.178, 5.873e-5
-1.179, 5.873e-5
-1.180, 5.873e-5
-1.181, 5.873e-5
-1.182, 5.873e-5
-1.183, 5.873e-5
-1.184, 5.873e-5
-1.185, 6.182e-5
-1.186, 5.873e-5
-1.187, 5.873e-5
-1.188, 5.873e-5
-1.189, 5.873e-5
-1.190, 6.182e-5
-1.191, 6.182e-5
-1.192, 6.182e-5
-1.193, 6.182e-5
-1.194, 6.182e-5
-1.195, 6.490e-5
-1.196, 6.490e-5
-1.197, 6.182e-5
-1.198, 6.182e-5
-1.199, 6.182e-5
-1.200, 6.490e-5
-1.201, 6.490e-5
-1.202, 6.490e-5
-1.203, 6.182e-5
-1.204, 6.490e-5
-1.205, 6.490e-5
-1.206, 6.490e-5
-1.207, 6.490e-5
-1.208, 6.490e-5
-1.209, 6.490e-5
-1.210, 6.798e-5
-1.211, 6.798e-5
-1.212, 6.798e-5
-1.213, 6.490e-5
-1.214, 6.490e-5
-1.215, 6.798e-5
-1.216, 6.798e-5
-1.217, 6.798e-5
-1.218, 6.798e-5
-1.219, 6.798e-5
-1.220, 7.107e-5
-1.221, 7.107e-5
-1.222, 7.107e-5
-1.223, 7.107e-5
-1.224, 7.107e-5
-1.225, 7.415e-5
-1.226, 7.415e-5
-1.227, 7.415e-5
-1.228, 7.107e-5
-1.229, 7.415e-5
-1.230, 7.723e-5
-1.231, 7.723e-5
-1.232, 7.415e-5
-1.233, 7.723e-5
-1.234, 7.723e-5
-1.235, 7.723e-5
-1.236, 8.032e-5
-1.237, 8.032e-5
-1.238, 7.723e-5
-1.239, 8.032e-5
-1.240, 8.340e-5
-1.241, 8.340e-5
-1.242, 8.340e-5
-1.243, 8.340e-5
-1.244, 8.340e-5
-1.245, 8.340e-5
-1.246, 8.648e-5
-1.247, 8.648e-5
-1.248, 8.648e-5
-1.249, 8.957e-5
-1.250, 8.957e-5
-1.251, 8.957e-5
-1.252, 8.957e-5
-1.253, 8.957e-5
-1.254, 9.265e-5
-1.255, 9.573e-5
-1.256, 9.573e-5
-1.257, 9.573e-5
-1.258, 9.573e-5
-1.259, 9.882e-5
-1.260, 1.019e-4
-1.261, 1.019e-4
-1.262, 1.019e-4
-1.263, 1.019e-4
-1.264, 1.050e-4
-1.265, 1.081e-4
-1.266, 1.081e-4
-1.267, 1.081e-4
-1.268, 1.081e-4
-1.269, 1.111e-4
-1.270, 1.111e-4
-1.271, 1.142e-4
-1.272, 1.142e-4
-1.273, 1.142e-4
-1.274, 1.173e-4
-1.275, 1.204e-4
-1.276, 1.235e-4
-1.277, 1.235e-4
-1.278, 1.235e-4
-1.279, 1.266e-4
-1.280, 1.296e-4
-1.281, 1.327e-4
-1.282, 1.327e-4
-1.283, 1.327e-4
-1.284, 1.358e-4
-1.285, 1.389e-4
-1.286, 1.389e-4
-1.287, 1.420e-4
-1.288, 1.420e-4
-1.289, 1.451e-4
-1.290, 1.481e-4
-1.291, 1.512e-4
-1.292, 1.543e-4
-1.293, 1.543e-4
-1.294, 1.574e-4
-1.295, 1.636e-4
-1.296, 1.636e-4
-1.297, 1.666e-4
-1.298, 1.697e-4
-1.299, 1.697e-4
-1.300, 1.759e-4
-1.301, 1.790e-4
-1.302, 1.790e-4
-1.303, 1.821e-4
-1.304, 1.851e-4
-1.305, 1.913e-4
-1.306, 1.944e-4
-1.307, 1.944e-4
-1.308, 2.006e-4
-1.309, 2.006e-4
-1.310, 2.067e-4
-1.311, 2.098e-4
-1.312, 2.129e-4
-1.313, 2.160e-4
-1.314, 2.191e-4
-1.315, 2.252e-4
-1.316, 2.283e-4
-1.317, 2.314e-4
-1.318, 2.345e-4
-1.319, 2.406e-4
-1.320, 2.437e-4
-1.321, 2.499e-4
-1.322, 2.530e-4
-1.323, 2.561e-4
-1.324, 2.622e-4
-1.325, 2.684e-4
-1.326, 2.715e-4
-1.327, 2.776e-4
-1.328, 2.807e-4
-1.329, 2.869e-4
-1.330, 2.931e-4
-1.331, 2.992e-4
-1.332, 3.023e-4
-1.333, 3.085e-4
-1.334, 3.146e-4
-1.335, 3.208e-4
-1.336, 3.270e-4
-1.337, 3.300e-4
-1.338, 3.362e-4
-1.339, 3.455e-4
-1.340, 3.516e-4
-1.341, 3.578e-4
-1.342, 3.640e-4
-1.343, 3.701e-4
-1.344, 3.763e-4
-1.345, 3.855e-4
-1.346, 3.917e-4
-1.347, 3.979e-4
-1.348, 4.040e-4
-1.349, 4.133e-4
-1.350, 4.225e-4
-1.351, 4.287e-4
-1.352, 4.380e-4
-1.353, 4.441e-4
-1.354, 4.534e-4
-1.355, 4.626e-4
-1.356, 4.719e-4
-1.357, 4.780e-4
-1.358, 4.873e-4
-1.359, 4.965e-4
-1.360, 5.058e-4
-1.361, 5.181e-4
-1.362, 5.243e-4
-1.363, 5.335e-4
-1.364, 5.459e-4
-1.365, 5.551e-4
-1.366, 5.674e-4
-1.367, 5.767e-4
-1.368, 5.859e-4
-1.369, 5.952e-4
-1.370, 6.106e-4
-1.371, 6.199e-4
-1.372, 6.291e-4
-1.373, 6.414e-4
-1.374, 6.507e-4
-1.375, 6.661e-4
-1.376, 6.754e-4
-1.377, 6.877e-4
-1.378, 6.969e-4
-1.379, 7.124e-4
-1.380, 7.247e-4
-1.381, 7.370e-4
-1.382, 7.524e-4
-1.383, 7.648e-4
-1.384, 7.771e-4
-1.385, 7.925e-4
-1.386, 8.048e-4
-1.387, 8.141e-4
-1.388, 8.295e-4
-1.389, 8.418e-4
-1.390, 8.573e-4
-1.391, 8.727e-4
-1.392, 8.850e-4
-1.393, 9.004e-4
-1.394, 9.158e-4
-1.395, 9.313e-4
-1.396, 9.467e-4
-1.397, 9.590e-4
-1.398, 9.744e-4
-1.399, 9.898e-4
-1.400, 1.008e-3
-1.401, 1.024e-3
-1.402, 1.036e-3
-1.403, 1.051e-3
-1.404, 1.067e-3
-1.405, 1.085e-3
-1.406, 1.101e-3
-1.407, 1.113e-3
-1.408, 1.129e-3
-1.409, 1.147e-3
-1.410, 1.166e-3
-1.411, 1.184e-3
-1.412, 1.199e-3
-1.413, 1.215e-3
-1.414, 1.233e-3
-1.415, 1.249e-3
-1.416, 1.267e-3
-1.417, 1.283e-3
-1.418, 1.298e-3
-1.419, 1.317e-3
-1.420, 1.335e-3
-1.421, 1.351e-3
-1.422, 1.369e-3
-1.423, 1.388e-3
-1.424, 1.406e-3
-1.425, 1.425e-3
-1.426, 1.443e-3
-1.427, 1.462e-3
-1.428, 1.480e-3
-1.429, 1.495e-3
-1.430, 1.517e-3
-1.431, 1.536e-3
-1.432, 1.551e-3
-1.433, 1.569e-3
-1.434, 1.591e-3
-1.435, 1.610e-3
-1.436, 1.628e-3
-1.437, 1.647e-3
-1.438, 1.668e-3
-1.439, 1.687e-3
-1.440, 1.711e-3
-1.441, 1.733e-3
-1.442, 1.751e-3
-1.443, 1.770e-3
-1.444, 1.791e-3
-1.445, 1.813e-3
-1.446, 1.832e-3
-1.447, 1.850e-3
-1.448, 1.865e-3
-1.449, 1.890e-3
-1.450, 1.909e-3
-1.451, 1.930e-3
-1.452, 1.952e-3
-1.453, 1.970e-3
-1.454, 1.992e-3
-1.455, 2.017e-3
-1.456, 2.038e-3
-1.457, 2.060e-3
-1.458, 2.078e-3
-1.459, 2.100e-3
-1.460, 2.121e-3
-1.461, 2.143e-3
-1.462, 2.168e-3
-1.463, 2.189e-3
-1.464, 2.211e-3
-1.465, 2.238e-3
-1.466, 2.260e-3
-1.467, 2.282e-3
-1.468, 2.303e-3
-1.469, 2.325e-3
-1.470, 2.349e-3
-1.471, 2.371e-3
-1.472, 2.393e-3
-1.473, 2.414e-3
-1.474, 2.439e-3
-1.475, 2.464e-3
-1.476, 2.491e-3
-1.477, 2.513e-3
-1.478, 2.534e-3
-1.479, 2.556e-3
-1.480, 2.581e-3
-1.481, 2.605e-3
-1.482, 2.627e-3
-1.483, 2.645e-3
-1.484, 2.673e-3
-1.485, 2.701e-3
-1.486, 2.729e-3
-1.487, 2.753e-3
-1.488, 2.781e-3
-1.489, 2.806e-3
-1.490, 2.830e-3
-1.491, 2.858e-3
-1.492, 2.883e-3
-1.493, 2.904e-3
-1.494, 2.929e-3
-1.495, 2.957e-3
-1.496, 2.982e-3
-1.497, 3.006e-3
-1.498, 3.034e-3
-1.499, 3.062e-3
-1.500, 3.089e-3
-1.501, 3.114e-3
-1.502, 3.142e-3
-1.503, 3.170e-3
-1.504, 3.194e-3
-1.505, 3.225e-3
-1.506, 3.259e-3
-1.507, 3.293e-3
-1.508, 3.321e-3
-1.509, 3.345e-3
-1.510, 3.376e-3
-1.511, 3.404e-3
-1.512, 3.429e-3
-1.513, 3.456e-3
-1.514, 3.481e-3
-1.515, 3.512e-3
-1.516, 3.543e-3
-1.517, 3.573e-3
-1.518, 3.601e-3
-1.519, 3.632e-3
-1.520, 3.660e-3
-1.521, 3.697e-3
-1.522, 3.725e-3
-1.523, 3.752e-3
-1.524, 3.786e-3
-1.525, 3.820e-3
-1.526, 3.851e-3
-1.527, 3.879e-3
-1.528, 3.903e-3
-1.529, 3.931e-3
-1.530, 3.962e-3
-1.531, 3.993e-3
-1.532, 4.033e-3
-1.533, 4.070e-3
-1.534, 4.110e-3
-1.535, 4.147e-3
-1.536, 4.181e-3
-1.537, 4.215e-3
-1.538, 4.243e-3
-1.539, 4.270e-3
-1.540, 4.301e-3
-1.541, 4.341e-3
-1.542, 4.378e-3
-1.543, 4.412e-3
-1.544, 4.449e-3
-1.545, 4.492e-3
-1.546, 4.529e-3
-1.547, 4.560e-3
-1.548, 4.594e-3
-1.549, 4.628e-3
-1.550, 4.665e-3
-1.551, 4.702e-3
-1.552, 4.736e-3
-1.553, 4.767e-3
-1.554, 4.801e-3
-1.555, 4.838e-3
-1.556, 4.881e-3
-1.557, 4.912e-3
-1.558, 4.945e-3
-1.559, 4.982e-3
-1.560, 5.023e-3
-1.561, 5.063e-3
-1.562, 5.103e-3
-1.563, 5.146e-3
-1.564, 5.189e-3
-1.565, 5.241e-3
-1.566, 5.282e-3
-1.567, 5.319e-3
-1.568, 5.356e-3
-1.569, 5.402e-3
-1.570, 5.442e-3
-1.571, 5.482e-3
-1.572, 5.516e-3
-1.573, 5.553e-3
-1.574, 5.590e-3
-1.575, 5.627e-3
-1.576, 5.670e-3
-1.577, 5.716e-3
-1.578, 5.759e-3
-1.579, 5.803e-3
-1.580, 5.852e-3
-1.581, 5.904e-3
-1.582, 5.954e-3
-1.583, 5.994e-3
-1.584, 6.040e-3
-1.585, 6.092e-3
-1.586, 6.142e-3
-1.587, 6.188e-3
-1.588, 6.231e-3
-1.589, 6.274e-3
-1.590, 6.324e-3
-1.591, 6.367e-3
-1.592, 6.410e-3
-1.593, 6.456e-3
-1.594, 6.506e-3
-1.595, 6.558e-3
-1.596, 6.613e-3
-1.597, 6.666e-3
-1.598, 6.718e-3
-1.599, 6.761e-3
-1.600, 6.746e-3
-1.599, 6.657e-3
-1.598, 6.580e-3
-1.597, 6.512e-3
-1.596, 6.447e-3
-1.595, 6.388e-3
-1.594, 6.327e-3
-1.593, 6.268e-3
-1.592, 6.213e-3
-1.591, 6.154e-3
-1.590, 6.089e-3
-1.589, 6.025e-3
-1.588, 5.960e-3
-1.587, 5.895e-3
-1.586, 5.833e-3
-1.585, 5.778e-3
-1.584, 5.722e-3
-1.583, 5.667e-3
-1.582, 5.611e-3
-1.581, 5.553e-3
-1.580, 5.497e-3
-1.579, 5.445e-3
-1.578, 5.386e-3
-1.577, 5.328e-3
-1.576, 5.272e-3
-1.575, 5.217e-3
-1.574, 5.164e-3
-1.573, 5.112e-3
-1.572, 5.056e-3
-1.571, 5.001e-3
-1.570, 4.952e-3
-1.569, 4.902e-3
-1.568, 4.850e-3
-1.567, 4.791e-3
-1.566, 4.742e-3
-1.565, 4.702e-3
-1.564, 4.656e-3
-1.563, 4.603e-3
-1.562, 4.557e-3
-1.561, 4.508e-3
-1.560, 4.461e-3
-1.559, 4.415e-3
-1.558, 4.366e-3
-1.557, 4.317e-3
-1.556, 4.270e-3
-1.555, 4.227e-3
-1.554, 4.181e-3
-1.553, 4.138e-3
-1.552, 4.095e-3
-1.551, 4.054e-3
-1.550, 4.014e-3
-1.549, 3.968e-3
-1.548, 3.928e-3
-1.547, 3.882e-3
-1.546, 3.842e-3
-1.545, 3.799e-3
-1.544, 3.758e-3
-1.543, 3.718e-3
-1.542, 3.675e-3
-1.541, 3.635e-3
-1.540, 3.595e-3
-1.539, 3.561e-3
-1.538, 3.521e-3
-1.537, 3.481e-3
-1.536, 3.447e-3
-1.535, 3.410e-3
-1.534, 3.376e-3
-1.533, 3.339e-3
-1.532, 3.302e-3
-1.531, 3.265e-3
-1.530, 3.231e-3
-1.529, 3.194e-3
-1.528, 3.157e-3
-1.527, 3.120e-3
-1.526, 3.086e-3
-1.525, 3.059e-3
-1.524, 3.025e-3
-1.523, 2.991e-3
-1.522, 2.957e-3
-1.521, 2.929e-3
-1.520, 2.898e-3
-1.519, 2.867e-3
-1.518, 2.834e-3
-1.517, 2.803e-3
-1.516, 2.775e-3
-1.515, 2.747e-3
-1.514, 2.716e-3
-1.513, 2.682e-3
-1.512, 2.655e-3
-1.511, 2.624e-3
-1.510, 2.599e-3
-1.509, 2.568e-3
-1.508, 2.538e-3
-1.507, 2.510e-3
-1.506, 2.482e-3
-1.505, 2.454e-3
-1.504, 2.430e-3
-1.503, 2.405e-3
-1.502, 2.377e-3
-1.501, 2.353e-3
-1.500, 2.328e-3
-1.499, 2.303e-3
-1.498, 2.275e-3
-1.497, 2.248e-3
-1.496, 2.223e-3
-1.495, 2.198e-3
-1.494, 2.171e-3
-1.493, 2.146e-3
-1.492, 2.121e-3
-1.491, 2.100e-3
-1.490, 2.078e-3
-1.489, 2.057e-3
-1.488, 2.035e-3
-1.487, 2.010e-3
-1.486, 1.989e-3
-1.485, 1.964e-3
-1.484, 1.943e-3
-1.483, 1.918e-3
-1.482, 1.896e-3
-1.481, 1.875e-3
-1.480, 1.853e-3
-1.479, 1.832e-3
-1.478, 1.810e-3
-1.477, 1.791e-3
-1.476, 1.770e-3
-1.475, 1.751e-3
-1.474, 1.733e-3
-1.473, 1.711e-3
-1.472, 1.690e-3
-1.471, 1.671e-3
-1.470, 1.653e-3
-1.469, 1.637e-3
-1.468, 1.616e-3
-1.467, 1.597e-3
-1.466, 1.579e-3
-1.465, 1.557e-3
-1.464, 1.542e-3
-1.463, 1.520e-3
-1.462, 1.502e-3
-1.461, 1.486e-3
-1.460, 1.471e-3
-1.459, 1.455e-3
-1.458, 1.437e-3
-1.457, 1.418e-3
-1.456, 1.403e-3
-1.455, 1.384e-3
-1.454, 1.369e-3
-1.453, 1.354e-3
-1.452, 1.335e-3
-1.451, 1.320e-3
-1.450, 1.304e-3
-1.449, 1.289e-3
-1.448, 1.273e-3
-1.447, 1.258e-3
-1.446, 1.243e-3
-1.445, 1.227e-3
-1.444, 1.212e-3
-1.443, 1.196e-3
-1.442, 1.184e-3
-1.441, 1.169e-3
-1.440, 1.156e-3
-1.439, 1.141e-3
-1.438, 1.125e-3
-1.437, 1.110e-3
-1.436, 1.098e-3
-1.435, 1.085e-3
-1.434, 1.073e-3
-1.433, 1.058e-3
-1.432, 1.045e-3
-1.431, 1.030e-3
-1.430, 1.021e-3
-1.429, 1.008e-3
-1.428, 9.929e-4
-1.427, 9.775e-4
-1.426, 9.621e-4
-1.425, 9.528e-4
-1.424, 9.405e-4
-1.423, 9.282e-4
-1.422, 9.158e-4
-1.421, 9.066e-4
-1.420, 8.943e-4
-1.419, 8.819e-4
-1.418, 8.696e-4
-1.417, 8.573e-4
-1.416, 8.449e-4
-1.415, 8.357e-4
-1.414, 8.233e-4
-1.413, 8.110e-4
-1.412, 7.987e-4
-1.411, 7.894e-4
-1.410, 7.771e-4
-1.409, 7.679e-4
-1.408, 7.555e-4
-1.407, 7.432e-4
-1.406, 7.339e-4
-1.405, 7.278e-4
-1.404, 7.185e-4
-1.403, 7.062e-4
-1.402, 6.969e-4
-1.401, 6.846e-4
-1.400, 6.754e-4
-1.399, 6.630e-4
-1.398, 6.507e-4
-1.397, 6.414e-4
-1.396, 6.322e-4
-1.395, 6.260e-4
-1.394, 6.168e-4
-1.393, 6.044e-4
-1.392, 5.983e-4
-1.391, 5.890e-4
-1.390, 5.798e-4
-1.389, 5.705e-4
-1.388, 5.613e-4
-1.387, 5.520e-4
-1.386, 5.459e-4
-1.385, 5.366e-4
-1.384, 5.305e-4
-1.383, 5.212e-4
-1.382, 5.089e-4
-1.381, 5.027e-4
-1.380, 4.935e-4
-1.379, 4.842e-4
-1.378, 4.750e-4
-1.377, 4.657e-4
-1.376, 4.595e-4
-1.375, 4.534e-4
-1.374, 4.472e-4
-1.373, 4.380e-4
-1.372, 4.287e-4
-1.371, 4.225e-4
-1.370, 4.164e-4
-1.369, 4.102e-4
-1.368, 4.010e-4
-1.367, 3.948e-4
-1.366, 3.855e-4
-1.365, 3.825e-4
-1.364, 3.732e-4
-1.363, 3.670e-4
-1.362, 3.578e-4
-1.361, 3.516e-4
-1.360, 3.455e-4
-1.359, 3.393e-4
-1.358, 3.331e-4
-1.357, 3.270e-4
-1.356, 3.208e-4
-1.355, 3.146e-4
-1.354, 3.085e-4
-1.353, 2.992e-4
-1.352, 2.931e-4
-1.351, 2.869e-4
-1.350, 2.838e-4
-1.349, 2.776e-4
-1.348, 2.715e-4
-1.347, 2.653e-4
-1.346, 2.591e-4
-1.345, 2.561e-4
-1.344, 2.499e-4
-1.343, 2.437e-4
-1.342, 2.376e-4
-1.341, 2.314e-4
-1.340, 2.283e-4
-1.339, 2.221e-4
-1.338, 2.160e-4
-1.337, 2.098e-4
-1.336, 2.067e-4
-1.335, 2.036e-4
-1.334, 1.975e-4
-1.333, 1.913e-4
-1.332, 1.882e-4
-1.331, 1.821e-4
-1.330, 1.790e-4
-1.329, 1.728e-4
-1.328, 1.697e-4
-1.327, 1.636e-4
-1.326, 1.574e-4
-1.325, 1.574e-4
-1.324, 1.512e-4
-1.323, 1.451e-4
-1.322, 1.420e-4
-1.321, 1.389e-4
-1.320, 1.358e-4
-1.319, 1.327e-4
-1.318, 1.266e-4
-1.317, 1.235e-4
-1.316, 1.173e-4
-1.315, 1.173e-4
-1.314, 1.142e-4
-1.313, 1.081e-4
-1.312, 1.050e-4
-1.311, 1.019e-4
-1.310, 9.882e-5
-1.309, 9.573e-5
-1.308, 8.957e-5
-1.307, 8.648e-5
-1.306, 8.340e-5
-1.305, 8.032e-5
-1.304, 8.032e-5
-1.303, 7.723e-5
-1.302, 7.107e-5
-1.301, 7.107e-5
-1.300, 6.798e-5
-1.299, 6.490e-5
-1.298, 6.182e-5
-1.297, 5.565e-5
-1.296, 5.565e-5
-1.295, 5.257e-5
-1.294, 4.949e-5
-1.293, 4.640e-5
-1.292, 4.332e-5
-1.291, 4.332e-5
-1.290, 4.024e-5
-1.289, 3.715e-5
-1.288, 3.407e-5
-1.287, 3.099e-5
-1.286, 2.790e-5
-1.285, 2.790e-5
-1.284, 2.482e-5
-1.283, 2.174e-5
-1.282, 2.174e-5
-1.281, 1.865e-5
-1.280, 1.865e-5
-1.279, 1.557e-5
-1.278, 1.249e-5
-1.277, 9.405e-6
-1.276, 6.322e-6
-1.275, 9.405e-6
-1.274, 6.322e-6
-1.273, 3.239e-6
-1.272, 1.559e-7
-1.271, 1.559e-7
-1.270, 1.559e-7
-1.269, -2.927e-6
-1.268, -6.010e-6
-1.267, -9.093e-6
-1.266, -9.093e-6
-1.265, -9.093e-6
-1.264, -9.093e-6
-1.263, -1.218e-5
-1.262, -1.526e-5
-1.261, -1.526e-5
-1.260, -1.526e-5
-1.259, -1.834e-5
-1.258, -2.143e-5
-1.257, -2.143e-5
-1.256, -2.143e-5
-1.255, -2.143e-5
-1.254, -2.451e-5
-1.253, -2.451e-5
-1.252, -2.759e-5
-1.251, -2.759e-5
-1.250, -2.759e-5
-1.249, -2.759e-5
-1.248, -3.068e-5
-1.247, -3.068e-5
-1.246, -3.376e-5
-1.245, -3.068e-5
-1.244, -3.376e-5
-1.243, -3.376e-5
-1.242, -3.684e-5
-1.241, -3.684e-5
-1.240, -3.684e-5
-1.239, -3.992e-5
-1.238, -3.992e-5
-1.237, -3.992e-5
-1.236, -3.992e-5
-1.235, -3.992e-5
-1.234, -3.992e-5
-1.233, -4.301e-5
-1.232, -4.301e-5
-1.231, -4.609e-5
-1.230, -4.301e-5
-1.229, -4.609e-5
-1.228, -4.609e-5
-1.227, -4.609e-5
-1.226, -4.609e-5
-1.225, -4.609e-5
-1.224, -4.609e-5
-1.223, -4.917e-5
-1.222, -4.917e-5
-1.221, -4.917e-5
-1.220, -4.917e-5
-1.219, -5.226e-5
-1.218, -5.226e-5
-1.217, -5.226e-5
-1.216, -5.226e-5
-1.215, -5.226e-5
-1.214, -5.226e-5
-1.213, -5.534e-5
-1.212, -5.534e-5
-1.211, -5.534e-5
-1.210, -5.534e-5
-1.209, -5.534e-5
-1.208, -5.534e-5
-1.207, -5.534e-5
-1.206, -5.534e-5
-1.205, -5.534e-5
-1.204, -5.534e-5
-1.203, -5.534e-5
-1.202, -5.842e-5
-1.201, -5.842e-5
-1.200, -5.534e-5
-1.199, -5.842e-5
-1.198, -5.842e-5
-1.197, -5.842e-5
-1.196, -5.842e-5
-1.195, -5.842e-5
-1.194, -5.842e-5
-1.193, -6.151e-5
-1.192, -6.151e-5
-1.191, -6.151e-5
-1.190, -5.842e-5
-1.189, -6.151e-5
-1.188, -6.151e-5
-1.187, -6.151e-5
-1.186, -6.151e-5
-1.185, -6.151e-5
-1.184, -6.151e-5
-1.183, -6.151e-5
-1.182, -6.459e-5
-1.181, -6.151e-5
-1.180, -6.151e-5
-1.179, -6.151e-5
-1.178, -6.459e-5
-1.177, -6.459e-5
-1.176, -6.459e-5
-1.175, -6.151e-5
-1.174, -6.151e-5
-1.173, -6.151e-5
-1.172, -6.459e-5
-1.171, -6.459e-5
-1.170, -6.459e-5
-1.169, -6.459e-5
-1.168, -6.459e-5
-1.167, -6.459e-5
-1.166, -6.459e-5
-1.165, -6.459e-5
-1.164, -6.459e-5
-1.163, -6.459e-5
-1.162, -6.459e-5
-1.161, -6.459e-5
-1.160, -6.459e-5
-1.159, -6.459e-5
-1.158, -6.459e-5
-1.157, -6.767e-5
-1.156, -6.459e-5
-1.155, -6.151e-5
-1.154, -6.459e-5
-1.153, -6.767e-5
-1.152, -6.459e-5
-1.151, -6.767e-5
-1.150, -6.459e-5
-1.149, -6.459e-5
-1.148, -6.767e-5
-1.147, -6.767e-5
-1.146, -6.767e-5
-1.145, -6.459e-5
-1.144, -6.459e-5
-1.143, -6.459e-5
-1.142, -6.767e-5
-1.141, -6.767e-5
-1.140, -6.459e-5
-1.139, -6.459e-5
-1.138, -6.459e-5
-1.137, -6.767e-5
-1.136, -6.459e-5
-1.135, -6.459e-5
-1.134, -6.767e-5
-1.133, -6.459e-5
-1.132, -6.767e-5
-1.131, -6.767e-5
-1.130, -6.459e-5
-1.129, -6.459e-5
-1.128, -6.767e-5
-1.127, -6.767e-5
-1.126, -6.767e-5
-1.125, -6.459e-5
-1.124, -6.767e-5
-1.123, -6.767e-5
-1.122, -6.767e-5
-1.121, -6.767e-5
-1.120, -6.767e-5
-1.119, -6.767e-5
-1.118, -6.767e-5
-1.117, -6.767e-5
-1.116, -6.767e-5
-1.115, -6.459e-5
-1.114, -6.767e-5
-1.113, -6.767e-5
-1.112, -6.767e-5
-1.111, -6.767e-5
-1.110, -6.767e-5
-1.109, -6.459e-5
-1.108, -6.767e-5
-1.107, -6.767e-5
-1.106, -6.767e-5
-1.105, -6.767e-5
-1.104, -6.767e-5
-1.103, -6.767e-5
-1.102, -6.767e-5
-1.101, -6.767e-5
-1.100, -6.767e-5
-1.099, -6.767e-5
-1.098, -6.767e-5
-1.097, -7.076e-5
-1.096, -6.767e-5
-1.095, -6.767e-5
-1.094, -6.767e-5
-1.093, -6.767e-5
-1.092, -7.076e-5
-1.091, -6.767e-5
-1.090, -6.767e-5
-1.089, -6.767e-5
-1.088, -6.767e-5
-1.087, -7.076e-5
-1.086, -6.767e-5
-1.085, -6.767e-5
-1.084, -6.767e-5
-1.083, -7.076e-5
-1.082, -6.767e-5
-1.081, -7.076e-5
-1.080, -6.767e-5
-1.079, -6.767e-5
-1.078, -7.076e-5
-1.077, -7.076e-5
-1.076, -7.076e-5
-1.075, -6.767e-5
-1.074, -6.767e-5
-1.073, -7.076e-5
-1.072, -7.076e-5
-1.071, -7.076e-5
-1.070, -7.076e-5
-1.069, -6.767e-5
-1.068, -7.076e-5
-1.067, -7.076e-5
-1.066, -7.076e-5
-1.065, -7.076e-5
-1.064, -6.767e-5
-1.063, -7.076e-5
-1.062, -7.076e-5
-1.061, -7.076e-5
-1.060, -7.076e-5
-1.059, -7.076e-5
-1.058, -7.076e-5
-1.057, -7.076e-5
-1.056, -7.076e-5
-1.055, -7.076e-5
-1.054, -7.076e-5
-1.053, -7.076e-5
-1.052, -7.384e-5
-1.051, -7.076e-5
-1.050, -7.076e-5
-1.049, -7.076e-5
-1.048, -7.076e-5
-1.047, -7.076e-5
-1.046, -7.076e-5
-1.045, -7.076e-5
-1.044, -7.076e-5
-1.043, -7.076e-5
-1.042, -7.076e-5
-1.041, -7.076e-5
-1.040, -7.076e-5
-1.039, -7.076e-5
-1.038, -7.384e-5
-1.037, -7.384e-5
-1.036, -7.384e-5
-1.035, -7.076e-5
-1.034, -7.076e-5
-1.033, -7.384e-5
-1.032, -7.384e-5
-1.031, -7.384e-5
-1.030, -7.076e-5
-1.029, -7.076e-5
-1.028, -7.384e-5
-1.027, -7.384e-5
-1.026, -7.384e-5
-1.025, -7.076e-5
-1.024, -7.384e-5
-1.023, -7.384e-5
-1.022, -7.384e-5
-1.021, -7.384e-5
-1.020, -7.384e-5
-1.019, -7.384e-5
-1.018, -7.384e-5
-1.017, -7.692e-5
-1.016, -7.384e-5
-1.015, -7.384e-5
-1.014, -7.384e-5
-1.013, -7.384e-5
-1.012, -7.692e-5
-1.011, -7.692e-5
-1.010, -7.384e-5
-1.009, -7.384e-5
-1.008, -7.692e-5
-1.007, -7.692e-5
-1.006, -7.692e-5
-1.005, -7.692e-5
-1.004, -7.692e-5
-1.003, -7.692e-5
-1.002, -7.692e-5
-1.001, -7.692e-5
