Mar. 8, 2025   21:02:04
Cyclic Voltammetry
File: c:/users/guazh/data/banditlqround7_x0exp169_r20_3/2025-03-03-exp912\exp912-2025-03-08t20_48_34-arkoh\exp912_cv_sr_100mvs_efin_-1600mv.bin
Data Source:  Experiment
Instrument Model:  CHI760E
Header: CV ran at 100 mVs
Note: 

Init E (V) = -1
High E (V) = -1
Low E (V) = -1.6
Final E (V) = -1
Init P/N = N
Scan Rate (V/s) = 0.1
Segment = 3
Sample Interval (V) = 0.001
Quiet Time (sec) = 2
Sensitivity (A/V) = 0.01
Comp R (ohm) = 1.4

Results:

Channel 1:
Segment 1:

Segment 2:

Segment 3:

Potential/V, Current/A

-1.000, 7.171e-6
-1.001, 1.163e-5
-1.002, 1.143e-5
-1.003, 1.210e-5
-1.004, 1.270e-5
-1.005, 1.218e-5
-1.006, 1.330e-5
-1.007, 1.274e-5
-1.008, 1.323e-5
-1.009, 1.344e-5
-1.010, 1.312e-5
-1.011, 1.423e-5
-1.012, 1.343e-5
-1.013, 1.417e-5
-1.014, 1.435e-5
-1.015, 1.391e-5
-1.016, 1.486e-5
-1.017, 1.393e-5
-1.018, 1.477e-5
-1.019, 1.480e-5
-1.020, 1.437e-5
-1.021, 1.536e-5
-1.022, 1.472e-5
-1.023, 1.517e-5
-1.024, 1.542e-5
-1.025, 1.471e-5
-1.026, 1.599e-5
-1.027, 1.504e-5
-1.028, 1.567e-5
-1.029, 1.589e-5
-1.030, 1.520e-5
-1.031, 1.643e-5
-1.032, 1.541e-5
-1.033, 1.605e-5
-1.034, 1.633e-5
-1.035, 1.557e-5
-1.036, 1.661e-5
-1.037, 1.578e-5
-1.038, 1.640e-5
-1.039, 1.667e-5
-1.040, 1.591e-5
-1.041, 1.683e-5
-1.042, 1.637e-5
-1.043, 1.678e-5
-1.044, 1.695e-5
-1.045, 1.636e-5
-1.046, 1.726e-5
-1.047, 1.664e-5
-1.048, 1.712e-5
-1.049, 1.700e-5
-1.050, 1.672e-5
-1.051, 1.761e-5
-1.052, 1.677e-5
-1.053, 1.732e-5
-1.054, 1.743e-5
-1.055, 1.690e-5
-1.056, 1.788e-5
-1.057, 1.703e-5
-1.058, 1.748e-5
-1.059, 1.769e-5
-1.060, 1.718e-5
-1.061, 1.815e-5
-1.062, 1.732e-5
-1.063, 1.795e-5
-1.064, 1.788e-5
-1.065, 1.737e-5
-1.066, 1.854e-5
-1.067, 1.764e-5
-1.068, 1.809e-5
-1.069, 1.834e-5
-1.070, 1.764e-5
-1.071, 1.880e-5
-1.072, 1.771e-5
-1.073, 1.830e-5
-1.074, 1.855e-5
-1.075, 1.788e-5
-1.076, 1.904e-5
-1.077, 1.805e-5
-1.078, 1.876e-5
-1.079, 1.879e-5
-1.080, 1.799e-5
-1.081, 1.923e-5
-1.082, 1.846e-5
-1.083, 1.880e-5
-1.084, 1.901e-5
-1.085, 1.834e-5
-1.086, 1.933e-5
-1.087, 1.867e-5
-1.088, 1.907e-5
-1.089, 1.916e-5
-1.090, 1.863e-5
-1.091, 1.953e-5
-1.092, 1.896e-5
-1.093, 1.932e-5
-1.094, 1.945e-5
-1.095, 1.891e-5
-1.096, 1.969e-5
-1.097, 1.902e-5
-1.098, 1.952e-5
-1.099, 1.957e-5
-1.100, 1.887e-5
-1.101, 2.005e-5
-1.102, 1.920e-5
-1.103, 1.994e-5
-1.104, 1.976e-5
-1.105, 1.931e-5
-1.106, 2.029e-5
-1.107, 1.937e-5
-1.108, 2.001e-5
-1.109, 2.012e-5
-1.110, 1.933e-5
-1.111, 2.054e-5
-1.112, 1.960e-5
-1.113, 2.001e-5
-1.114, 2.041e-5
-1.115, 1.946e-5
-1.116, 2.074e-5
-1.117, 1.992e-5
-1.118, 2.024e-5
-1.119, 2.065e-5
-1.120, 1.982e-5
-1.121, 2.085e-5
-1.122, 1.997e-5
-1.123, 2.046e-5
-1.124, 2.082e-5
-1.125, 2.005e-5
-1.126, 2.106e-5
-1.127, 2.040e-5
-1.128, 2.082e-5
-1.129, 2.104e-5
-1.130, 2.027e-5
-1.131, 2.121e-5
-1.132, 2.052e-5
-1.133, 2.094e-5
-1.134, 2.104e-5
-1.135, 2.058e-5
-1.136, 2.158e-5
-1.137, 2.055e-5
-1.138, 2.115e-5
-1.139, 2.130e-5
-1.140, 2.083e-5
-1.141, 2.199e-5
-1.142, 2.086e-5
-1.143, 2.166e-5
-1.144, 2.166e-5
-1.145, 2.082e-5
-1.146, 2.212e-5
-1.147, 2.124e-5
-1.148, 2.176e-5
-1.149, 2.187e-5
-1.150, 2.130e-5
-1.151, 2.245e-5
-1.152, 2.158e-5
-1.153, 2.214e-5
-1.154, 2.235e-5
-1.155, 2.132e-5
-1.156, 2.279e-5
-1.157, 2.181e-5
-1.158, 2.236e-5
-1.159, 2.275e-5
-1.160, 2.203e-5
-1.161, 2.288e-5
-1.162, 2.248e-5
-1.163, 2.278e-5
-1.164, 2.291e-5
-1.165, 2.249e-5
-1.166, 2.331e-5
-1.167, 2.292e-5
-1.168, 2.320e-5
-1.169, 2.344e-5
-1.170, 2.302e-5
-1.171, 2.390e-5
-1.172, 2.308e-5
-1.173, 2.370e-5
-1.174, 2.391e-5
-1.175, 2.336e-5
-1.176, 2.445e-5
-1.177, 2.378e-5
-1.178, 2.436e-5
-1.179, 2.434e-5
-1.180, 2.394e-5
-1.181, 2.517e-5
-1.182, 2.422e-5
-1.183, 2.498e-5
-1.184, 2.513e-5
-1.185, 2.447e-5
-1.186, 2.577e-5
-1.187, 2.492e-5
-1.188, 2.557e-5
-1.189, 2.591e-5
-1.190, 2.533e-5
-1.191, 2.655e-5
-1.192, 2.567e-5
-1.193, 2.645e-5
-1.194, 2.680e-5
-1.195, 2.609e-5
-1.196, 2.732e-5
-1.197, 2.671e-5
-1.198, 2.723e-5
-1.199, 2.781e-5
-1.200, 2.720e-5
-1.201, 2.834e-5
-1.202, 2.762e-5
-1.203, 2.825e-5
-1.204, 2.875e-5
-1.205, 2.826e-5
-1.206, 2.941e-5
-1.207, 2.895e-5
-1.208, 2.946e-5
-1.209, 2.981e-5
-1.210, 2.951e-5
-1.211, 3.063e-5
-1.212, 3.015e-5
-1.213, 3.099e-5
-1.214, 3.121e-5
-1.215, 3.099e-5
-1.216, 3.221e-5
-1.217, 3.176e-5
-1.218, 3.254e-5
-1.219, 3.285e-5
-1.220, 3.253e-5
-1.221, 3.382e-5
-1.222, 3.334e-5
-1.223, 3.422e-5
-1.224, 3.468e-5
-1.225, 3.414e-5
-1.226, 3.602e-5
-1.227, 3.500e-5
-1.228, 3.637e-5
-1.229, 3.695e-5
-1.230, 3.654e-5
-1.231, 3.813e-5
-1.232, 3.748e-5
-1.233, 3.856e-5
-1.234, 3.920e-5
-1.235, 3.887e-5
-1.236, 4.046e-5
-1.237, 3.998e-5
-1.238, 4.087e-5
-1.239, 4.177e-5
-1.240, 4.142e-5
-1.241, 4.291e-5
-1.242, 4.292e-5
-1.243, 4.371e-5
-1.244, 4.451e-5
-1.245, 4.452e-5
-1.246, 4.601e-5
-1.247, 4.583e-5
-1.248, 4.701e-5
-1.249, 4.762e-5
-1.250, 4.792e-5
-1.251, 4.957e-5
-1.252, 4.934e-5
-1.253, 5.049e-5
-1.254, 5.159e-5
-1.255, 5.152e-5
-1.256, 5.330e-5
-1.257, 5.324e-5
-1.258, 5.480e-5
-1.259, 5.549e-5
-1.260, 5.576e-5
-1.261, 5.789e-5
-1.262, 5.758e-5
-1.263, 5.928e-5
-1.264, 6.012e-5
-1.265, 6.041e-5
-1.266, 6.234e-5
-1.267, 6.251e-5
-1.268, 6.408e-5
-1.269, 6.522e-5
-1.270, 6.562e-5
-1.271, 6.780e-5
-1.272, 6.782e-5
-1.273, 6.959e-5
-1.274, 7.111e-5
-1.275, 7.130e-5
-1.276, 7.346e-5
-1.277, 7.413e-5
-1.278, 7.568e-5
-1.279, 7.727e-5
-1.280, 7.792e-5
-1.281, 8.044e-5
-1.282, 8.089e-5
-1.283, 8.269e-5
-1.284, 8.435e-5
-1.285, 8.516e-5
-1.286, 8.769e-5
-1.287, 8.841e-5
-1.288, 9.050e-5
-1.289, 9.212e-5
-1.290, 9.323e-5
-1.291, 9.562e-5
-1.292, 9.662e-5
-1.293, 9.906e-5
-1.294, 1.009e-4
-1.295, 1.022e-4
-1.296, 1.049e-4
-1.297, 1.057e-4
-1.298, 1.085e-4
-1.299, 1.104e-4
-1.300, 1.118e-4
-1.301, 1.150e-4
-1.302, 1.159e-4
-1.303, 1.187e-4
-1.304, 1.210e-4
-1.305, 1.227e-4
-1.306, 1.261e-4
-1.307, 1.272e-4
-1.308, 1.304e-4
-1.309, 1.327e-4
-1.310, 1.347e-4
-1.311, 1.383e-4
-1.312, 1.400e-4
-1.313, 1.433e-4
-1.314, 1.462e-4
-1.315, 1.482e-4
-1.316, 1.520e-4
-1.317, 1.541e-4
-1.318, 1.577e-4
-1.319, 1.607e-4
-1.320, 1.632e-4
-1.321, 1.673e-4
-1.322, 1.698e-4
-1.323, 1.733e-4
-1.324, 1.770e-4
-1.325, 1.797e-4
-1.326, 1.843e-4
-1.327, 1.870e-4
-1.328, 1.910e-4
-1.329, 1.949e-4
-1.330, 1.984e-4
-1.331, 2.030e-4
-1.332, 2.064e-4
-1.333, 2.108e-4
-1.334, 2.151e-4
-1.335, 2.189e-4
-1.336, 2.237e-4
-1.337, 2.272e-4
-1.338, 2.326e-4
-1.339, 2.372e-4
-1.340, 2.412e-4
-1.341, 2.467e-4
-1.342, 2.508e-4
-1.343, 2.566e-4
-1.344, 2.615e-4
-1.345, 2.662e-4
-1.346, 2.726e-4
-1.347, 2.772e-4
-1.348, 2.834e-4
-1.349, 2.890e-4
-1.350, 2.945e-4
-1.351, 3.012e-4
-1.352, 3.060e-4
-1.353, 3.133e-4
-1.354, 3.197e-4
-1.355, 3.252e-4
-1.356, 3.327e-4
-1.357, 3.388e-4
-1.358, 3.461e-4
-1.359, 3.529e-4
-1.360, 3.597e-4
-1.361, 3.679e-4
-1.362, 3.742e-4
-1.363, 3.822e-4
-1.364, 3.901e-4
-1.365, 3.976e-4
-1.366, 4.059e-4
-1.367, 4.131e-4
-1.368, 4.215e-4
-1.369, 4.297e-4
-1.370, 4.379e-4
-1.371, 4.471e-4
-1.372, 4.558e-4
-1.373, 4.651e-4
-1.374, 4.740e-4
-1.375, 4.824e-4
-1.376, 4.929e-4
-1.377, 5.017e-4
-1.378, 5.119e-4
-1.379, 5.213e-4
-1.380, 5.303e-4
-1.381, 5.415e-4
-1.382, 5.507e-4
-1.383, 5.618e-4
-1.384, 5.718e-4
-1.385, 5.838e-4
-1.386, 5.945e-4
-1.387, 6.033e-4
-1.388, 6.153e-4
-1.389, 6.264e-4
-1.390, 6.375e-4
-1.391, 6.498e-4
-1.392, 6.591e-4
-1.393, 6.718e-4
-1.394, 6.832e-4
-1.395, 6.946e-4
-1.396, 7.081e-4
-1.397, 7.192e-4
-1.398, 7.318e-4
-1.399, 7.433e-4
-1.400, 7.547e-4
-1.401, 7.683e-4
-1.402, 7.799e-4
-1.403, 7.940e-4
-1.404, 8.069e-4
-1.405, 8.196e-4
-1.406, 8.328e-4
-1.407, 8.450e-4
-1.408, 8.594e-4
-1.409, 8.719e-4
-1.410, 8.851e-4
-1.411, 8.985e-4
-1.412, 9.113e-4
-1.413, 9.256e-4
-1.414, 9.381e-4
-1.415, 9.513e-4
-1.416, 9.662e-4
-1.417, 9.794e-4
-1.418, 9.949e-4
-1.419, 1.008e-3
-1.420, 1.022e-3
-1.421, 1.037e-3
-1.422, 1.050e-3
-1.423, 1.066e-3
-1.424, 1.081e-3
-1.425, 1.095e-3
-1.426, 1.110e-3
-1.427, 1.123e-3
-1.428, 1.139e-3
-1.429, 1.154e-3
-1.430, 1.168e-3
-1.431, 1.184e-3
-1.432, 1.199e-3
-1.433, 1.214e-3
-1.434, 1.227e-3
-1.435, 1.242e-3
-1.436, 1.259e-3
-1.437, 1.274e-3
-1.438, 1.291e-3
-1.439, 1.306e-3
-1.440, 1.322e-3
-1.441, 1.340e-3
-1.442, 1.355e-3
-1.443, 1.371e-3
-1.444, 1.388e-3
-1.445, 1.403e-3
-1.446, 1.419e-3
-1.447, 1.434e-3
-1.448, 1.453e-3
-1.449, 1.470e-3
-1.450, 1.488e-3
-1.451, 1.506e-3
-1.452, 1.522e-3
-1.453, 1.539e-3
-1.454, 1.556e-3
-1.455, 1.576e-3
-1.456, 1.597e-3
-1.457, 1.611e-3
-1.458, 1.627e-3
-1.459, 1.645e-3
-1.460, 1.663e-3
-1.461, 1.683e-3
-1.462, 1.701e-3
-1.463, 1.719e-3
-1.464, 1.737e-3
-1.465, 1.755e-3
-1.466, 1.777e-3
-1.467, 1.796e-3
-1.468, 1.815e-3
-1.469, 1.832e-3
-1.470, 1.851e-3
-1.471, 1.873e-3
-1.472, 1.892e-3
-1.473, 1.913e-3
-1.474, 1.933e-3
-1.475, 1.951e-3
-1.476, 1.968e-3
-1.477, 1.989e-3
-1.478, 2.009e-3
-1.479, 2.030e-3
-1.480, 2.051e-3
-1.481, 2.076e-3
-1.482, 2.095e-3
-1.483, 2.115e-3
-1.484, 2.137e-3
-1.485, 2.161e-3
-1.486, 2.183e-3
-1.487, 2.204e-3
-1.488, 2.226e-3
-1.489, 2.247e-3
-1.490, 2.268e-3
-1.491, 2.289e-3
-1.492, 2.310e-3
-1.493, 2.333e-3
-1.494, 2.360e-3
-1.495, 2.379e-3
-1.496, 2.404e-3
-1.497, 2.431e-3
-1.498, 2.454e-3
-1.499, 2.475e-3
-1.500, 2.500e-3
-1.501, 2.524e-3
-1.502, 2.545e-3
-1.503, 2.568e-3
-1.504, 2.593e-3
-1.505, 2.618e-3
-1.506, 2.646e-3
-1.507, 2.674e-3
-1.508, 2.698e-3
-1.509, 2.717e-3
-1.510, 2.740e-3
-1.511, 2.776e-3
-1.512, 2.808e-3
-1.513, 2.828e-3
-1.514, 2.846e-3
-1.515, 2.875e-3
-1.516, 2.909e-3
-1.517, 2.936e-3
-1.518, 2.962e-3
-1.519, 2.983e-3
-1.520, 3.028e-3
-1.521, 3.054e-3
-1.522, 3.076e-3
-1.523, 3.107e-3
-1.524, 3.132e-3
-1.525, 3.164e-3
-1.526, 3.190e-3
-1.527, 3.213e-3
-1.528, 3.241e-3
-1.529, 3.264e-3
-1.530, 3.296e-3
-1.531, 3.329e-3
-1.532, 3.359e-3
-1.533, 3.391e-3
-1.534, 3.424e-3
-1.535, 3.463e-3
-1.536, 3.498e-3
-1.537, 3.525e-3
-1.538, 3.552e-3
-1.539, 3.581e-3
-1.540, 3.617e-3
-1.541, 3.653e-3
-1.542, 3.683e-3
-1.543, 3.712e-3
-1.544, 3.738e-3
-1.545, 3.774e-3
-1.546, 3.811e-3
-1.547, 3.843e-3
-1.548, 3.877e-3
-1.549, 3.914e-3
-1.550, 3.953e-3
-1.551, 3.987e-3
-1.552, 4.017e-3
-1.553, 4.065e-3
-1.554, 4.098e-3
-1.555, 4.145e-3
-1.556, 4.173e-3
-1.557, 4.202e-3
-1.558, 4.243e-3
-1.559, 4.285e-3
-1.560, 4.316e-3
-1.561, 4.352e-3
-1.562, 4.388e-3
-1.563, 4.432e-3
-1.564, 4.471e-3
-1.565, 4.504e-3
-1.566, 4.549e-3
-1.567, 4.581e-3
-1.568, 4.629e-3
-1.569, 4.684e-3
-1.570, 4.729e-3
-1.571, 4.765e-3
-1.572, 4.800e-3
-1.573, 4.857e-3
-1.574, 4.899e-3
-1.575, 4.938e-3
-1.576, 4.993e-3
-1.577, 5.042e-3
-1.578, 5.080e-3
-1.579, 5.108e-3
-1.580, 5.149e-3
-1.581, 5.188e-3
-1.582, 5.221e-3
-1.583, 5.265e-3
-1.584, 5.309e-3
-1.585, 5.357e-3
-1.586, 5.404e-3
-1.587, 5.446e-3
-1.588, 5.485e-3
-1.589, 5.549e-3
-1.590, 5.605e-3
-1.591, 5.672e-3
-1.592, 5.717e-3
-1.593, 5.767e-3
-1.594, 5.811e-3
-1.595, 5.861e-3
-1.596, 5.918e-3
-1.597, 5.973e-3
-1.598, 6.020e-3
-1.599, 6.039e-3
-1.600, 6.031e-3
-1.599, 5.977e-3
-1.598, 5.934e-3
-1.597, 5.886e-3
-1.596, 5.818e-3
-1.595, 5.769e-3
-1.594, 5.709e-3
-1.593, 5.653e-3
-1.592, 5.605e-3
-1.591, 5.529e-3
-1.590, 5.464e-3
-1.589, 5.419e-3
-1.588, 5.370e-3
-1.587, 5.324e-3
-1.586, 5.259e-3
-1.585, 5.187e-3
-1.584, 5.132e-3
-1.583, 5.090e-3
-1.582, 5.051e-3
-1.581, 5.003e-3
-1.580, 4.946e-3
-1.579, 4.888e-3
-1.578, 4.833e-3
-1.577, 4.787e-3
-1.576, 4.734e-3
-1.575, 4.685e-3
-1.574, 4.637e-3
-1.573, 4.584e-3
-1.572, 4.536e-3
-1.571, 4.487e-3
-1.570, 4.446e-3
-1.569, 4.404e-3
-1.568, 4.364e-3
-1.567, 4.318e-3
-1.566, 4.264e-3
-1.565, 4.224e-3
-1.564, 4.186e-3
-1.563, 4.144e-3
-1.562, 4.097e-3
-1.561, 4.051e-3
-1.560, 4.002e-3
-1.559, 3.955e-3
-1.558, 3.919e-3
-1.557, 3.877e-3
-1.556, 3.834e-3
-1.555, 3.796e-3
-1.554, 3.759e-3
-1.553, 3.717e-3
-1.552, 3.688e-3
-1.551, 3.648e-3
-1.550, 3.606e-3
-1.549, 3.556e-3
-1.548, 3.515e-3
-1.547, 3.482e-3
-1.546, 3.442e-3
-1.545, 3.410e-3
-1.544, 3.374e-3
-1.543, 3.333e-3
-1.542, 3.297e-3
-1.541, 3.262e-3
-1.540, 3.228e-3
-1.539, 3.193e-3
-1.538, 3.155e-3
-1.537, 3.123e-3
-1.536, 3.092e-3
-1.535, 3.055e-3
-1.534, 3.023e-3
-1.533, 2.990e-3
-1.532, 2.962e-3
-1.531, 2.929e-3
-1.530, 2.897e-3
-1.529, 2.866e-3
-1.528, 2.837e-3
-1.527, 2.803e-3
-1.526, 2.771e-3
-1.525, 2.737e-3
-1.524, 2.706e-3
-1.523, 2.680e-3
-1.522, 2.653e-3
-1.521, 2.622e-3
-1.520, 2.591e-3
-1.519, 2.567e-3
-1.518, 2.539e-3
-1.517, 2.509e-3
-1.516, 2.479e-3
-1.515, 2.454e-3
-1.514, 2.430e-3
-1.513, 2.401e-3
-1.512, 2.375e-3
-1.511, 2.351e-3
-1.510, 2.323e-3
-1.509, 2.303e-3
-1.508, 2.269e-3
-1.507, 2.246e-3
-1.506, 2.221e-3
-1.505, 2.194e-3
-1.504, 2.167e-3
-1.503, 2.139e-3
-1.502, 2.115e-3
-1.501, 2.088e-3
-1.500, 2.068e-3
-1.499, 2.045e-3
-1.498, 2.020e-3
-1.497, 1.996e-3
-1.496, 1.974e-3
-1.495, 1.951e-3
-1.494, 1.931e-3
-1.493, 1.909e-3
-1.492, 1.887e-3
-1.491, 1.865e-3
-1.490, 1.843e-3
-1.489, 1.822e-3
-1.488, 1.804e-3
-1.487, 1.783e-3
-1.486, 1.760e-3
-1.485, 1.739e-3
-1.484, 1.718e-3
-1.483, 1.700e-3
-1.482, 1.681e-3
-1.481, 1.661e-3
-1.480, 1.639e-3
-1.479, 1.619e-3
-1.478, 1.597e-3
-1.477, 1.581e-3
-1.476, 1.562e-3
-1.475, 1.541e-3
-1.474, 1.524e-3
-1.473, 1.505e-3
-1.472, 1.487e-3
-1.471, 1.468e-3
-1.470, 1.451e-3
-1.469, 1.435e-3
-1.468, 1.417e-3
-1.467, 1.401e-3
-1.466, 1.385e-3
-1.465, 1.367e-3
-1.464, 1.350e-3
-1.463, 1.331e-3
-1.462, 1.315e-3
-1.461, 1.300e-3
-1.460, 1.283e-3
-1.459, 1.268e-3
-1.458, 1.251e-3
-1.457, 1.236e-3
-1.456, 1.219e-3
-1.455, 1.205e-3
-1.454, 1.192e-3
-1.453, 1.176e-3
-1.452, 1.162e-3
-1.451, 1.145e-3
-1.450, 1.131e-3
-1.449, 1.118e-3
-1.448, 1.102e-3
-1.447, 1.088e-3
-1.446, 1.074e-3
-1.445, 1.059e-3
-1.444, 1.046e-3
-1.443, 1.030e-3
-1.442, 1.018e-3
-1.441, 1.004e-3
-1.440, 9.913e-4
-1.439, 9.785e-4
-1.438, 9.637e-4
-1.437, 9.518e-4
-1.436, 9.382e-4
-1.435, 9.262e-4
-1.434, 9.141e-4
-1.433, 9.000e-4
-1.432, 8.887e-4
-1.431, 8.770e-4
-1.430, 8.639e-4
-1.429, 8.525e-4
-1.428, 8.413e-4
-1.427, 8.305e-4
-1.426, 8.169e-4
-1.425, 8.046e-4
-1.424, 7.939e-4
-1.423, 7.819e-4
-1.422, 7.712e-4
-1.421, 7.602e-4
-1.420, 7.480e-4
-1.419, 7.376e-4
-1.418, 7.269e-4
-1.417, 7.172e-4
-1.416, 7.060e-4
-1.415, 6.948e-4
-1.414, 6.843e-4
-1.413, 6.742e-4
-1.412, 6.646e-4
-1.411, 6.545e-4
-1.410, 6.435e-4
-1.409, 6.345e-4
-1.408, 6.240e-4
-1.407, 6.150e-4
-1.406, 6.048e-4
-1.405, 5.947e-4
-1.404, 5.866e-4
-1.403, 5.766e-4
-1.402, 5.679e-4
-1.401, 5.583e-4
-1.400, 5.484e-4
-1.399, 5.408e-4
-1.398, 5.308e-4
-1.397, 5.226e-4
-1.396, 5.138e-4
-1.395, 5.045e-4
-1.394, 4.969e-4
-1.393, 4.873e-4
-1.392, 4.797e-4
-1.391, 4.717e-4
-1.390, 4.633e-4
-1.389, 4.563e-4
-1.388, 4.470e-4
-1.387, 4.395e-4
-1.386, 4.318e-4
-1.385, 4.235e-4
-1.384, 4.173e-4
-1.383, 4.087e-4
-1.382, 4.013e-4
-1.381, 3.944e-4
-1.380, 3.871e-4
-1.379, 3.802e-4
-1.378, 3.721e-4
-1.377, 3.661e-4
-1.376, 3.593e-4
-1.375, 3.517e-4
-1.374, 3.457e-4
-1.373, 3.383e-4
-1.372, 3.321e-4
-1.371, 3.256e-4
-1.370, 3.189e-4
-1.369, 3.131e-4
-1.368, 3.060e-4
-1.367, 3.006e-4
-1.366, 2.944e-4
-1.365, 2.878e-4
-1.364, 2.829e-4
-1.363, 2.761e-4
-1.362, 2.709e-4
-1.361, 2.652e-4
-1.360, 2.592e-4
-1.359, 2.546e-4
-1.358, 2.482e-4
-1.357, 2.434e-4
-1.356, 2.383e-4
-1.355, 2.323e-4
-1.354, 2.283e-4
-1.353, 2.223e-4
-1.352, 2.180e-4
-1.351, 2.135e-4
-1.350, 2.081e-4
-1.349, 2.044e-4
-1.348, 1.985e-4
-1.347, 1.946e-4
-1.346, 1.902e-4
-1.345, 1.851e-4
-1.344, 1.818e-4
-1.343, 1.766e-4
-1.342, 1.730e-4
-1.341, 1.690e-4
-1.340, 1.643e-4
-1.339, 1.610e-4
-1.338, 1.564e-4
-1.337, 1.530e-4
-1.336, 1.492e-4
-1.335, 1.449e-4
-1.334, 1.422e-4
-1.333, 1.377e-4
-1.332, 1.347e-4
-1.331, 1.312e-4
-1.330, 1.273e-4
-1.329, 1.247e-4
-1.328, 1.208e-4
-1.327, 1.182e-4
-1.326, 1.148e-4
-1.325, 1.114e-4
-1.324, 1.095e-4
-1.323, 1.053e-4
-1.322, 1.031e-4
-1.321, 1.004e-4
-1.320, 9.708e-5
-1.319, 9.514e-5
-1.318, 9.128e-5
-1.317, 8.936e-5
-1.316, 8.676e-5
-1.315, 8.356e-5
-1.314, 8.221e-5
-1.313, 7.879e-5
-1.312, 7.699e-5
-1.311, 7.476e-5
-1.310, 7.180e-5
-1.309, 7.064e-5
-1.308, 6.762e-5
-1.307, 6.587e-5
-1.306, 6.381e-5
-1.305, 6.107e-5
-1.304, 6.002e-5
-1.303, 5.716e-5
-1.302, 5.580e-5
-1.301, 5.417e-5
-1.300, 5.177e-5
-1.299, 5.065e-5
-1.298, 4.816e-5
-1.297, 4.680e-5
-1.296, 4.514e-5
-1.295, 4.293e-5
-1.294, 4.219e-5
-1.293, 3.978e-5
-1.292, 3.883e-5
-1.291, 3.725e-5
-1.290, 3.518e-5
-1.289, 3.445e-5
-1.288, 3.238e-5
-1.287, 3.150e-5
-1.286, 2.998e-5
-1.285, 2.819e-5
-1.284, 2.790e-5
-1.283, 2.557e-5
-1.282, 2.502e-5
-1.281, 2.365e-5
-1.280, 2.175e-5
-1.279, 2.157e-5
-1.278, 1.958e-5
-1.277, 1.905e-5
-1.276, 1.801e-5
-1.275, 1.624e-5
-1.274, 1.635e-5
-1.273, 1.411e-5
-1.272, 1.398e-5
-1.271, 1.299e-5
-1.270, 1.124e-5
-1.269, 1.159e-5
-1.268, 9.765e-6
-1.267, 9.233e-6
-1.266, 8.690e-6
-1.265, 6.993e-6
-1.264, 7.348e-6
-1.263, 5.553e-6
-1.262, 5.109e-6
-1.261, 4.803e-6
-1.260, 3.372e-6
-1.259, 3.431e-6
-1.258, 1.882e-6
-1.257, 1.764e-6
-1.256, 1.123e-6
-1.255, -4.144e-8
-1.254, -4.144e-8
-1.253, -1.156e-6
-1.252, -1.482e-6
-1.251, -1.867e-6
-1.250, -2.962e-6
-1.249, -2.636e-6
-1.248, -4.165e-6
-1.247, -4.067e-6
-1.246, -4.659e-6
-1.245, -5.675e-6
-1.244, -5.191e-6
-1.243, -6.661e-6
-1.242, -6.444e-6
-1.241, -7.115e-6
-1.240, -8.023e-6
-1.239, -7.589e-6
-1.238, -8.881e-6
-1.237, -8.625e-6
-1.236, -9.148e-6
-1.235, -1.017e-5
-1.234, -9.542e-6
-1.233, -1.080e-5
-1.232, -1.065e-5
-1.231, -1.095e-5
-1.230, -1.201e-5
-1.229, -1.156e-5
-1.228, -1.258e-5
-1.227, -1.258e-5
-1.226, -1.267e-5
-1.225, -1.376e-5
-1.224, -1.278e-5
-1.223, -1.417e-5
-1.222, -1.412e-5
-1.221, -1.410e-5
-1.220, -1.495e-5
-1.219, -1.436e-5
-1.218, -1.545e-5
-1.217, -1.527e-5
-1.216, -1.544e-5
-1.215, -1.630e-5
-1.214, -1.579e-5
-1.213, -1.650e-5
-1.212, -1.646e-5
-1.211, -1.656e-5
-1.210, -1.725e-5
-1.209, -1.677e-5
-1.208, -1.763e-5
-1.207, -1.726e-5
-1.206, -1.764e-5
-1.205, -1.840e-5
-1.204, -1.757e-5
-1.203, -1.877e-5
-1.202, -1.827e-5
-1.201, -1.857e-5
-1.200, -1.921e-5
-1.199, -1.842e-5
-1.198, -1.955e-5
-1.197, -1.899e-5
-1.196, -1.920e-5
-1.195, -2.002e-5
-1.194, -1.901e-5
-1.193, -2.030e-5
-1.192, -1.965e-5
-1.191, -1.980e-5
-1.190, -2.068e-5
-1.189, -1.979e-5
-1.188, -2.077e-5
-1.187, -2.045e-5
-1.186, -2.044e-5
-1.185, -2.126e-5
-1.184, -2.032e-5
-1.183, -2.134e-5
-1.182, -2.105e-5
-1.181, -2.096e-5
-1.180, -2.165e-5
-1.179, -2.102e-5
-1.178, -2.206e-5
-1.177, -2.155e-5
-1.176, -2.146e-5
-1.175, -2.198e-5
-1.174, -2.156e-5
-1.173, -2.237e-5
-1.172, -2.183e-5
-1.171, -2.204e-5
-1.170, -2.262e-5
-1.169, -2.192e-5
-1.168, -2.259e-5
-1.167, -2.222e-5
-1.166, -2.248e-5
-1.165, -2.299e-5
-1.164, -2.214e-5
-1.163, -2.332e-5
-1.162, -2.261e-5
-1.161, -2.284e-5
-1.160, -2.335e-5
-1.159, -2.252e-5
-1.158, -2.366e-5
-1.157, -2.306e-5
-1.156, -2.315e-5
-1.155, -2.407e-5
-1.154, -2.316e-5
-1.153, -2.399e-5
-1.152, -2.361e-5
-1.151, -2.355e-5
-1.150, -2.438e-5
-1.149, -2.333e-5
-1.148, -2.423e-5
-1.147, -2.393e-5
-1.146, -2.381e-5
-1.145, -2.459e-5
-1.144, -2.356e-5
-1.143, -2.452e-5
-1.142, -2.421e-5
-1.141, -2.413e-5
-1.140, -2.477e-5
-1.139, -2.376e-5
-1.138, -2.473e-5
-1.137, -2.437e-5
-1.136, -2.419e-5
-1.135, -2.495e-5
-1.134, -2.419e-5
-1.133, -2.484e-5
-1.132, -2.456e-5
-1.131, -2.439e-5
-1.130, -2.523e-5
-1.129, -2.442e-5
-1.128, -2.519e-5
-1.127, -2.461e-5
-1.126, -2.485e-5
-1.125, -2.536e-5
-1.124, -2.460e-5
-1.123, -2.554e-5
-1.122, -2.501e-5
-1.121, -2.522e-5
-1.120, -2.558e-5
-1.119, -2.480e-5
-1.118, -2.579e-5
-1.117, -2.512e-5
-1.116, -2.522e-5
-1.115, -2.596e-5
-1.114, -2.511e-5
-1.113, -2.612e-5
-1.112, -2.560e-5
-1.111, -2.542e-5
-1.110, -2.629e-5
-1.109, -2.519e-5
-1.108, -2.608e-5
-1.107, -2.586e-5
-1.106, -2.584e-5
-1.105, -2.629e-5
-1.104, -2.548e-5
-1.103, -2.634e-5
-1.102, -2.600e-5
-1.101, -2.607e-5
-1.100, -2.651e-5
-1.099, -2.589e-5
-1.098, -2.679e-5
-1.097, -2.632e-5
-1.096, -2.615e-5
-1.095, -2.694e-5
-1.094, -2.610e-5
-1.093, -2.701e-5
-1.092, -2.644e-5
-1.091, -2.655e-5
-1.090, -2.707e-5
-1.089, -2.635e-5
-1.088, -2.705e-5
-1.087, -2.666e-5
-1.086, -2.689e-5
-1.085, -2.739e-5
-1.084, -2.653e-5
-1.083, -2.753e-5
-1.082, -2.700e-5
-1.081, -2.717e-5
-1.080, -2.753e-5
-1.079, -2.678e-5
-1.078, -2.789e-5
-1.077, -2.721e-5
-1.076, -2.737e-5
-1.075, -2.804e-5
-1.074, -2.720e-5
-1.073, -2.826e-5
-1.072, -2.747e-5
-1.071, -2.759e-5
-1.070, -2.837e-5
-1.069, -2.730e-5
-1.068, -2.831e-5
-1.067, -2.798e-5
-1.066, -2.799e-5
-1.065, -2.863e-5
-1.064, -2.763e-5
-1.063, -2.852e-5
-1.062, -2.848e-5
-1.061, -2.809e-5
-1.060, -2.892e-5
-1.059, -2.819e-5
-1.058, -2.911e-5
-1.057, -2.857e-5
-1.056, -2.844e-5
-1.055, -2.919e-5
-1.054, -2.849e-5
-1.053, -2.925e-5
-1.052, -2.879e-5
-1.051, -2.890e-5
-1.050, -2.958e-5
-1.049, -2.885e-5
-1.048, -2.971e-5
-1.047, -2.899e-5
-1.046, -2.938e-5
-1.045, -2.974e-5
-1.044, -2.895e-5
-1.043, -3.020e-5
-1.042, -2.927e-5
-1.041, -2.962e-5
-1.040, -3.019e-5
-1.039, -2.923e-5
-1.038, -3.046e-5
-1.037, -2.983e-5
-1.036, -2.979e-5
-1.035, -3.082e-5
-1.034, -2.976e-5
-1.033, -3.069e-5
-1.032, -3.023e-5
-1.031, -3.022e-5
-1.030, -3.113e-5
-1.029, -3.010e-5
-1.028, -3.109e-5
-1.027, -3.065e-5
-1.026, -3.055e-5
-1.025, -3.147e-5
-1.024, -3.068e-5
-1.023, -3.164e-5
-1.022, -3.117e-5
-1.021, -3.113e-5
-1.020, -3.181e-5
-1.019, -3.110e-5
-1.018, -3.209e-5
-1.017, -3.157e-5
-1.016, -3.157e-5
-1.015, -3.229e-5
-1.014, -3.153e-5
-1.013, -3.236e-5
-1.012, -3.201e-5
-1.011, -3.211e-5
-1.010, -3.267e-5
-1.009, -3.218e-5
-1.008, -3.295e-5
-1.007, -3.245e-5
-1.006, -3.269e-5
-1.005, -3.328e-5
-1.004, -3.239e-5
-1.003, -3.363e-5
-1.002, -3.297e-5
-1.001, -3.334e-5
