Potential V vs RHE, Current mA cm-2
0.013299999999999867,-0.26384365742482935
0.012299999999999978,-4.712403339850438
0.011299999999999866,-8.68208324727173
0.010299999999999976,-12.520195003805576
0.009299999999999864,-16.056973253468165
0.008299999999999974,-19.367397695152352
0.007299999999999862,-22.63538079784059
0.006299999999999972,-25.81848122253692
0.00529999999999986,-28.8742576302454
0.0042999999999999705,-31.930034037953877
0.0032999999999998586,-34.8018979766799
0.0022999999999999687,-37.645467689408626
0.0012999999999998568,-40.3900076111468
0.00029999999999996696,-42.92234083790521
-0.000700000000000145,-45.45467406466363
-0.0017000000000000348,-47.71821214444768
-0.0027000000000001467,-49.89686754623985
-0.0037000000000000366,-52.033081609036046
-0.0047000000000001485,-53.9570889768525
-0.005700000000000038,-55.9235376836649
-0.00670000000000015,-57.93242772947325
-0.00770000000000004,-59.757405306299155
-0.008700000000000152,-61.63897133511965
-0.009700000000000042,-63.421507572949594
-0.010700000000000154,-65.2464851497755
-0.011700000000000044,-67.08560983960004
-0.012700000000000156,-68.74082206044213
-0.013700000000000045,-70.39603428128423
-0.014700000000000157,-71.8814811461425
-0.015700000000000047,-73.23960399401295
-0.01670000000000016,-74.66846240687663
-0.01770000000000005,-75.94170257675518
-0.01870000000000016,-77.11591295564315
-0.01970000000000005,-78.38915312552167
-0.020700000000000163,-79.60580484340561
-0.021700000000000053,-80.9497805782774
-0.022700000000000164,-82.22302074815593
-0.023700000000000054,-83.43967246603985
-0.024700000000000166,-84.6563241839238
-0.025700000000000056,-85.80224033681448
-0.026700000000000168,-86.89156803771054
-0.027700000000000058,-87.93845439961068
-0.02870000000000017,-88.8438696315243
-0.02970000000000006,-89.80587331543254
-0.03070000000000017,-90.6405529823529
-0.03170000000000006,-91.41864419727867
-0.03270000000000017,-92.29576520319499
-0.03370000000000006,-93.08800353111941
-0.034700000000000175,-93.95097742403709
-0.035700000000000065,-94.8280984299534
-0.03670000000000018,-95.60618964487918
-0.03770000000000007,-96.3984279728036
-0.03870000000000018,-97.31799031771587
-0.03970000000000007,-98.05364019364569
-0.04070000000000018,-98.83173140857146
-0.04170000000000007,-99.49664571950804
-0.04270000000000018,-100.06253023945405
-0.04370000000000007,-100.670856098396
-0.044700000000000184,-101.19429927934607
-0.045700000000000074,-101.76018379929208
-0.046700000000000186,-102.28362698024215
-0.047700000000000076,-102.80707016119221
-0.04870000000000019,-103.41539602013418
-0.04970000000000008,-104.12275167006669
-0.05070000000000019,-104.73107752900866
-0.05170000000000008,-105.46672740493848
-0.05270000000000019,-106.07505326388046
-0.05370000000000008,-106.59849644483052
-0.05470000000000019,-107.12193962578058
-0.05570000000000008,-107.56050012873874
-0.056700000000000195,-108.04150197069285
-0.057700000000000085,-108.39517979565912
-0.058700000000000196,-108.73471050762672
-0.059700000000000086,-109.17327101058488
-0.0607000000000002,-109.4845074965552
-0.06170000000000009,-110.00795067750525
-0.0627000000000002,-110.57383519745127
-0.06370000000000009,-111.01239570040943
-0.0647000000000002,-111.57828022035544
-0.06570000000000009,-112.10172340130552
-0.0667000000000002,-112.48369545226906
-0.0677000000000001,-112.96469729422319
-0.0687000000000002,-113.31837511918944
-0.0697000000000001,-113.62961160515974
-0.07070000000000021,-113.84181830013951
-0.0717000000000001,-113.92670097813141
-0.07270000000000021,-114.23793746410173
-0.0737000000000001,-114.45014415908147
-0.07470000000000021,-114.76138064505177
-0.0757000000000001,-115.15749980901398
-0.07670000000000021,-115.4970305209816
-0.0777000000000001,-115.8931496849438
-0.07870000000000021,-116.41659286589388
-0.0797000000000001,-116.77027069086012
-0.08070000000000022,-117.15224274182368
-0.0817000000000001,-117.33615521080614
-0.08270000000000022,-117.46347922779398
-0.08370000000000011,-117.63324458377778
-0.08470000000000022,-117.77471571376431
-0.08570000000000011,-117.85959839175621
-0.08670000000000022,-118.02936374774
-0.08770000000000011,-118.15668776472786
-0.08870000000000022,-118.46792425069816
-0.08970000000000011,-118.72257228467387
-0.09070000000000022,-119.07625010964013
-0.09170000000000011,-119.47236927360234
-0.09270000000000023,-119.769458646574
-0.09370000000000012,-120.03825379354835
-0.09470000000000023,-120.29290182752408
-0.09570000000000012,-120.43437295751058
-0.09670000000000023,-120.60413831349437
-0.09770000000000012,-120.73146233048222
-0.09870000000000023,-120.73146233048222
-0.09970000000000012,-120.95781613846064
-0.10070000000000023,-121.0851401554485
-0.10170000000000012,-121.29734685042824
-0.10270000000000024,-121.56614199740261
-0.10370000000000013,-121.77834869238235
-0.10470000000000024,-122.08958517835266
-0.10570000000000013,-122.34423321232836
-0.10670000000000024,-122.52814568131083
-0.10770000000000013,-122.78279371528653
-0.10870000000000024,-122.82523505428249
-0.10970000000000013,-123.00914752326493
-0.11070000000000024,-123.1364715402528
-0.11170000000000013,-123.17891287924873
-0.11270000000000002,-123.34867823523254
-0.11370000000000013,-123.4760022522204
-0.11470000000000002,-123.532590704215
-0.11570000000000014,-123.70235606019881
-0.11670000000000003,-123.82968007718667
-0.11770000000000014,-124.05603388516508
-0.11870000000000003,-124.39556459713268
-0.11970000000000014,-124.57947706611512
-0.12070000000000003,-124.83412510009084
-0.12170000000000014,-124.9614491170787
-0.12270000000000003,-125.04633179507057
-0.12370000000000014,-125.18780292505707
-0.12470000000000003,-125.23024426405304
-0.12570000000000014,-125.23024426405304
-0.12670000000000003,-125.40000962003687
-0.12770000000000015,-125.48489229802875
-0.12870000000000004,-125.71124610600715
-0.12970000000000015,-125.88101146199097
-0.13070000000000004,-126.00833547897882
-0.13170000000000015,-126.3195719649491
-0.13270000000000004,-126.48933732093293
-0.13370000000000015,-126.71569112891132
-0.13470000000000004,-126.9278978238911
-0.13570000000000015,-126.97033916288706
-0.13670000000000004,-127.14010451887084
-0.13770000000000016,-127.23913430986138
-0.13870000000000005,-127.28157564885734
-0.13970000000000016,-127.45134100484115
-0.14070000000000005,-127.4937823438371
-0.14170000000000016,-127.72013615181551
-0.14270000000000005,-127.93234284679528
-0.14370000000000016,-128.05966686378312
-0.14470000000000005,-128.32846201075745
-0.14570000000000016,-128.5831100447332
-0.14670000000000005,-128.66799272272507
-0.14770000000000016,-128.85190519170752
-0.14870000000000005,-128.89434653070347
-0.14970000000000017,-128.93678786969946
-0.15070000000000006,-128.9792292086954
-0.15170000000000017,-128.93678786969946
-0.15270000000000006,-129.02167054769134
-0.15370000000000017,-129.1489945646792
-0.15470000000000006,-129.2338772426711
-0.15570000000000017,-129.4602310506495
-0.15670000000000006,-129.58755506763737
-0.15770000000000017,-129.8563502146117
-0.15870000000000006,-130.11099824858744
-0.15970000000000018,-130.28076360457123
-0.16070000000000007,-130.50711741254963
-0.16170000000000018,-130.5495587515456
-0.16270000000000007,-130.5495587515456
-0.16370000000000018,-130.63444142953747
-0.16470000000000007,-130.63444142953747
-0.16570000000000018,-130.7193241075294
-0.16670000000000007,-130.84664812451723
-0.16770000000000018,-130.98811925450374
-0.16870000000000007,-131.24276728847948
-0.16970000000000018,-131.4266797574619
-0.17070000000000007,-131.63888645244168
-0.17170000000000019,-131.95012293841197
-0.17270000000000008,-132.03500561640385
-0.1737000000000002,-132.16232963339172
-0.17470000000000008,-132.24721231138363
-0.1757000000000002,-132.2896536503796
-0.17670000000000008,-132.47356611936203
-0.1777000000000002,-132.55844879735392
-0.17870000000000008,-132.60089013634988
-0.1797000000000002,-132.89797950932152
-0.18070000000000008,-132.99700930031207
-0.1817000000000002,-133.08189197830401
-0.18270000000000008,-133.29409867328377
-0.1837000000000002,-133.46386402926754
-0.1847000000000001,-133.77510051523788
-0.1857000000000002,-134.04389566221224
-0.1867000000000001,-134.29854369618792
-0.1877000000000002,-134.6097801821582
-0.1887000000000001,-134.69466286015015
-0.1897000000000002,-134.77954553814206
-0.1907000000000001,-134.82198687713802
-0.1917000000000001,-134.82198687713802
-0.19269999999999998,-134.9068695551299
-0.1937000000000001,-134.9068695551299
-0.19469999999999998,-135.09078202411234
-0.1957000000000001,-135.43031273607997
-0.19669999999999999,-135.74154922205025
-0.1977000000000001,-136.03863859502192
-0.1987,-136.562081775972
-0.1997000000000001,-136.7884355839504
-0.2007,-137.22699608690854
-0.2017000000000001,-137.31187876490046
-0.2027,-137.3543201038964
-0.2037000000000001,-137.43920278188833
-0.2047,-137.48164412088425
-0.2057000000000001,-137.6089681378721
-0.2067,-137.79288060685457
-0.2077000000000001,-137.9626459628384
-0.2087,-138.3163237878046
-0.2097000000000001,-138.65585449977226
-0.2107,-139.0095323247385
-0.2117000000000001,-139.44809282769666
-0.2127,-139.70274086167237
-0.2137000000000001,-140.01397734764268
-0.2147,-140.22618404262244
-0.2157000000000001,-140.45253785060083
-0.2167,-140.5798618675887
-0.21770000000000012,-140.70718588457655
-0.2187,-140.74962722357247
-0.21970000000000012,-140.9759810315509
-0.2207,-141.10330504853877
-0.22170000000000012,-141.47112998650366
-0.2227,-141.89554337646317
-0.22370000000000012,-142.17848563643616
-0.2247,-142.6028990263957
-0.22570000000000012,-142.8858412863687
-0.2267,-143.16878354634173
-0.22770000000000012,-143.4517258063147
-0.22870000000000001,-143.73466806628772
-0.22970000000000013,-144.01761032626072
-0.23070000000000002,-144.15908145624724
-0.23170000000000013,-144.30055258623375
-0.23270000000000002,-144.58349484620675
-0.23370000000000013,-144.86643710617977
-0.23470000000000002,-145.29085049613926
-0.23570000000000013,-145.7152638860988
-0.23670000000000002,-145.9982061460718
-0.2376999999999999,-146.4226195360313
-0.23870000000000002,-146.9885040559773
-0.2396999999999999,-147.27144631595033
-0.24070000000000003,-147.83733083589632
-0.24169999999999991,-148.26174422585584
-0.24270000000000003,-148.54468648582886
-0.24369999999999992,-148.96909987578834
-0.24470000000000003,-149.1105710057749
-0.24569999999999992,-149.39351326574788
-0.24670000000000003,-149.6764555257209
-0.24769999999999992,-149.8179266557074
-0.24870000000000003,-150.24234004566688
-0.24969999999999992,-150.5252823056399
-0.25070000000000003,-151.09116682558593
-0.2516999999999999,-151.7985224755184
-0.25270000000000004,-152.22293586547795
-0.2536999999999999,-152.78882038542397
-0.25470000000000004,-153.35470490536997
-0.2556999999999999,-153.77911829532948
-0.25670000000000004,-154.203531685289
-0.25769999999999993,-154.6279450752485
-0.25870000000000004,-155.05235846520802
-0.25969999999999993,-155.47677185516753
-0.26070000000000004,-155.90118524512707
-0.26169999999999993,-156.46706976507306
-0.26270000000000004,-156.89148315503257
-0.26369999999999993,-157.45736767497857
-0.26470000000000005,-158.1647233249111
-0.26569999999999994,-158.73060784485713
-0.26670000000000005,-159.43796349478964
-0.26769999999999994,-160.14531914472215
-0.26870000000000005,-160.5697325346817
-0.26969999999999994,-161.1356170546277
-0.27070000000000005,-161.70150157457368
-0.27169999999999994,-162.12591496453322
-0.27270000000000005,-162.6917994844792
-0.27369999999999994,-163.25768400442522
-0.27470000000000006,-163.96503965435775
-0.27569999999999995,-164.67239530429026
-0.27670000000000006,-165.3797509542228
-0.27769999999999995,-166.0871066041553
-0.27870000000000006,-166.79446225408785
-0.27969999999999995,-167.50181790402033
-0.28070000000000006,-168.06770242396635
-0.28169999999999995,-168.63358694391238
-0.28270000000000006,-169.3409425938449
-0.28369999999999995,-170.0482982437774
-0.28470000000000006,-170.61418276372342
-0.28569999999999995,-171.32153841365593
-0.28670000000000007,-172.17036519357498
-0.28769999999999996,-172.87772084350746
-0.28870000000000007,-173.72654762342648
-0.28969999999999996,-174.57537440334553
-0.29070000000000007,-175.42420118326456
-0.29169999999999996,-176.4144990931701
-0.29270000000000007,-177.1218547431026
-0.29369999999999996,-177.82921039303508
-0.2947000000000001,-178.67803717295413
-0.29569999999999996,-179.38539282288664
-0.2967000000000001,-180.23421960280567
-0.29769999999999996,-181.08304638272472
-0.2987000000000001,-181.93187316264374
-0.29969999999999997,-182.92217107254925
-0.3007000000000001,-183.77099785246824
-0.30169999999999997,-184.7612957623738
-0.3027000000000001,-185.7515936722793
-0.30369999999999997,-186.74189158218485
-0.3047000000000001,-187.87366062207687
-0.30569999999999997,-189.0054296619689
-0.3067000000000001,-190.13719870186094
-0.3077,-191.268967741753
-0.3087000000000001,-192.11779452167198
-0.3097,-193.10809243157752
-0.3107000000000001,-194.09839034148303
-0.3117,-194.94721712140205
-0.3127000000000001,-195.79604390132107
-0.3137,-196.7863418112266
-0.3147000000000001,-197.91811085111863
-0.3157,-199.19135102099716
-0.3167000000000001,-200.4645911908757
-0.3177,-201.87930249074074
-0.3187000000000001,-203.43548492059227
-0.3197,-204.7087250904708
-0.3207000000000001,-205.98196526034934
-0.3217,-207.25520543022787
-0.3227000000000001,-208.52844560010638
-0.3237,-209.66021463999843
-0.3247000000000001,-210.79198367989048
-0.3257,-211.9237527197825
-0.3267000000000001,-213.05552175967455
-0.3277,-214.32876192955305
-0.3287000000000001,-215.6020020994316
-0.3297,-217.01671339929663
-0.3307000000000001,-218.57289582914817
-0.3317,-220.2705493889862
-0.3327000000000001,-221.68526068885126
-0.3337,-223.2414431187028
-0.3347000000000001,-224.79762554855435
-0.3357,-226.21233684841937
-0.3367000000000001,-227.62704814828442
-0.3377,-229.18323057813595
-0.3387000000000001,-230.59794187800094
-0.3397,-232.15412430785253
-0.3407000000000001,-233.71030673770406
-0.3417,-235.40796029754208
-0.3427000000000001,-236.96414272739366
-0.3437,-238.5203251572452
-0.3447000000000001,-240.21797871708318
-0.3457,-241.9156322769213
-0.3467000000000001,-243.47181470677282
-0.3477,-245.16946826661086
-0.3487000000000001,-246.7256506964624
-0.3497,-248.42330425630044
-0.3507000000000001,-250.1209578161385
-0.3517,-251.96008250596302
-0.3527000000000001,-253.79920719578757
-0.3537,-255.49686075562562
-0.3547000000000001,-257.33598544545015
-0.3557,-259.3165812652612
-0.35670000000000013,-261.01423482509927
-0.3577,-262.7118883849373
-0.35870000000000013,-264.6924842047484
-0.3597,-266.5316088945729
-0.36070000000000013,-268.512204714384
-0.3617,-270.49280053419506
-0.3626999999999999,-272.61486748399255
-0.3637,-274.5954633038036
-0.3646999999999999,-276.5760591236147
-0.3657,-278.5566549434257
-0.3666999999999999,-280.5372507632368
-0.3677,-282.65931771303434
-0.3686999999999999,-284.9228557928184
-0.36970000000000003,-286.9034516126294
-0.3706999999999999,-289.1669896924135
-0.37170000000000003,-291.4305277721976
-0.3726999999999999,-293.55259472199515
-0.37370000000000003,-295.8161328017792
-0.3746999999999999,-297.9381997515767
-0.37570000000000003,-300.06026670137425
-0.3766999999999999,-302.18233365117186
-0.37770000000000004,-304.1629294709828
-0.3786999999999999,-306.1435252907939
-0.37970000000000004,-308.2655922405915
-0.3806999999999999,-310.52913032037554
-0.38170000000000004,-312.9341395301461
-0.38269999999999993,-315.3391487399167
-0.38370000000000004,-317.8856290796738
-0.38469999999999993,-320.4321094194308
-0.38570000000000004,-322.83711862920137
-0.38669999999999993,-321.8468207192958
-0.38570000000000004,-315.19767760993017
-0.38469999999999993,-308.972947890524
-0.38370000000000004,-303.0311604310908
-0.38269999999999993,-297.3723152316307
-0.38170000000000004,-291.9964122921436
-0.3806999999999999,-287.04492274261594
-0.37970000000000004,-282.3763754530613
-0.3786999999999999,-277.84929929349323
-0.37770000000000004,-273.7466365238846
-0.3766999999999999,-269.78544488426246
-0.37570000000000003,-265.82425324464043
-0.3746999999999999,-262.0045327350048
-0.37370000000000003,-258.18481222536917
-0.3726999999999999,-254.50656284572008
-0.37170000000000003,-250.545371206098
-0.3706999999999999,-246.7256506964624
-0.36970000000000003,-242.76445905684034
-0.3686999999999999,-238.94473854720468
-0.3677,-235.40796029754208
-0.3666999999999999,-231.8711820478795
-0.3657,-228.47587492820347
-0.3646999999999999,-225.22203893851383
-0.3637,-221.96820294882426
-0.3626999999999999,-218.85583808912116
-0.3617,-215.88494435940459
-0.36070000000000013,-212.631108369715
-0.3597,-209.51874351001192
-0.35870000000000013,-206.40637865030885
-0.3577,-203.15254266061928
-0.35670000000000013,-200.18164893090267
-0.3557,-197.21075520118612
-0.3547000000000001,-194.09839034148303
-0.3537,-190.84455435179345
-0.3527000000000001,-187.73218949209036
-0.3517,-184.7612957623738
-0.3507000000000001,-181.93187316264374
-0.3497,-178.96097943292713
-0.3487000000000001,-176.13155683319707
-0.3477,-173.44360536345349
-0.3467000000000001,-170.61418276372342
-0.3457,-168.06770242396635
-0.3447000000000001,-165.3797509542228
-0.3437,-162.6917994844792
-0.3427000000000001,-159.86237688474912
-0.3417,-157.17442541500557
-0.3407000000000001,-154.486473945262
-0.3397,-151.65705134553193
-0.3387000000000001,-148.96909987578834
-0.3377,-146.28114840604482
-0.3367000000000001,-143.5931969363012
-0.3357,-141.06086370954282
-0.3347000000000001,-138.61341316077628
-0.3337,-135.99619725602597
-0.3327000000000001,-133.5628938202581
-0.3317,-130.9456779155078
-0.3307000000000001,-128.37090334975343
-0.3297,-125.71124610600715
-0.3287000000000001,-123.05158886226087
-0.3277,-120.43437295751058
-0.3267000000000001,-117.77471571376431
-0.3257,-115.15749980901398
-0.3247000000000001,-112.71004926024747
-0.3237,-110.26259871148096
-0.3227000000000001,-107.914177953705
-0.3217,-105.69308121291688
-0.3207000000000001,-103.37295468113824
-0.3197,-101.10941660135417
-0.3187000000000001,-98.66196605258766
-0.3177,-96.21451550382113
-0.3167000000000001,-93.78121206805329
-0.3157,-91.29132018029082
-0.3147000000000001,-88.80142829252836
-0.3137,-86.5378902127443
-0.3127000000000001,-84.23191079396429
-0.3117,-82.03910827917348
-0.3107000000000001,-79.86045287738132
-0.3097,-77.68179747558916
-0.3087000000000001,-75.54558341279296
-0.3077,-73.3669280110008
-0.3067000000000001,-71.2307139482046
-0.30569999999999997,-69.05205854641244
-0.3047000000000001,-66.77437335362974
-0.30369999999999997,-64.59571795183757
-0.3027000000000001,-62.28973853305756
-0.30169999999999997,-60.02620045327351
-0.3007000000000001,-57.93242772947325
-0.29969999999999997,-55.838655005673
-0.2987000000000001,-53.7873236208687
-0.29769999999999996,-51.77843357506035
-0.2967000000000001,-49.72710219025603
-0.29569999999999996,-47.71821214444768
-0.2947000000000001,-45.70932209863933
-0.29369999999999996,-43.61554937483908
-0.29270000000000007,-41.606659329030734
-0.29169999999999996,-39.47044526623452
-0.29070000000000007,-37.376672542434264
-0.28969999999999996,-35.282899818634014
-0.28870000000000007,-33.18912709483376
-0.28769999999999996,-31.095354371033505
-0.28670000000000007,-29.100611438223805
-0.28569999999999995,-27.091721392415455
-0.28470000000000006,-25.210155363594954
-0.28369999999999995,-23.300295108777156
-0.28270000000000006,-21.503611757948562
-0.28169999999999995,-19.721075520118614
-0.28070000000000006,-17.881950830294063
-0.27969999999999995,-16.099414592464115
-0.27870000000000006,-14.217848563643619
-0.27769999999999995,-12.302329463626359
-0.27670000000000006,-10.42642228000532
-0.27569999999999995,-8.508073757388331
-0.27470000000000006,-6.588310523471475
-0.27369999999999994,-4.756259390146253
-0.27270000000000005,-2.8803522065252145
-0.27169999999999994,-1.1798692240874404
-0.27070000000000005,0.5211796428702795
-0.26969999999999994,2.178655401792157
-0.26870000000000005,3.7928409949381634
