Potential V vs RHE, Current mA cm-2
0.013299999999999867,0.2594580523952477
0.012299999999999978,-4.0588067193127895
0.011299999999999866,-7.679052935667419
0.010299999999999976,-10.601846481188586
0.009299999999999864,-13.261503724934855
0.008299999999999974,-15.91550212348166
0.007299999999999862,-18.53271802823198
0.006299999999999972,-20.76796188201874
0.00529999999999986,-22.508056780852733
0.0042999999999999705,-24.078386323702922
0.0032999999999998586,-25.77603988354097
0.0022999999999999687,-27.572723234369565
0.0012999999999998568,-29.058170099227848
0.00029999999999996696,-30.147497800123933
-0.000700000000000145,-31.19438416202406
-0.0017000000000000348,-32.41103587990799
-0.0027000000000001467,-33.670128936787876
-0.0037000000000000366,-34.8018979766799
-0.0047000000000001485,-35.50925362661242
-0.005700000000000038,-36.20246216354629
-0.00670000000000015,-37.122024508458566
-0.00770000000000004,-38.12646953136274
-0.008700000000000152,-38.98944342428042
-0.009700000000000042,-39.42800392723857
-0.010700000000000154,-39.86656443019674
-0.011700000000000044,-40.559772967130606
-0.012700000000000156,-41.352011295055014
-0.013700000000000045,-41.96033715399699
-0.014700000000000157,-42.2715736399673
-0.015700000000000047,-42.483780334947056
-0.01670000000000016,-43.007223515897124
-0.01770000000000005,-43.75702050482558
-0.01870000000000016,-44.138992555789144
-0.01970000000000005,-44.3229050247716
-0.020700000000000163,-44.4926703807554
-0.021700000000000053,-44.84634820572166
-0.022700000000000164,-45.45467406466363
-0.023700000000000054,-45.79420477663124
-0.024700000000000166,-45.89323456762179
-0.025700000000000056,-45.89323456762179
-0.026700000000000168,-46.19032394059345
-0.027700000000000058,-46.713767121543505
-0.02870000000000017,-47.02500360751382
-0.02970000000000006,-47.02500360751382
-0.03070000000000017,-46.982562268517874
-0.03170000000000006,-47.27965164148953
-0.03270000000000017,-47.80309482243959
-0.03370000000000006,-48.029448630417996
-0.034700000000000175,-47.93041883942744
-0.035700000000000065,-47.8879775004315
-0.03670000000000018,-48.114331308409895
-0.03770000000000007,-48.59533315036401
-0.03870000000000018,-48.80753984534376
-0.03970000000000007,-48.63777448935996
-0.04070000000000018,-48.55289181136806
-0.04170000000000007,-48.80753984534376
-0.04270000000000018,-49.20365900930597
-0.04370000000000007,-49.373424365289786
-0.044700000000000184,-49.28854168729788
-0.045700000000000074,-49.16121767031002
-0.046700000000000186,-49.33098302629383
-0.047700000000000076,-49.76954352925199
-0.04870000000000019,-49.939308885235796
-0.04970000000000008,-49.81198486824794
-0.05070000000000019,-49.68466085126009
-0.05170000000000008,-49.85442620724389
-0.05270000000000019,-50.1656626932142
-0.05370000000000008,-50.335428049198
-0.05470000000000019,-50.20810403221015
-0.05570000000000008,-50.024191563227696
-0.056700000000000195,-50.1656626932142
-0.057700000000000085,-50.50519340518181
-0.058700000000000196,-50.64666453516831
-0.059700000000000086,-50.547634744177756
-0.0607000000000002,-50.37786938819396
-0.06170000000000009,-50.547634744177756
-0.0627000000000002,-50.943753908139975
-0.06370000000000009,-51.028636586131874
-0.0647000000000002,-50.85887123014807
-0.06570000000000009,-50.73154721316022
-0.0667000000000002,-50.85887123014807
-0.0677000000000001,-51.21254905511432
-0.0687000000000002,-51.21254905511432
-0.0697000000000001,-50.98619524713592
-0.07070000000000021,-50.98619524713592
-0.0717000000000001,-51.25499039411028
-0.07270000000000021,-51.55207976708194
-0.0737000000000001,-51.65110955807249
-0.07470000000000021,-51.46719708909004
-0.0757000000000001,-51.29743173310623
-0.07670000000000021,-51.46719708909004
-0.0777000000000001,-51.77843357506035
-0.07870000000000021,-51.82087491405629
-0.0797000000000001,-51.594521106077885
-0.08070000000000022,-51.46719708909004
-0.0817000000000001,-51.594521106077885
-0.08270000000000022,-51.948198931044146
-0.08370000000000011,-52.033081609036046
-0.08470000000000022,-51.82087491405629
-0.08570000000000011,-51.65110955807249
-0.08670000000000022,-51.73599223606439
-0.08770000000000011,-52.033081609036046
-0.08870000000000022,-52.17455273902255
-0.08970000000000011,-51.948198931044146
-0.09070000000000022,-51.73599223606439
-0.09170000000000011,-51.90575759204819
-0.09270000000000023,-52.2169940780185
-0.09370000000000012,-52.386759434002315
-0.09470000000000023,-52.2169940780185
-0.09570000000000012,-51.990640270040096
-0.09670000000000023,-52.2169940780185
-0.09770000000000012,-52.55652478998611
-0.09870000000000023,-52.69799591997262
-0.09970000000000012,-52.471642111994214
-0.10070000000000023,-52.34431809500636
-0.10170000000000012,-52.514083450990164
-0.10270000000000024,-52.82531993696047
-0.10370000000000013,-52.86776127595642
-0.10470000000000024,-52.64140746797801
-0.10570000000000013,-52.471642111994214
-0.10670000000000024,-52.55652478998611
-0.10770000000000013,-52.86776127595642
-0.10870000000000024,-52.995085292944275
-0.10970000000000013,-52.82531993696047
-0.11070000000000024,-52.64140746797801
-0.11170000000000013,-52.78287859796452
-0.11270000000000002,-53.12240930993213
-0.11370000000000013,-53.26388043991864
-0.11470000000000002,-52.995085292944275
-0.11570000000000014,-52.86776127595642
-0.11670000000000003,-52.995085292944275
-0.11770000000000014,-53.30632177891458
-0.11870000000000003,-53.476087134898386
-0.11970000000000014,-53.22143910092268
-0.12070000000000003,-53.12240930993213
-0.12170000000000014,-53.30632177891458
-0.12270000000000003,-53.64585249088219
-0.12370000000000014,-53.82976495986464
-0.12470000000000003,-53.603411151886235
-0.12570000000000014,-53.476087134898386
-0.12670000000000003,-53.64585249088219
-0.12770000000000015,-53.9570889768525
-0.12870000000000004,-54.1268543328363
-0.12970000000000015,-53.91464763785655
-0.13070000000000004,-53.68829382987814
-0.13170000000000015,-53.872206298860604
-0.13270000000000004,-54.16929567183226
-0.13370000000000015,-54.31076680181876
-0.13470000000000004,-54.16929567183226
-0.13570000000000015,-53.999530315848446
-0.13670000000000004,-54.16929567183226
-0.13770000000000016,-54.480532157802564
-0.13870000000000005,-54.65029751378637
-0.13970000000000016,-54.52297349679851
-0.14070000000000005,-54.39564947981066
-0.14170000000000016,-54.56541483579447
-0.14270000000000005,-54.919092660760725
-0.14370000000000016,-55.003975338752625
-0.14470000000000005,-54.834209982768826
-0.14570000000000016,-54.73518019177827
-0.14670000000000005,-54.919092660760725
-0.14770000000000016,-55.31521182472294
-0.14870000000000005,-55.400094502714836
-0.14970000000000017,-55.31521182472294
-0.15070000000000006,-55.21618203373238
-0.15170000000000017,-55.400094502714836
-0.15270000000000006,-55.7820665536784
-0.15370000000000017,-55.9235376836649
-0.15470000000000006,-55.73962521468245
-0.15570000000000017,-55.612301197694585
-0.15670000000000006,-55.838655005673
-0.15770000000000017,-56.093303039648696
-0.15870000000000006,-56.26306839563251
-0.15970000000000018,-56.093303039648696
-0.16070000000000007,-56.05086170065276
-0.16170000000000018,-56.1781857176406
-0.16270000000000007,-56.53186354260687
-0.16370000000000018,-56.786511576582576
-0.16470000000000007,-56.74407023758662
-0.16570000000000018,-56.57430488160282
-0.16670000000000007,-56.786511576582576
-0.16770000000000018,-57.14018940154883
-0.16870000000000007,-57.30995475753264
-0.16970000000000018,-57.182630740544774
-0.17070000000000007,-57.05530672355693
-0.17170000000000019,-57.26751341853669
-0.17270000000000008,-57.70607392149485
-0.1737000000000002,-57.93242772947325
-0.17470000000000008,-57.79095659948675
-0.1757000000000002,-57.7485152604908
-0.17670000000000008,-58.05975174646111
-0.1777000000000002,-58.498312249419264
-0.17870000000000008,-58.66807760540307
-0.1797000000000002,-58.66807760540307
-0.18070000000000008,-58.583194927411164
-0.1817000000000002,-58.75296028339497
-0.18270000000000008,-59.14907944735718
-0.1837000000000002,-59.36128614233694
-0.1847000000000001,-59.36128614233694
-0.1857000000000002,-59.27640346434504
-0.1867000000000001,-59.502757272323436
-0.1877000000000002,-60.02620045327351
-0.1887000000000001,-60.23840714825326
-0.1897000000000002,-60.19596580925731
-0.1907000000000001,-60.19596580925731
-0.1917000000000001,-60.40817250423707
-0.19269999999999998,-60.84673300719523
-0.1937000000000001,-61.15796949316553
-0.19469999999999998,-61.07308681517363
-0.1957000000000001,-61.11552815416958
-0.19669999999999999,-61.37017618814529
-0.1977000000000001,-61.89361936909536
-0.1987,-62.20485585506566
-0.1997000000000001,-62.20485585506566
-0.2007,-62.28973853305756
-0.2017000000000001,-62.68585769701977
-0.2027,-63.15271242597524
-0.2037000000000001,-63.5063902509415
-0.2047,-63.54883158993744
-0.2057000000000001,-63.54883158993744
-0.2067,-63.902509414903705
-0.2077000000000001,-64.38351125685783
-0.2087,-64.68060062982947
-0.2097000000000001,-64.72304196882543
-0.2107,-64.82207175981598
-0.2117000000000001,-65.0767197937917
-0.2127,-65.60016297474175
-0.2137000000000001,-65.95384079970802
-0.2147,-65.99628213870396
-0.2157000000000001,-66.12360615569182
-0.2167,-66.47728398065809
-0.21770000000000012,-67.00072716160814
-0.2187,-67.39684632557035
-0.21970000000000012,-67.48172900356225
-0.2207,-67.6090530205501
-0.22170000000000012,-68.04761352350828
-0.2227,-68.74082206044213
-0.22370000000000012,-69.13694122440434
-0.2247,-69.30670658038814
-0.22570000000000012,-69.53306038836655
-0.2267,-70.05650356931662
-0.22770000000000012,-70.70727076725453
-0.22870000000000001,-71.1458312702127
-0.22970000000000013,-71.31559662619651
-0.23070000000000002,-71.58439177317086
-0.23170000000000013,-72.10783495412092
-0.23270000000000002,-72.71616081306288
-0.23370000000000013,-73.197162655017
-0.23470000000000002,-73.3669280110008
-0.23570000000000013,-73.62157604497652
-0.23670000000000002,-74.20160767792116
-0.2376999999999999,-74.89481621485504
-0.23870000000000002,-75.46070073480107
-0.2396999999999999,-75.6729074297808
-0.24070000000000003,-75.98414391575112
-0.24169999999999991,-76.55002843569714
-0.24270000000000003,-77.28567831162695
-0.24369999999999992,-77.90815128356756
-0.24470000000000003,-78.20524065653922
-0.24569999999999992,-78.55891848150549
-0.24670000000000003,-79.25212701843935
-0.24769999999999992,-80.17168936335163
-0.24870000000000003,-80.86489790028548
-0.24969999999999992,-81.1761343862558
-0.25070000000000003,-81.61469488921396
-0.2516999999999999,-82.47766878213164
-0.25270000000000004,-83.39723112704392
-0.2536999999999999,-84.04799832498183
-0.25470000000000004,-84.48655882793999
-0.2556999999999999,-85.01000200889004
-0.25670000000000004,-85.75979899781852
-0.25769999999999993,-86.66521422973216
-0.25870000000000004,-87.41501121866061
-0.25969999999999993,-87.93845439961068
-0.26070000000000004,-88.4194562415648
-0.26169999999999993,-89.23998879548651
-0.26270000000000004,-90.32931649638259
-0.26369999999999993,-91.20643750229891
-0.26470000000000005,-91.77232202224494
-0.26569999999999994,-92.29576520319499
-0.26670000000000005,-93.13044487011537
-0.26769999999999994,-94.13488989301955
-0.26870000000000005,-94.95542244694126
-0.26969999999999994,-95.47886562789132
-0.27070000000000005,-96.12963282582925
-0.27169999999999994,-97.00675383174556
-0.27270000000000005,-98.18096421063355
-0.27369999999999994,-99.27029191152963
-0.27470000000000006,-100.02008890045809
-0.27569999999999995,-100.75573877638791
-0.27670000000000006,-101.76018379929208
-0.27769999999999995,-103.01927685617197
-0.27870000000000006,-104.2076343480586
-0.27969999999999995,-104.98572556298437
-0.28070000000000006,-105.7779638909088
-0.28169999999999995,-106.90973293080083
-0.28270000000000006,-108.12638464868475
-0.28369999999999995,-109.04594699359701
-0.28470000000000006,-109.8240382085228
-0.28569999999999995,-110.92751302241753
-0.28670000000000007,-112.44125411327312
-0.28769999999999996,-114.23793746410173
-0.28870000000000007,-115.80826700695191
-0.28969999999999996,-116.85515336885203
-0.29070000000000007,-117.90203973075215
-0.29169999999999996,-119.20357412662798
-0.29270000000000007,-120.73146233048222
-0.29369999999999996,-122.0471438393567
-0.2947000000000001,-123.05158886226087
-0.29569999999999996,-123.99944543317046
-0.2967000000000001,-125.18780292505707
-0.29769999999999996,-126.44689598193698
-0.2987000000000001,-127.72013615181551
-0.29969999999999997,-129.02167054769134
-0.3007000000000001,-130.1534395875834
-0.30169999999999997,-131.5115624354538
-0.3027000000000001,-132.9404208483175
-0.30369999999999997,-134.56733884316228
-0.3047000000000001,-135.91131457803408
-0.30569999999999997,-137.1845547479126
-0.3067000000000001,-138.7548842907628
-0.3077,-140.62230320658463
-0.3087000000000001,-142.4614278964092
-0.3097,-143.73466806628772
-0.3107000000000001,-144.86643710617977
-0.3117,-146.5640906660178
-0.3127000000000001,-148.26174422585584
-0.3137,-149.6764555257209
-0.3147000000000001,-150.8082245656129
-0.3157,-152.0814647354914
-0.3167000000000001,-153.63764716534297
-0.3177,-155.47677185516753
-0.3187000000000001,-156.89148315503257
-0.3197,-158.3061944548976
-0.3207000000000001,-160.00384801473567
-0.3217,-161.84297270456022
-0.3227000000000001,-163.68209739438475
-0.3237,-165.3797509542228
-0.3247000000000001,-167.07740451406085
-0.3257,-169.19947146385837
-0.3267000000000001,-171.32153841365593
-0.3277,-173.302134233467
-0.3287000000000001,-174.99978779330505
-0.3297,-176.4144990931701
-0.3307000000000001,-178.1121526530081
-0.3317,-179.95127734283267
-0.3327000000000001,-181.93187316264374
-0.3337,-183.77099785246824
-0.3347000000000001,-185.6101225422928
-0.3357,-187.16630497214436
-0.3367000000000001,-189.2883719219419
-0.3377,-191.41043887173947
-0.3387000000000001,-193.3910346915505
-0.3397,-195.08868825138856
-0.3407000000000001,-196.7863418112266
-0.3417,-198.90840876102413
-0.3427000000000001,-201.31341797079472
-0.3437,-203.29401379060576
-0.3447000000000001,-205.27460961041683
-0.3457,-207.1137343002414
-0.3467000000000001,-209.51874351001192
-0.3477,-212.2066949797555
-0.3487000000000001,-214.75317531951256
-0.3497,-216.73377113932364
-0.3507000000000001,-218.85583808912116
-0.3517,-221.11937616890526
-0.3527000000000001,-223.80732763864881
-0.3537,-226.07086571843288
-0.3547000000000001,-228.0514615382439
-0.3557,-230.03205735805497
-0.35670000000000013,-232.57853769781204
-0.3577,-234.9835469075826
-0.35870000000000013,-237.38855611735315
-0.3597,-239.65209419713722
-0.36070000000000013,-241.6326900169483
-0.3617,-243.8962280967323
-0.3626999999999999,-246.7256506964624
-0.3637,-249.2721310362195
-0.3646999999999999,-251.111255726044
-0.3657,-253.09185154585506
-0.3666999999999999,-255.35538962563913
-0.3677,-257.90186996539614
-0.3686999999999999,-260.3068791751668
-0.36970000000000003,-262.2874749949778
-0.3706999999999999,-264.6924842047484
-0.37170000000000003,-267.38043567449193
-0.3726999999999999,-270.20985827422203
-0.37370000000000003,-272.8978097439656
-0.3746999999999999,-275.44429008372265
-0.37570000000000003,-277.7078281635067
-0.3766999999999999,-280.5372507632368
-0.37770000000000004,-283.5081444929533
-0.3786999999999999,-286.0546248327104
-0.37970000000000004,-288.3181629124945
-0.3806999999999999,-290.44022986229203
-0.38170000000000004,-293.1281813320356
-0.38269999999999993,-295.9576039317657
-0.38370000000000004,-298.6455554015092
-0.38469999999999993,-301.0505646112798
-0.38570000000000004,-303.5970449510368
-0.38669999999999993,-303.0311604310908
-0.38570000000000004,-297.3723152316307
-0.38469999999999993,-292.56229681208964
-0.38370000000000004,-287.7522783925485
-0.38269999999999993,-283.5081444929533
-0.38170000000000004,-279.6884239833177
-0.3806999999999999,-276.01017460366864
-0.37970000000000004,-272.3319252240195
-0.3786999999999999,-268.65367584437047
-0.37770000000000004,-265.11689759470784
-0.3766999999999999,-262.1460038649913
-0.37570000000000003,-259.3165812652612
-0.3746999999999999,-256.0627452755717
-0.37370000000000003,-252.95038041586852
-0.3726999999999999,-249.83801555616546
-0.37170000000000003,-247.1500640864219
-0.3706999999999999,-244.32064148669184
-0.36970000000000003,-241.49121888696175
-0.3686999999999999,-238.5203251572452
-0.3677,-235.40796029754208
-0.3666999999999999,-232.57853769781204
-0.3657,-229.89058622806846
-0.3646999999999999,-227.06116362833836
-0.3637,-223.9487987686353
-0.3626999999999999,-220.97790503891872
-0.3617,-218.14848243918865
-0.36070000000000013,-215.6020020994316
-0.3597,-212.914050629688
-0.35870000000000013,-209.8016857699849
-0.3577,-206.68932091028185
-0.35670000000000013,-204.14284057052478
-0.3557,-201.59636023076774
-0.3547000000000001,-199.04987989101065
-0.3537,-196.2204572912806
-0.3527000000000001,-193.249563561564
-0.3517,-190.84455435179345
-0.3507000000000001,-188.4395451420229
-0.3497,-185.89306480226583
-0.3487000000000001,-183.20511333252225
-0.3477,-180.5171618627787
-0.3467000000000001,-177.9706815230216
-0.3457,-175.28273005327804
-0.3447000000000001,-172.87772084350746
-0.3437,-170.33124050375042
-0.3427000000000001,-167.50181790402033
-0.3417,-164.9553375642633
-0.3407000000000001,-162.5503283544927
-0.3397,-160.14531914472215
-0.3387000000000001,-157.59883880496508
-0.3377,-154.9108873352215
-0.3367000000000001,-152.50587812545095
-0.3357,-150.38381117565342
-0.3347000000000001,-147.97880196588284
-0.3337,-145.29085049613926
-0.3327000000000001,-142.7443701563822
-0.3317,-140.41009651160488
-0.3307000000000001,-138.3163237878046
-0.3297,-135.91131457803408
-0.3287000000000001,-133.29409867328377
-0.3277,-130.63444142953747
-0.3267000000000001,-128.28602067176152
-0.3257,-126.3195719649491
-0.3247000000000001,-124.14091656315696
-0.3237,-121.65102467539451
-0.3227000000000001,-119.51481061259831
-0.3217,-117.63324458377778
-0.3207000000000001,-115.85070834594785
-0.3197,-113.79937696114357
-0.3187000000000001,-111.394367751373
-0.3177,-109.17327101058488
-0.3167000000000001,-107.07949828678463
-0.3157,-105.16963803196683
-0.3147000000000001,-103.01927685617197
-0.3137,-100.670856098396
-0.3127000000000001,-98.2234055496295
-0.3117,-96.17207416482519
-0.3107000000000001,-94.30465524900335
-0.3097,-92.42308922018285
-0.3087000000000001,-90.15955114039879
-0.3077,-87.89601306061473
-0.3067000000000001,-85.88712301480638
-0.30569999999999997,-84.13288100297372
-0.3047000000000001,-82.30790342614785
-0.30369999999999997,-80.17168936335163
-0.3027000000000001,-77.95059262256353
-0.30169999999999997,-76.06902659374302
-0.3007000000000001,-74.54113838988879
-0.29969999999999997,-72.71616081306288
-0.2987000000000001,-70.62238808926263
-0.29769999999999996,-68.48617402646643
-0.2967000000000001,-66.87340314462028
-0.29569999999999996,-65.38795627976201
-0.2947000000000001,-63.5063902509415
-0.29369999999999996,-61.455058866137186
-0.29270000000000007,-59.502757272323436
-0.29169999999999996,-57.8333979384827
-0.29070000000000007,-56.26306839563251
-0.28969999999999996,-54.480532157802564
-0.28870000000000007,-52.514083450990164
-0.28769999999999996,-50.64666453516831
-0.28670000000000007,-48.97730520132757
-0.28569999999999995,-47.46356411047198
-0.28470000000000006,-45.79420477663124
-0.28369999999999995,-43.88434452181344
-0.28270000000000006,-42.00277849299294
-0.28169999999999995,-40.3900076111468
-0.28070000000000006,-39.046031876275016
-0.27969999999999995,-37.56058501141672
-0.27870000000000006,-35.721460321592176
-0.27769999999999995,-33.89648274476628
-0.27670000000000006,-32.368594540912035
-0.27569999999999995,-31.052913032037555
-0.27470000000000006,-29.66649595816982
-0.27369999999999994,-27.912253946337174
-0.27270000000000005,-26.21460038649913
-0.27169999999999994,-24.870624651627345
-0.27070000000000005,-23.639825820744765
-0.26969999999999994,-22.253408746877028
-0.26870000000000005,-20.626490752032236
-0.26769999999999994,-19.056161209182044
-0.26670000000000005,-17.71218547431026
-0.26569999999999994,-16.665299112410132
