Potential V vs RHE, Current mA cm-2
0.013299999999999867,13.606693282101922
0.012299999999999978,12.341941380022579
0.011299999999999866,11.119630816939189
0.010299999999999976,9.986447065747294
0.009299999999999864,8.80799255295972
0.008299999999999974,7.674808801767824
0.007299999999999862,6.5840663895718805
0.006299999999999972,5.493323977375938
0.00529999999999986,4.490293665771627
0.0042999999999999705,3.5311194044631313
0.0032999999999998586,2.6143864821505876
0.0022999999999999687,1.7867803717295414
0.0012999999999998568,0.9137620285828272
0.00029999999999996696,0.12863969849672777
-0.000700000000000145,-0.7001406223032067
-0.0017000000000000348,-1.5293029151541047
-0.0027000000000001467,-2.4007650758709675
-0.0037000000000000366,-3.273641947887695
-0.0047000000000001485,-4.102662769608606
-0.005700000000000038,-4.887827541033701
-0.00670000000000015,-5.715433651454749
-0.00770000000000004,-6.414301033588076
-0.008700000000000152,-7.111753704421539
-0.009700000000000042,-7.7653503249591855
-0.010700000000000154,-8.376505606500881
-0.011700000000000044,-9.073958277334345
-0.012700000000000156,-9.728969609171857
-0.013700000000000045,-10.42642228000532
-0.014700000000000157,-11.123874950838783
-0.015700000000000047,-11.82274233297211
-0.01670000000000016,-12.56405105410139
-0.01770000000000005,-13.175206335643086
-0.01870000000000016,-13.828802956180734
-0.01970000000000005,-14.401761032626075
-0.020700000000000163,-14.967645552572087
-0.021700000000000053,-15.533530072518102
-0.022700000000000164,-16.014531914472215
-0.023700000000000054,-16.580416434418233
-0.024700000000000166,-17.103859615368293
-0.025700000000000056,-17.71218547431026
-0.026700000000000168,-18.27806999425627
-0.027700000000000058,-18.88639585319824
-0.02870000000000017,-19.49472171214021
-0.02970000000000006,-20.06060623208622
-0.03070000000000017,-20.584049413036283
-0.03170000000000006,-21.065051254990397
-0.03270000000000017,-21.54605309694451
-0.03370000000000006,-21.98461359990267
-0.034700000000000175,-22.42317410286083
-0.035700000000000065,-22.904175944814945
-0.03670000000000018,-23.385177786769056
-0.03770000000000007,-23.908620967719123
-0.03870000000000018,-24.432064148669184
-0.03970000000000007,-24.95550732961925
-0.04070000000000018,-25.478950510569312
-0.04170000000000007,-26.002393691519377
-0.04270000000000018,-26.440954194477534
-0.04370000000000007,-26.822926245441096
-0.044700000000000184,-27.219045409403304
-0.045700000000000074,-27.572723234369565
-0.046700000000000186,-28.011283737327723
-0.047700000000000076,-28.393255788291288
-0.04870000000000019,-28.831816291249446
-0.04970000000000008,-29.31281813320356
-0.05070000000000019,-29.793819975157668
-0.05170000000000008,-30.317263156107735
-0.05270000000000019,-30.71338232006995
-0.05370000000000008,-31.137795710029454
-0.05470000000000019,-31.533914873991666
-0.05570000000000008,-31.930034037953877
-0.056700000000000195,-32.283711862920136
-0.057700000000000085,-32.58080123589179
-0.058700000000000196,-32.93447906085806
-0.059700000000000086,-33.330598224820264
-0.0607000000000002,-33.712570275783825
-0.06170000000000009,-34.193572117737936
-0.0627000000000002,-34.632132620696105
-0.06370000000000009,-35.07069312365426
-0.0647000000000002,-35.46681228761647
-0.06570000000000009,-35.848784338580025
-0.0667000000000002,-36.16002082455034
-0.0677000000000001,-36.5136986495166
-0.0687000000000002,-36.768346683492304
-0.0697000000000001,-37.122024508458566
-0.07070000000000021,-37.41911388143023
-0.0717000000000001,-37.77279170639648
-0.07270000000000021,-38.211352209354644
-0.0737000000000001,-38.607471373316855
-0.07470000000000021,-39.046031876275016
-0.0757000000000001,-39.38556258824262
-0.07670000000000021,-39.78168175220483
-0.0777000000000001,-40.135359577171094
-0.07870000000000021,-40.3900076111468
-0.0797000000000001,-40.701244097117105
-0.08070000000000022,-40.95589213109281
-0.0817000000000001,-41.30956995605907
-0.08270000000000022,-41.606659329030734
-0.08370000000000011,-41.96033715399699
-0.08470000000000022,-42.31401497896325
-0.08570000000000011,-42.71013414292546
-0.08670000000000022,-43.134547532884966
-0.08770000000000011,-43.48822535785123
-0.08870000000000022,-43.84190318281749
-0.08970000000000011,-44.138992555789144
-0.09070000000000022,-44.45022904175945
-0.09170000000000011,-44.704877075735155
-0.09270000000000023,-44.97367222270952
-0.09370000000000012,-45.22832025668522
-0.09470000000000023,-45.53955674265553
-0.09570000000000012,-45.93567590661774
-0.09670000000000023,-46.27520661858535
-0.09770000000000012,-46.628884443551605
-0.09870000000000023,-47.02500360751382
-0.09970000000000012,-47.36453431948143
-0.10070000000000023,-47.67577080545174
-0.10170000000000012,-47.987007291422046
-0.10270000000000024,-48.24165532539775
-0.10370000000000013,-48.51045047237211
-0.10470000000000024,-48.76509850634781
-0.10570000000000013,-49.03389365332217
-0.10670000000000024,-49.373424365289786
-0.10770000000000013,-49.72710219025603
-0.10870000000000024,-50.0807800152223
-0.10970000000000013,-50.46275206618586
-0.11070000000000024,-50.81642989115212
-0.11170000000000013,-51.17010771611838
-0.11270000000000002,-51.46719708909004
-0.11370000000000013,-51.77843357506035
-0.11470000000000002,-51.990640270040096
-0.11570000000000014,-52.25943541701445
-0.11670000000000003,-52.514083450990164
-0.11770000000000014,-52.82531993696047
-0.11870000000000003,-53.16485064892808
-0.11970000000000014,-53.518528473894335
-0.12070000000000003,-53.872206298860604
-0.12170000000000014,-54.26832546282281
-0.12270000000000003,-54.60785617479041
-0.12370000000000014,-54.961533999756675
-0.12470000000000003,-55.21618203373238
-0.12570000000000014,-55.527418519702685
-0.12670000000000003,-55.7820665536784
-0.12770000000000015,-56.05086170065276
-0.12870000000000004,-56.30550973462846
-0.12970000000000015,-56.65918755959472
-0.13070000000000004,-56.97042404556503
-0.13170000000000015,-57.352396096528594
-0.13270000000000004,-57.70607392149485
-0.13370000000000015,-58.10219308545706
-0.13470000000000004,-58.45587091042332
-0.13570000000000015,-58.75296028339497
-0.13670000000000004,-59.06419676936528
-0.13770000000000016,-59.36128614233694
-0.13870000000000005,-59.587639950315335
-0.13970000000000016,-59.884729323287
-0.14070000000000005,-60.15352447026136
-0.14170000000000016,-60.49305518222897
-0.14270000000000005,-60.84673300719523
-0.14370000000000016,-61.242852171157445
-0.14470000000000005,-61.5965299961237
-0.14570000000000016,-61.936060708091304
-0.14670000000000005,-62.33217987205352
-0.14770000000000016,-62.64341635802381
-0.14870000000000005,-62.89806439199953
-0.14970000000000017,-63.15271242597524
-0.15070000000000006,-63.421507572949594
-0.15170000000000017,-63.732744058919906
-0.15270000000000006,-64.02983343189156
-0.15370000000000017,-64.34106991786187
-0.15470000000000006,-64.72304196882543
-0.15570000000000017,-65.0767197937917
-0.15670000000000006,-65.51528029674984
-0.15770000000000017,-65.86895812171612
-0.15870000000000006,-66.20848883368372
-0.15970000000000018,-66.51972531965401
-0.16070000000000007,-66.81681469262568
-0.16170000000000018,-67.128051178596
-0.16270000000000007,-67.39684632557035
-0.16370000000000018,-67.693935698542
-0.16470000000000007,-68.04761352350828
-0.16570000000000018,-68.38714423547587
-0.16670000000000007,-68.78326339943808
-0.16770000000000018,-69.1793825634003
-0.16870000000000007,-69.57550172736251
-0.16970000000000018,-69.95747377832606
-0.17070000000000007,-70.26871026429637
-0.17170000000000019,-70.57994675026669
-0.17270000000000008,-70.87703612323833
-0.1737000000000002,-71.1458312702127
-0.17470000000000008,-71.48536198218031
-0.1757000000000002,-71.75415712915466
-0.17670000000000008,-72.10783495412092
-0.1777000000000002,-72.48980700508447
-0.17870000000000008,-72.8859261690467
-0.1797000000000002,-73.32448667200485
-0.18070000000000008,-73.6781644969711
-0.1817000000000002,-74.10257788693062
-0.18270000000000008,-74.45625571189689
-0.1837000000000002,-74.76749219786718
-0.1847000000000001,-75.06458157083884
-0.1857000000000002,-75.33337671781321
-0.1867000000000001,-75.6729074297808
-0.1877000000000002,-75.98414391575112
-0.1887000000000001,-76.38026307971333
-0.1897000000000002,-76.81882358267148
-0.1907000000000001,-77.20079563363505
-0.1917000000000001,-77.63935613659322
-0.19269999999999998,-78.03547530055542
-0.1937000000000001,-78.38915312552167
-0.19469999999999998,-78.77112517648524
-0.1957000000000001,-79.08236166245555
-0.19669999999999999,-79.37945103542721
-0.1977000000000001,-79.69068752139752
-0.1987,-80.04436534636378
-0.1997000000000001,-80.42633739732734
-0.2007,-80.82245656128954
-0.2017000000000001,-81.26101706424771
-0.2027,-81.69957756720586
-0.2037000000000001,-82.18057940915998
-0.2047,-82.61913991211814
-0.2057000000000001,-83.0011119630817
-0.2067,-83.35478978804795
-0.2077000000000001,-83.66602627401826
-0.2087,-84.00555698598588
-0.2097000000000001,-84.31679347195619
-0.2107,-84.6563241839238
-0.2117000000000001,-85.09488468688197
-0.2127,-85.53344518984011
-0.2137000000000001,-85.97200569279828
-0.2147,-86.45300753475239
-0.2157000000000001,-86.89156803771054
-0.2167,-87.33012854066871
-0.21770000000000012,-87.71210059163228
-0.2187,-88.06577841659853
-0.21970000000000012,-88.46189758056073
-0.2207,-88.7589869535324
-0.22170000000000012,-89.15510611749461
-0.2227,-89.55122528145681
-0.22370000000000012,-89.98978578441499
-0.2247,-90.41419917437449
-0.22570000000000012,-90.89520101632861
-0.2267,-91.37620285828272
-0.22770000000000012,-91.81476336124088
-0.22870000000000001,-92.29576520319499
-0.22970000000000013,-92.6918843671572
-0.23070000000000002,-93.03141507912481
-0.23170000000000013,-93.38509290409107
-0.23270000000000002,-93.78121206805329
-0.23370000000000013,-94.13488989301955
-0.23470000000000002,-94.55930328297906
-0.23570000000000013,-94.99786378593721
-0.23670000000000002,-95.47886562789132
-0.2376999999999999,-95.95986746984543
-0.23870000000000002,-96.4833106507955
-0.2396999999999999,-96.92187115375367
-0.24070000000000003,-97.36043165671182
-0.24169999999999991,-97.78484504667132
-0.24270000000000003,-98.18096421063355
-0.24369999999999992,-98.5346420355998
-0.24470000000000003,-98.93076119956201
-0.24569999999999992,-99.35517458952152
-0.24670000000000003,-99.7937350924797
-0.24769999999999992,-100.2747369344338
-0.24870000000000003,-100.75573877638791
-0.24969999999999992,-101.32162329633393
-0.25070000000000003,-101.80262513828804
-0.2516999999999999,-102.3260683192381
-0.25270000000000004,-102.76462882219626
-0.2536999999999999,-103.16074798615847
-0.25470000000000004,-103.59930848911664
-0.2556999999999999,-103.93883920108425
-0.25670000000000004,-104.41984104303836
-0.25769999999999993,-104.85840154599651
-0.25870000000000004,-105.33940338795064
-0.25969999999999993,-105.82040522990474
-0.26070000000000004,-106.30140707185885
-0.26169999999999993,-106.82485025280893
-0.26270000000000004,-107.34829343375898
-0.26369999999999993,-107.87173661470905
-0.26470000000000005,-108.3102971176672
-0.26569999999999994,-108.73471050762672
-0.26670000000000005,-109.17327101058488
-0.26769999999999994,-109.61183151354304
-0.26870000000000005,-110.00795067750525
-0.26969999999999994,-110.48895251945936
-0.27070000000000005,-111.01239570040943
-0.27169999999999994,-111.5358388813595
-0.27270000000000005,-112.10172340130552
-0.27369999999999994,-112.62516658225556
-0.27470000000000006,-113.19105110220158
-0.27569999999999995,-113.67205294415571
-0.27670000000000006,-114.1530547861098
-0.27769999999999995,-114.57746817606933
-0.27870000000000006,-115.01602867902749
-0.27969999999999995,-115.4970305209816
-0.28070000000000006,-115.97803236293572
-0.28169999999999995,-116.45903420488982
-0.28270000000000006,-117.02491872483584
-0.28369999999999995,-117.59080324478184
-0.28470000000000006,-118.11424642573192
-0.28569999999999995,-118.63768960668197
-0.28670000000000007,-119.20357412662798
-0.28769999999999996,-119.68457596858211
-0.28870000000000007,-120.16557781053622
-0.28969999999999996,-120.60413831349437
-0.29070000000000007,-121.04269881645253
-0.29169999999999996,-121.52370065840667
-0.29270000000000007,-122.0471438393567
-0.29369999999999996,-122.57058702030677
-0.2947000000000001,-123.09403020125686
-0.29569999999999996,-123.65991472120285
-0.2967000000000001,-124.26824058014482
-0.29769999999999996,-124.83412510009084
-0.2987000000000001,-125.40000962003687
-0.29969999999999997,-125.88101146199097
-0.3007000000000001,-126.40445464294103
-0.30169999999999997,-126.88545648489513
-0.3027000000000001,-127.36645832684925
-0.30369999999999997,-127.88990150779931
-0.3047000000000001,-128.41334468874936
-0.30569999999999997,-128.93678786969946
-0.3067000000000001,-129.50267238964545
-0.3077,-130.11099824858744
-0.3087000000000001,-130.76176544652535
-0.3097,-131.32764996647134
-0.3107000000000001,-131.8510931474214
-0.3117,-132.33209498937555
-0.3127000000000001,-132.8555381703256
-0.3137,-133.37898135127566
-0.3147000000000001,-133.90242453222572
-0.3157,-134.42586771317576
-0.3167000000000001,-134.9917522331218
-0.3177,-135.6142252050624
-0.3187000000000001,-136.2225510640044
-0.3197,-136.83087692294635
-0.3207000000000001,-137.43920278188833
-0.3217,-138.04752864083028
-0.3227000000000001,-138.61341316077628
-0.3237,-139.13685634172634
-0.3247000000000001,-139.70274086167237
-0.3257,-140.18374270362645
-0.3267000000000001,-140.70718588457655
-0.3277,-141.27307040452254
-0.3287000000000001,-141.89554337646317
-0.3297,-142.4614278964092
-0.3307000000000001,-143.16878354634173
-0.3317,-143.73466806628772
-0.3327000000000001,-144.30055258623375
-0.3337,-144.86643710617977
-0.3347000000000001,-145.43232162612577
-0.3357,-145.9982061460718
-0.3367000000000001,-146.5640906660178
-0.3377,-146.9885040559773
-0.3387000000000001,-147.55438857592333
-0.3397,-148.12027309586935
-0.3407000000000001,-148.68615761581535
-0.3417,-149.39351326574788
-0.3427000000000001,-149.95939778569388
-0.3437,-150.66675343562642
-0.3447000000000001,-151.37410908555893
-0.3457,-151.93999360550492
-0.3467000000000001,-152.36440699546444
-0.3477,-152.93029151541046
-0.3487000000000001,-153.49617603535648
-0.3497,-154.0620605553025
-0.3507000000000001,-154.6279450752485
-0.3517,-155.19382959519453
-0.3527000000000001,-155.75971411514055
-0.3537,-156.46706976507306
-0.3547000000000001,-157.17442541500557
-0.3557,-157.7403099349516
-0.35670000000000013,-158.3061944548976
-0.3577,-159.01355010483013
-0.35870000000000013,-159.43796349478964
-0.3597,-160.00384801473567
-0.36070000000000013,-160.5697325346817
-0.3617,-161.1356170546277
-0.3626999999999999,-161.70150157457368
-0.3637,-162.2673860945197
-0.3646999999999999,-162.8332706144657
-0.3657,-163.54062626439824
-0.3666999999999999,-164.24798191433075
-0.3677,-164.81386643427678
-0.3686999999999999,-165.5212220842093
-0.36970000000000003,-166.0871066041553
-0.3706999999999999,-166.65299112410133
-0.37170000000000003,-167.21887564404733
-0.3726999999999999,-167.6432890340068
-0.37370000000000003,-168.20917355395284
-0.3746999999999999,-168.91652920388537
-0.37570000000000003,-169.48241372383137
-0.3766999999999999,-170.18976937376394
-0.37770000000000004,-170.89712502369645
-0.3786999999999999,-171.46300954364247
-0.37970000000000004,-172.17036519357498
-0.3806999999999999,-172.73624971352098
-0.38170000000000004,-173.302134233467
-0.38269999999999993,-173.86801875341303
-0.38370000000000004,-174.43390327335902
-0.38469999999999993,-174.99978779330505
-0.38570000000000004,-175.56567231325104
-0.38669999999999993,-176.13155683319707
-0.38770000000000004,-176.8389124831296
-0.38869999999999993,-177.54626813306209
-0.38970000000000005,-178.25362378299462
-0.39069999999999994,-178.81950830294062
-0.39170000000000005,-179.52686395287316
-0.39269999999999994,-180.09274847281918
-0.39370000000000005,-180.65863299276518
-0.39469999999999994,-181.2245175127112
-0.39570000000000005,-181.79040203265723
-0.39669999999999994,-182.35628655260325
-0.39770000000000005,-182.92217107254925
-0.39869999999999994,-183.62952672248176
-0.39970000000000006,-184.19541124242778
-0.40069999999999995,-184.7612957623738
-0.40170000000000006,-185.6101225422928
-0.40269999999999995,-186.17600706223882
-0.40370000000000006,-186.88336271217133
-0.40469999999999995,-187.30777610213087
-0.40570000000000006,-187.87366062207687
-0.40669999999999995,-188.4395451420229
-0.40770000000000006,-189.0054296619689
-0.40869999999999995,-189.71278531190143
-0.40970000000000006,-190.27866983184742
-0.41069999999999995,-190.84455435179345
-0.41170000000000007,-191.551910001726
-0.41269999999999996,-192.2592656516585
-0.41370000000000007,-192.82515017160452
-0.41469999999999996,-193.532505821537
-0.41570000000000007,-194.09839034148303
-0.41669999999999996,-194.66427486142905
-0.41770000000000007,-195.23015938137505
-0.41869999999999996,-195.65457277133459
-0.4197000000000001,-196.2204572912806
-0.42069999999999996,-196.7863418112266
-0.4217000000000001,-197.35222633117263
-0.42269999999999996,-198.05958198110514
-0.4237000000000001,-198.62546650105114
-0.42469999999999997,-199.33282215098367
-0.4257000000000001,-199.89870667092967
-0.42669999999999997,-200.4645911908757
-0.4277000000000001,-201.03047571082172
-0.42869999999999997,-201.59636023076774
-0.4297000000000001,-202.02077362072723
-0.43069999999999997,-202.58665814067325
-0.4317000000000001,-203.15254266061928
-0.4327,-203.71842718056527
-0.4337000000000001,-204.2843117005113
-0.4347,-204.8501962204573
-0.4357000000000001,-205.41608074040332
-0.4367,-206.12343639033585
-0.4377000000000001,-206.68932091028185
-0.4387,-207.25520543022787
-0.4397000000000001,-207.67961882018741
-0.4407,-208.1040322101469
-0.4417000000000001,-208.6699167300929
-0.4427,-209.0943301200524
-0.4437000000000001,-209.66021463999843
-0.4447,-210.08462802995794
-0.4457000000000001,-210.65051254990397
-0.4467,-211.21639706985
-0.4477000000000001,-211.782281589796
-0.4487,-212.34816610974204
-0.4497000000000001,-212.914050629688
-0.4507,-213.33846401964755
-0.4517000000000001,-213.76287740960703
-0.4527,-214.32876192955305
-0.4537000000000001,-214.75317531951256
-0.4547,-215.17758870947208
-0.4557000000000001,-215.6020020994316
-0.4567,-216.0264154893911
-0.4577000000000001,-216.4508288793506
-0.4587,-217.01671339929663
-0.4597000000000001,-217.58259791924263
-0.4607,-218.14848243918865
-0.4617000000000001,-218.57289582914817
-0.4627,-218.99730921910768
-0.4637000000000001,-219.5631937390537
-0.4647,-219.98760712901318
-0.4657000000000001,-220.41202051897272
-0.4667,-220.6949627789457
-0.4677000000000001,-221.11937616890526
-0.4687,-221.54378955886475
-0.4697000000000001,-222.10967407881074
-0.4707,-222.6755585987568
-0.4717000000000001,-223.09997198871628
-0.4727,-223.52438537867582
-0.4737000000000001,-224.09026989862178
-0.4747,-224.37321215859478
-0.4757000000000001,-224.79762554855435
-0.4767,-225.08056780852735
-0.4777000000000001,-225.36351006850035
-0.4787,-225.78792345845983
-0.4797000000000001,-226.07086571843288
-0.4807,-226.49527910839237
-0.48170000000000013,-226.91969249835188
-0.4827,-227.34410588831142
-0.48370000000000013,-227.7685192782709
-0.4847,-228.1929326682304
-0.48570000000000013,-228.61734605818995
-0.4867,-227.9099904082574
-0.48570000000000013,-225.50498119848683
-0.4847,-223.2414431187028
-0.48370000000000013,-221.11937616890526
-0.4827,-219.13878034909416
-0.48170000000000013,-217.15818452928315
-0.4807,-215.31905983945856
-0.4797000000000001,-213.47993514963403
-0.4787,-211.64081045980947
-0.4777000000000001,-209.8016857699849
-0.4767,-208.1040322101469
-0.4757000000000001,-206.26490752032234
-0.4747,-204.42578283049778
-0.4737000000000001,-202.58665814067325
-0.4727,-200.7475334508487
-0.4717000000000001,-199.04987989101065
-0.4707,-197.21075520118612
-0.4697000000000001,-195.51310164134807
-0.4687,-193.81544808151003
-0.4677000000000001,-192.11779452167198
-0.4667,-190.56161209182042
-0.4657000000000001,-188.8639585319824
-0.4647,-187.16630497214436
