Dec. 13, 2024   10:35:52
Cyclic Voltammetry
File: c:/users/guazh/data/banditlqround7_x0exp59_r20/2024-12-09-exp647\exp647-2024-12-13t10_28_36-h2koh\exp647_cv_sr_500mvs_efin_-1400mv.bin
Data Source:  Experiment
Instrument Model:  CHI760E
Header: CV ran at 500 mVs
Note: 

Init E (V) = -1
High E (V) = -1
Low E (V) = -1.4
Final E (V) = -1
Init P/N = N
Scan Rate (V/s) = 0.5
Segment = 3
Sample Interval (V) = 0.001
Quiet Time (sec) = 2
Sensitivity (A/V) = 0.01
Comp R (ohm) = 1.2

Results:

Channel 1:
Segment 1:

Segment 2:

Segment 3:

Potential/V, Current/A

-1.000, -4.301e-5
-1.001, 4.949e-5
-1.002, 1.327e-4
-1.003, 2.067e-4
-1.004, 2.746e-4
-1.005, 3.362e-4
-1.006, 3.886e-4
-1.007, 4.318e-4
-1.008, 4.719e-4
-1.009, 5.120e-4
-1.010, 5.520e-4
-1.011, 5.921e-4
-1.012, 6.353e-4
-1.013, 6.723e-4
-1.014, 7.031e-4
-1.015, 7.309e-4
-1.016, 7.555e-4
-1.017, 7.802e-4
-1.018, 8.048e-4
-1.019, 8.326e-4
-1.020, 8.603e-4
-1.021, 8.912e-4
-1.022, 9.158e-4
-1.023, 9.343e-4
-1.024, 9.528e-4
-1.025, 9.683e-4
-1.026, 9.898e-4
-1.027, 1.008e-3
-1.028, 1.033e-3
-1.029, 1.058e-3
-1.030, 1.079e-3
-1.031, 1.098e-3
-1.032, 1.113e-3
-1.033, 1.125e-3
-1.034, 1.141e-3
-1.035, 1.156e-3
-1.036, 1.178e-3
-1.037, 1.199e-3
-1.038, 1.218e-3
-1.039, 1.236e-3
-1.040, 1.249e-3
-1.041, 1.261e-3
-1.042, 1.273e-3
-1.043, 1.289e-3
-1.044, 1.307e-3
-1.045, 1.329e-3
-1.046, 1.347e-3
-1.047, 1.366e-3
-1.048, 1.381e-3
-1.049, 1.391e-3
-1.050, 1.403e-3
-1.051, 1.415e-3
-1.052, 1.431e-3
-1.053, 1.452e-3
-1.054, 1.471e-3
-1.055, 1.489e-3
-1.056, 1.502e-3
-1.057, 1.514e-3
-1.058, 1.523e-3
-1.059, 1.536e-3
-1.060, 1.551e-3
-1.061, 1.566e-3
-1.062, 1.588e-3
-1.063, 1.603e-3
-1.064, 1.619e-3
-1.065, 1.628e-3
-1.066, 1.637e-3
-1.067, 1.647e-3
-1.068, 1.659e-3
-1.069, 1.674e-3
-1.070, 1.693e-3
-1.071, 1.711e-3
-1.072, 1.724e-3
-1.073, 1.736e-3
-1.074, 1.742e-3
-1.075, 1.748e-3
-1.076, 1.761e-3
-1.077, 1.770e-3
-1.078, 1.785e-3
-1.079, 1.804e-3
-1.080, 1.816e-3
-1.081, 1.825e-3
-1.082, 1.832e-3
-1.083, 1.835e-3
-1.084, 1.841e-3
-1.085, 1.850e-3
-1.086, 1.862e-3
-1.087, 1.878e-3
-1.088, 1.890e-3
-1.089, 1.899e-3
-1.090, 1.902e-3
-1.091, 1.902e-3
-1.092, 1.906e-3
-1.093, 1.912e-3
-1.094, 1.918e-3
-1.095, 1.930e-3
-1.096, 1.939e-3
-1.097, 1.949e-3
-1.098, 1.949e-3
-1.099, 1.949e-3
-1.100, 1.946e-3
-1.101, 1.949e-3
-1.102, 1.952e-3
-1.103, 1.961e-3
-1.104, 1.967e-3
-1.105, 1.970e-3
-1.106, 1.973e-3
-1.107, 1.970e-3
-1.108, 1.964e-3
-1.109, 1.961e-3
-1.110, 1.961e-3
-1.111, 1.964e-3
-1.112, 1.970e-3
-1.113, 1.973e-3
-1.114, 1.970e-3
-1.115, 1.964e-3
-1.116, 1.958e-3
-1.117, 1.952e-3
-1.118, 1.946e-3
-1.119, 1.946e-3
-1.120, 1.946e-3
-1.121, 1.946e-3
-1.122, 1.943e-3
-1.123, 1.933e-3
-1.124, 1.924e-3
-1.125, 1.912e-3
-1.126, 1.906e-3
-1.127, 1.896e-3
-1.128, 1.893e-3
-1.129, 1.893e-3
-1.130, 1.887e-3
-1.131, 1.878e-3
-1.132, 1.865e-3
-1.133, 1.853e-3
-1.134, 1.838e-3
-1.135, 1.828e-3
-1.136, 1.822e-3
-1.137, 1.819e-3
-1.138, 1.810e-3
-1.139, 1.801e-3
-1.140, 1.785e-3
-1.141, 1.770e-3
-1.142, 1.758e-3
-1.143, 1.742e-3
-1.144, 1.736e-3
-1.145, 1.727e-3
-1.146, 1.721e-3
-1.147, 1.708e-3
-1.148, 1.696e-3
-1.149, 1.677e-3
-1.150, 1.662e-3
-1.151, 1.650e-3
-1.152, 1.637e-3
-1.153, 1.631e-3
-1.154, 1.625e-3
-1.155, 1.616e-3
-1.156, 1.600e-3
-1.157, 1.585e-3
-1.158, 1.569e-3
-1.159, 1.554e-3
-1.160, 1.542e-3
-1.161, 1.536e-3
-1.162, 1.529e-3
-1.163, 1.520e-3
-1.164, 1.511e-3
-1.165, 1.495e-3
-1.166, 1.480e-3
-1.167, 1.468e-3
-1.168, 1.455e-3
-1.169, 1.449e-3
-1.170, 1.443e-3
-1.171, 1.437e-3
-1.172, 1.431e-3
-1.173, 1.418e-3
-1.174, 1.403e-3
-1.175, 1.388e-3
-1.176, 1.378e-3
-1.177, 1.372e-3
-1.178, 1.369e-3
-1.179, 1.366e-3
-1.180, 1.360e-3
-1.181, 1.351e-3
-1.182, 1.338e-3
-1.183, 1.323e-3
-1.184, 1.310e-3
-1.185, 1.304e-3
-1.186, 1.301e-3
-1.187, 1.298e-3
-1.188, 1.295e-3
-1.189, 1.286e-3
-1.190, 1.277e-3
-1.191, 1.264e-3
-1.192, 1.252e-3
-1.193, 1.243e-3
-1.194, 1.240e-3
-1.195, 1.236e-3
-1.196, 1.236e-3
-1.197, 1.230e-3
-1.198, 1.224e-3
-1.199, 1.212e-3
-1.200, 1.203e-3
-1.201, 1.193e-3
-1.202, 1.187e-3
-1.203, 1.187e-3
-1.204, 1.187e-3
-1.205, 1.184e-3
-1.206, 1.175e-3
-1.207, 1.166e-3
-1.208, 1.153e-3
-1.209, 1.147e-3
-1.210, 1.141e-3
-1.211, 1.141e-3
-1.212, 1.144e-3
-1.213, 1.141e-3
-1.214, 1.135e-3
-1.215, 1.125e-3
-1.216, 1.113e-3
-1.217, 1.107e-3
-1.218, 1.101e-3
-1.219, 1.098e-3
-1.220, 1.101e-3
-1.221, 1.101e-3
-1.222, 1.098e-3
-1.223, 1.088e-3
-1.224, 1.079e-3
-1.225, 1.070e-3
-1.226, 1.064e-3
-1.227, 1.061e-3
-1.228, 1.061e-3
-1.229, 1.067e-3
-1.230, 1.064e-3
-1.231, 1.058e-3
-1.232, 1.048e-3
-1.233, 1.039e-3
-1.234, 1.033e-3
-1.235, 1.030e-3
-1.236, 1.030e-3
-1.237, 1.030e-3
-1.238, 1.030e-3
-1.239, 1.027e-3
-1.240, 1.021e-3
-1.241, 1.011e-3
-1.242, 1.005e-3
-1.243, 9.991e-4
-1.244, 9.991e-4
-1.245, 1.002e-3
-1.246, 1.002e-3
-1.247, 1.002e-3
-1.248, 9.960e-4
-1.249, 9.868e-4
-1.250, 9.806e-4
-1.251, 9.744e-4
-1.252, 9.744e-4
-1.253, 9.744e-4
-1.254, 9.806e-4
-1.255, 9.806e-4
-1.256, 9.775e-4
-1.257, 9.713e-4
-1.258, 9.621e-4
-1.259, 9.559e-4
-1.260, 9.528e-4
-1.261, 9.528e-4
-1.262, 9.559e-4
-1.263, 9.590e-4
-1.264, 9.590e-4
-1.265, 9.528e-4
-1.266, 9.467e-4
-1.267, 9.405e-4
-1.268, 9.374e-4
-1.269, 9.374e-4
-1.270, 9.436e-4
-1.271, 9.467e-4
-1.272, 9.467e-4
-1.273, 9.405e-4
-1.274, 9.374e-4
-1.275, 9.282e-4
-1.276, 9.251e-4
-1.277, 9.282e-4
-1.278, 9.343e-4
-1.279, 9.374e-4
-1.280, 9.405e-4
-1.281, 9.405e-4
-1.282, 9.313e-4
-1.283, 9.282e-4
-1.284, 9.220e-4
-1.285, 9.251e-4
-1.286, 9.282e-4
-1.287, 9.343e-4
-1.288, 9.374e-4
-1.289, 9.374e-4
-1.290, 9.343e-4
-1.291, 9.313e-4
-1.292, 9.282e-4
-1.293, 9.282e-4
-1.294, 9.313e-4
-1.295, 9.374e-4
-1.296, 9.405e-4
-1.297, 9.467e-4
-1.298, 9.436e-4
-1.299, 9.405e-4
-1.300, 9.374e-4
-1.301, 9.374e-4
-1.302, 9.405e-4
-1.303, 9.467e-4
-1.304, 9.559e-4
-1.305, 9.621e-4
-1.306, 9.621e-4
-1.307, 9.621e-4
-1.308, 9.559e-4
-1.309, 9.559e-4
-1.310, 9.621e-4
-1.311, 9.713e-4
-1.312, 9.806e-4
-1.313, 9.837e-4
-1.314, 9.868e-4
-1.315, 9.837e-4
-1.316, 9.837e-4
-1.317, 9.837e-4
-1.318, 9.898e-4
-1.319, 9.960e-4
-1.320, 1.005e-3
-1.321, 1.014e-3
-1.322, 1.021e-3
-1.323, 1.024e-3
-1.324, 1.024e-3
-1.325, 1.024e-3
-1.326, 1.027e-3
-1.327, 1.036e-3
-1.328, 1.045e-3
-1.329, 1.058e-3
-1.330, 1.067e-3
-1.331, 1.070e-3
-1.332, 1.073e-3
-1.333, 1.073e-3
-1.334, 1.079e-3
-1.335, 1.088e-3
-1.336, 1.098e-3
-1.337, 1.113e-3
-1.338, 1.125e-3
-1.339, 1.132e-3
-1.340, 1.138e-3
-1.341, 1.141e-3
-1.342, 1.147e-3
-1.343, 1.156e-3
-1.344, 1.169e-3
-1.345, 1.184e-3
-1.346, 1.199e-3
-1.347, 1.212e-3
-1.348, 1.218e-3
-1.349, 1.227e-3
-1.350, 1.233e-3
-1.351, 1.243e-3
-1.352, 1.261e-3
-1.353, 1.277e-3
-1.354, 1.298e-3
-1.355, 1.314e-3
-1.356, 1.326e-3
-1.357, 1.338e-3
-1.358, 1.351e-3
-1.359, 1.363e-3
-1.360, 1.381e-3
-1.361, 1.400e-3
-1.362, 1.421e-3
-1.363, 1.443e-3
-1.364, 1.462e-3
-1.365, 1.477e-3
-1.366, 1.492e-3
-1.367, 1.511e-3
-1.368, 1.529e-3
-1.369, 1.554e-3
-1.370, 1.582e-3
-1.371, 1.606e-3
-1.372, 1.631e-3
-1.373, 1.653e-3
-1.374, 1.674e-3
-1.375, 1.696e-3
-1.376, 1.721e-3
-1.377, 1.751e-3
-1.378, 1.782e-3
-1.379, 1.819e-3
-1.380, 1.850e-3
-1.381, 1.881e-3
-1.382, 1.909e-3
-1.383, 1.936e-3
-1.384, 1.967e-3
-1.385, 2.001e-3
-1.386, 2.041e-3
-1.387, 2.084e-3
-1.388, 2.128e-3
-1.389, 2.164e-3
-1.390, 2.205e-3
-1.391, 2.238e-3
-1.392, 2.279e-3
-1.393, 2.322e-3
-1.394, 2.374e-3
-1.395, 2.427e-3
-1.396, 2.482e-3
-1.397, 2.534e-3
-1.398, 2.584e-3
-1.399, 2.633e-3
-1.400, 2.608e-3
-1.399, 2.488e-3
-1.398, 2.408e-3
-1.397, 2.349e-3
-1.396, 2.309e-3
-1.395, 2.269e-3
-1.394, 2.232e-3
-1.393, 2.192e-3
-1.392, 2.155e-3
-1.391, 2.121e-3
-1.390, 2.091e-3
-1.389, 2.066e-3
-1.388, 2.041e-3
-1.387, 2.017e-3
-1.386, 1.989e-3
-1.385, 1.958e-3
-1.384, 1.924e-3
-1.383, 1.893e-3
-1.382, 1.862e-3
-1.381, 1.838e-3
-1.380, 1.810e-3
-1.379, 1.788e-3
-1.378, 1.761e-3
-1.377, 1.730e-3
-1.376, 1.699e-3
-1.375, 1.665e-3
-1.374, 1.634e-3
-1.373, 1.610e-3
-1.372, 1.585e-3
-1.371, 1.560e-3
-1.370, 1.536e-3
-1.369, 1.508e-3
-1.368, 1.474e-3
-1.367, 1.440e-3
-1.366, 1.409e-3
-1.365, 1.384e-3
-1.364, 1.360e-3
-1.363, 1.335e-3
-1.362, 1.310e-3
-1.361, 1.283e-3
-1.360, 1.252e-3
-1.359, 1.221e-3
-1.358, 1.190e-3
-1.357, 1.162e-3
-1.356, 1.138e-3
-1.355, 1.119e-3
-1.354, 1.095e-3
-1.353, 1.067e-3
-1.352, 1.039e-3
-1.351, 1.005e-3
-1.350, 9.744e-4
-1.349, 9.467e-4
-1.348, 9.251e-4
-1.347, 9.035e-4
-1.346, 8.819e-4
-1.345, 8.603e-4
-1.344, 8.326e-4
-1.343, 8.018e-4
-1.342, 7.709e-4
-1.341, 7.432e-4
-1.340, 7.216e-4
-1.339, 7.000e-4
-1.338, 6.815e-4
-1.337, 6.599e-4
-1.336, 6.384e-4
-1.335, 6.106e-4
-1.334, 5.829e-4
-1.333, 5.582e-4
-1.332, 5.366e-4
-1.331, 5.150e-4
-1.330, 4.996e-4
-1.329, 4.842e-4
-1.328, 4.657e-4
-1.327, 4.410e-4
-1.326, 4.164e-4
-1.325, 3.917e-4
-1.324, 3.701e-4
-1.323, 3.516e-4
-1.322, 3.393e-4
-1.321, 3.239e-4
-1.320, 3.085e-4
-1.319, 2.900e-4
-1.318, 2.653e-4
-1.317, 2.437e-4
-1.316, 2.252e-4
-1.315, 2.098e-4
-1.314, 1.975e-4
-1.313, 1.882e-4
-1.312, 1.728e-4
-1.311, 1.574e-4
-1.310, 1.389e-4
-1.309, 1.204e-4
-1.308, 1.019e-4
-1.307, 8.957e-5
-1.306, 7.723e-5
-1.305, 6.798e-5
-1.304, 5.873e-5
-1.303, 4.949e-5
-1.302, 3.099e-5
-1.301, 1.557e-5
-1.300, -2.927e-6
-1.299, -1.526e-5
-1.298, -2.451e-5
-1.297, -3.068e-5
-1.296, -3.376e-5
-1.295, -4.609e-5
-1.294, -5.842e-5
-1.293, -7.076e-5
-1.292, -8.617e-5
-1.291, -9.850e-5
-1.290, -1.078e-4
-1.289, -1.108e-4
-1.288, -1.139e-4
-1.287, -1.201e-4
-1.286, -1.293e-4
-1.285, -1.417e-4
-1.284, -1.540e-4
-1.283, -1.663e-4
-1.282, -1.725e-4
-1.281, -1.787e-4
-1.280, -1.817e-4
-1.279, -1.848e-4
-1.278, -1.910e-4
-1.277, -1.972e-4
-1.276, -2.095e-4
-1.275, -2.218e-4
-1.274, -2.311e-4
-1.273, -2.342e-4
-1.272, -2.342e-4
-1.271, -2.342e-4
-1.270, -2.372e-4
-1.269, -2.434e-4
-1.268, -2.557e-4
-1.267, -2.650e-4
-1.266, -2.742e-4
-1.265, -2.773e-4
-1.264, -2.773e-4
-1.263, -2.773e-4
-1.262, -2.773e-4
-1.261, -2.835e-4
-1.260, -2.927e-4
-1.259, -3.020e-4
-1.258, -3.082e-4
-1.257, -3.143e-4
-1.256, -3.143e-4
-1.255, -3.112e-4
-1.254, -3.112e-4
-1.253, -3.143e-4
-1.252, -3.236e-4
-1.251, -3.297e-4
-1.250, -3.390e-4
-1.249, -3.452e-4
-1.248, -3.452e-4
-1.247, -3.421e-4
-1.246, -3.421e-4
-1.245, -3.421e-4
-1.244, -3.482e-4
-1.243, -3.544e-4
-1.242, -3.637e-4
-1.241, -3.698e-4
-1.240, -3.698e-4
-1.239, -3.698e-4
-1.238, -3.667e-4
-1.237, -3.698e-4
-1.236, -3.698e-4
-1.235, -3.760e-4
-1.234, -3.852e-4
-1.233, -3.914e-4
-1.232, -3.945e-4
-1.231, -3.945e-4
-1.230, -3.914e-4
-1.229, -3.914e-4
-1.228, -3.945e-4
-1.227, -3.976e-4
-1.226, -4.037e-4
-1.225, -4.130e-4
-1.224, -4.161e-4
-1.223, -4.161e-4
-1.222, -4.130e-4
-1.221, -4.099e-4
-1.220, -4.099e-4
-1.219, -4.161e-4
-1.218, -4.222e-4
-1.217, -4.315e-4
-1.216, -4.346e-4
-1.215, -4.376e-4
-1.214, -4.376e-4
-1.213, -4.315e-4
-1.212, -4.315e-4
-1.211, -4.346e-4
-1.210, -4.407e-4
-1.209, -4.500e-4
-1.208, -4.531e-4
-1.207, -4.561e-4
-1.206, -4.561e-4
-1.205, -4.531e-4
-1.204, -4.531e-4
-1.203, -4.531e-4
-1.202, -4.592e-4
-1.201, -4.685e-4
-1.200, -4.746e-4
-1.199, -4.777e-4
-1.198, -4.777e-4
-1.197, -4.746e-4
-1.196, -4.746e-4
-1.195, -4.746e-4
-1.194, -4.777e-4
-1.193, -4.839e-4
-1.192, -4.931e-4
-1.191, -4.993e-4
-1.190, -4.993e-4
-1.189, -4.993e-4
-1.188, -4.962e-4
-1.187, -4.962e-4
-1.186, -4.993e-4
-1.185, -5.055e-4
-1.184, -5.116e-4
-1.183, -5.209e-4
-1.182, -5.240e-4
-1.181, -5.209e-4
-1.180, -5.209e-4
-1.179, -5.178e-4
-1.178, -5.209e-4
-1.177, -5.271e-4
-1.176, -5.332e-4
-1.175, -5.425e-4
-1.174, -5.486e-4
-1.173, -5.486e-4
-1.172, -5.486e-4
-1.171, -5.425e-4
-1.170, -5.425e-4
-1.169, -5.486e-4
-1.168, -5.548e-4
-1.167, -5.641e-4
-1.166, -5.733e-4
-1.165, -5.733e-4
-1.164, -5.733e-4
-1.163, -5.702e-4
-1.162, -5.702e-4
-1.161, -5.733e-4
-1.160, -5.826e-4
-1.159, -5.887e-4
-1.158, -5.949e-4
-1.157, -6.011e-4
-1.156, -6.011e-4
-1.155, -5.980e-4
-1.154, -5.980e-4
-1.153, -6.011e-4
-1.152, -6.072e-4
-1.151, -6.165e-4
-1.150, -6.257e-4
-1.149, -6.288e-4
-1.148, -6.319e-4
-1.147, -6.319e-4
-1.146, -6.288e-4
-1.145, -6.319e-4
-1.144, -6.350e-4
-1.143, -6.442e-4
-1.142, -6.535e-4
-1.141, -6.627e-4
-1.140, -6.658e-4
-1.139, -6.658e-4
-1.138, -6.658e-4
-1.137, -6.658e-4
-1.136, -6.689e-4
-1.135, -6.750e-4
-1.134, -6.843e-4
-1.133, -6.905e-4
-1.132, -6.997e-4
-1.131, -6.997e-4
-1.130, -6.997e-4
-1.129, -6.997e-4
-1.128, -7.028e-4
-1.127, -7.090e-4
-1.126, -7.182e-4
-1.125, -7.275e-4
-1.124, -7.367e-4
-1.123, -7.367e-4
-1.122, -7.398e-4
-1.121, -7.398e-4
-1.120, -7.398e-4
-1.119, -7.460e-4
-1.118, -7.583e-4
-1.117, -7.645e-4
-1.116, -7.768e-4
-1.115, -7.799e-4
-1.114, -7.830e-4
-1.113, -7.830e-4
-1.112, -7.860e-4
-1.111, -7.891e-4
-1.110, -7.984e-4
-1.109, -8.076e-4
-1.108, -8.169e-4
-1.107, -8.261e-4
-1.106, -8.261e-4
-1.105, -8.292e-4
-1.104, -8.292e-4
-1.103, -8.354e-4
-1.102, -8.446e-4
-1.101, -8.539e-4
-1.100, -8.662e-4
-1.099, -8.724e-4
-1.098, -8.785e-4
-1.097, -8.785e-4
-1.096, -8.816e-4
-1.095, -8.816e-4
-1.094, -8.909e-4
-1.093, -9.001e-4
-1.092, -9.155e-4
-1.091, -9.248e-4
-1.090, -9.309e-4
-1.089, -9.340e-4
-1.088, -9.340e-4
-1.087, -9.402e-4
-1.086, -9.433e-4
-1.085, -9.556e-4
-1.084, -9.679e-4
-1.083, -9.772e-4
-1.082, -9.864e-4
-1.081, -9.926e-4
-1.080, -9.926e-4
-1.079, -9.957e-4
-1.078, -1.002e-3
-1.077, -1.011e-3
-1.076, -1.027e-3
-1.075, -1.039e-3
-1.074, -1.051e-3
-1.073, -1.057e-3
-1.072, -1.057e-3
-1.071, -1.060e-3
-1.070, -1.067e-3
-1.069, -1.076e-3
-1.068, -1.091e-3
-1.067, -1.104e-3
-1.066, -1.116e-3
-1.065, -1.125e-3
-1.064, -1.128e-3
-1.063, -1.134e-3
-1.062, -1.141e-3
-1.061, -1.147e-3
-1.060, -1.159e-3
-1.059, -1.175e-3
-1.058, -1.187e-3
-1.057, -1.199e-3
-1.056, -1.205e-3
-1.055, -1.212e-3
-1.054, -1.215e-3
-1.053, -1.224e-3
-1.052, -1.236e-3
-1.051, -1.249e-3
-1.050, -1.264e-3
-1.049, -1.279e-3
-1.048, -1.289e-3
-1.047, -1.295e-3
-1.046, -1.298e-3
-1.045, -1.307e-3
-1.044, -1.319e-3
-1.043, -1.332e-3
-1.042, -1.350e-3
-1.041, -1.366e-3
-1.040, -1.378e-3
-1.039, -1.384e-3
-1.038, -1.390e-3
-1.037, -1.400e-3
-1.036, -1.409e-3
-1.035, -1.424e-3
-1.034, -1.443e-3
-1.033, -1.458e-3
-1.032, -1.474e-3
-1.031, -1.483e-3
-1.030, -1.492e-3
-1.029, -1.498e-3
-1.028, -1.511e-3
-1.027, -1.526e-3
-1.026, -1.548e-3
-1.025, -1.566e-3
-1.024, -1.581e-3
-1.023, -1.594e-3
-1.022, -1.603e-3
-1.021, -1.609e-3
-1.020, -1.625e-3
-1.019, -1.640e-3
-1.018, -1.659e-3
-1.017, -1.680e-3
-1.016, -1.696e-3
-1.015, -1.714e-3
-1.014, -1.723e-3
-1.013, -1.736e-3
-1.012, -1.745e-3
-1.011, -1.760e-3
-1.010, -1.785e-3
-1.009, -1.810e-3
-1.008, -1.831e-3
-1.007, -1.844e-3
-1.006, -1.856e-3
-1.005, -1.865e-3
-1.004, -1.881e-3
-1.003, -1.899e-3
-1.002, -1.921e-3
-1.001, -1.945e-3
