Potential V vs RHE, Current mA cm-2
0.05339999999999995,0.1629747417444522
0.05239999999999995,0.1508082245656129
0.051399999999999946,0.14130136463051984
0.050399999999999945,0.13393071875822302
0.049399999999999944,0.12743719389184252
0.04839999999999994,0.12159443622339991
0.04739999999999994,0.11619023905791546
0.04639999999999994,0.11115386683039592
0.04539999999999994,0.1061174946028764
0.04439999999999994,0.10134991752233123
0.04339999999999994,0.09686528270175906
0.04239999999999994,0.09253626612417204
0.04139999999999994,0.08844775046756209
0.040399999999999936,0.08435923481095214
0.039399999999999935,0.08032730760633679
0.038399999999999934,0.07647929287070389
0.03739999999999993,0.0728859261690467
0.03639999999999993,0.06936329503238275
0.03539999999999993,0.06588310523471475
0.03439999999999993,0.06230388564605621
0.03339999999999993,0.05902175543036933
0.03239999999999993,0.0558103607796757
0.03139999999999993,0.05282531993696047
0.030399999999999927,0.049840279094245245
0.029399999999999926,0.04667132578254756
0.028399999999999925,0.04364384360083638
0.027399999999999924,0.040814421001106306
0.026399999999999924,0.038041586853370835
0.025399999999999923,0.03522631136663941
0.024399999999999922,0.03241103587990799
0.02339999999999992,0.02969479018416712
0.02239999999999992,0.027162456957408702
0.02139999999999992,0.024630123730650287
0.020399999999999918,0.022097790503891875
0.019399999999999917,0.019551310164134805
0.018399999999999916,0.017103859615368294
0.017399999999999916,0.014812027309586936
0.016399999999999915,0.012491900777808273
0.015399999999999914,0.010116600505334878
0.014399999999999913,0.007761106191059591
0.013399999999999912,0.005421173701082821
0.012399999999999911,0.0032594948348890446
0.01139999999999991,0.001229950004102663
0.01039999999999991,-0.0010116600505334877
0.009399999999999908,-0.0032580801235891793
0.008399999999999908,-0.0053688293829878145
0.007399999999999907,-0.0073890371191950854
0.006399999999999906,-0.009324362177410455
0.005399999999999905,-0.011375693562214758
0.004399999999999904,-0.013468051574715149
0.003399999999999903,-0.015392058942531598
0.002399999999999902,-0.017273624971352097
0.0013999999999999013,-0.019112749661176646
0.00039999999999990044,-0.021036757028993096
-0.0006000000000001005,-0.0230597941878001
-0.0016000000000001013,-0.024814036199632745
-0.0026000000000001022,-0.02661071955046134
-0.003600000000000103,-0.028379108675292634
-0.004600000000000104,-0.030161644913122586
-0.005600000000000105,-0.03198662248994848
-0.006600000000000106,-0.033712570275783824
-0.007600000000000107,-0.03535363538362727
-0.008600000000000108,-0.03705128894346531
-0.009600000000000108,-0.03873479539030471
-0.01060000000000011,-0.040503184515136
-0.01160000000000011,-0.042214985187972696
-0.012600000000000111,-0.043912638747810734
-0.013600000000000112,-0.04546882117766228
-0.014600000000000113,-0.04710988628550572
-0.015600000000000114,-0.04876509850634782
-0.016600000000000115,-0.05040616361419126
-0.017600000000000116,-0.05189161047904954
-0.018600000000000116,-0.053405351569905134
-0.019600000000000117,-0.05501812245175128
-0.020600000000000118,-0.05661674622059877
-0.02160000000000012,-0.05815878153745166
-0.02260000000000012,-0.059573492837316694
-0.02360000000000012,-0.06100235125018039
-0.024600000000000122,-0.06257268079303058
-0.025600000000000123,-0.06418545167487671
-0.026600000000000124,-0.06571333987873097
-0.027600000000000124,-0.06712805117859601
-0.028600000000000125,-0.06850032113946508
-0.029600000000000126,-0.06999991511732201
-0.030600000000000127,-0.0715702446601722
-0.03160000000000013,-0.0730273972990332
-0.03260000000000013,-0.07439966725990228
-0.03360000000000013,-0.07577193722077137
-0.03460000000000002,-0.07728567831162694
-0.03560000000000002,-0.07879941940248254
-0.03660000000000002,-0.08022827781534624
-0.03760000000000002,-0.08161469488921397
-0.03860000000000002,-0.08298696485008306
-0.039600000000000024,-0.08438752903694943
-0.040600000000000025,-0.08588712301480637
-0.041600000000000026,-0.08721695163667952
-0.04260000000000003,-0.0885609273715513
-0.04360000000000003,-0.08990490310642309
-0.04460000000000003,-0.09129132018029082
-0.04560000000000003,-0.09281920838414506
-0.04660000000000003,-0.0942056254580128
-0.04760000000000003,-0.09550715985388863
-0.04860000000000003,-0.09686528270175906
-0.04960000000000003,-0.09823755266262815
-0.050600000000000034,-0.09970885241448779
-0.051600000000000035,-0.10112356371435283
-0.052600000000000036,-0.10239680388423136
-0.053600000000000037,-0.10375492673210178
-0.05460000000000004,-0.10507060824097628
-0.05560000000000004,-0.10654190799283592
-0.05660000000000004,-0.10795661929270095
-0.05760000000000004,-0.10921571234958084
-0.05860000000000004,-0.11054554097145397
-0.05960000000000004,-0.11200269361031497
-0.06060000000000004,-0.11343155202317864
-0.061600000000000044,-0.11484626332304368
-0.06260000000000004,-0.11616194483191816
-0.06360000000000005,-0.11750592056678995
-0.06460000000000005,-0.11893477897965361
-0.06560000000000005,-0.12034949027951866
-0.06660000000000005,-0.12172176024038774
-0.06760000000000005,-0.12302329463626359
-0.06860000000000005,-0.12436727037113537
-0.06960000000000005,-0.12576783455800175
-0.07060000000000005,-0.12718254585786679
-0.07160000000000005,-0.12861140427073048
-0.07260000000000005,-0.12998367423159957
-0.07360000000000005,-0.13124276728847944
-0.07460000000000006,-0.13267162570134314
-0.07560000000000006,-0.13418536679219872
-0.07660000000000006,-0.1355576367530678
-0.07760000000000006,-0.13691575960093824
-0.07860000000000006,-0.1382172939968141
-0.07960000000000006,-0.13966029952267642
-0.08060000000000006,-0.14120233483952932
-0.08160000000000006,-0.1426028990263957
-0.08260000000000006,-0.14401761032626076
-0.08360000000000006,-0.14529085049613927
-0.08460000000000006,-0.1467055617960043
-0.08560000000000006,-0.14826174422585583
-0.08660000000000007,-0.1496764555257209
-0.08760000000000007,-0.1510911668255859
-0.08860000000000007,-0.15250587812545094
-0.08960000000000007,-0.15392058942531597
-0.09060000000000007,-0.15547677185516753
-0.09160000000000007,-0.15703295428501907
-0.09260000000000007,-0.1583061944548976
-0.09360000000000007,-0.15986237688474914
-0.09460000000000007,-0.16127708818461417
-0.09560000000000007,-0.1628332706144657
-0.09660000000000007,-0.16438945304431726
-0.09760000000000008,-0.1658041643441823
-0.09860000000000008,-0.16736034677403386
-0.09960000000000008,-0.1689165292038854
-0.10060000000000008,-0.17033124050375043
-0.10160000000000008,-0.17174595180361546
-0.10260000000000008,-0.1731606631034805
-0.10360000000000008,-0.17471684553333205
-0.10460000000000008,-0.17627302796318356
-0.10560000000000008,-0.17782921039303512
-0.10660000000000008,-0.17952686395287318
-0.10760000000000008,-0.18108304638272468
-0.10860000000000009,-0.18249775768258975
-0.10960000000000009,-0.18419541124242778
-0.11060000000000009,-0.1858930648022658
-0.11160000000000009,-0.18759071836210386
-0.11260000000000009,-0.18914690079195542
-0.11360000000000009,-0.19070308322180693
-0.11460000000000009,-0.19254220791163149
-0.11560000000000009,-0.19438133260145604
-0.11660000000000009,-0.19593751503130757
-0.1176000000000001,-0.1974936974611591
-0.1186000000000001,-0.19919135102099716
-0.1196000000000001,-0.2007475334508487
-0.1206000000000001,-0.20258665814067325
-0.1216000000000001,-0.20428431170051128
-0.1226000000000001,-0.20598196526034934
-0.1236000000000001,-0.2076796188201874
-0.1246000000000001,-0.20937727238002546
-0.1256000000000001,-0.21135786819983648
-0.1266000000000001,-0.21305552175967452
-0.1276000000000001,-0.21489464644949907
-0.1286000000000001,-0.2167337711393236
-0.1296000000000001,-0.21843142469916169
-0.1306000000000001,-0.2204120205189727
-0.1316000000000001,-0.22225114520879727
-0.1326000000000001,-0.2239487987686353
-0.1336000000000001,-0.22578792345845985
-0.1346000000000001,-0.22776851927827088
-0.1356000000000001,-0.22974911509808196
-0.1366000000000001,-0.231729710917893
-0.1376000000000001,-0.23356883560771755
-0.1386000000000001,-0.2354079602975421
-0.1396000000000001,-0.23738855611735316
-0.1406000000000001,-0.2395106230671507
-0.14160000000000011,-0.24149121888696176
-0.14260000000000012,-0.24347181470677282
-0.14360000000000012,-0.24531093939659734
-0.14460000000000012,-0.24729153521640837
-0.14560000000000012,-0.24941360216620592
-0.14660000000000012,-0.2515356691160035
-0.14760000000000012,-0.2535162649358146
-0.14860000000000012,-0.25535538962563914
-0.14960000000000012,-0.2574774565754367
-0.15060000000000012,-0.25959952352523424
-0.15160000000000012,-0.2618630616050183
-0.15260000000000012,-0.2639851285548159
-0.15360000000000013,-0.2659657243746269
-0.15460000000000013,-0.26808779132442445
-0.15560000000000013,-0.27035132940420853
-0.15660000000000013,-0.2724733963540061
-0.15760000000000013,-0.27473693443379016
-0.15860000000000013,-0.2767175302536012
-0.15960000000000002,-0.27912253946337173
-0.16060000000000002,-0.2813860775431558
-0.16160000000000002,-0.28364961562293983
-0.16260000000000002,-0.2857716825727374
-0.16360000000000002,-0.2880352206525215
-0.16460000000000002,-0.29029875873230554
-0.16560000000000002,-0.29284523907206256
-0.16660000000000003,-0.2955331905418062
-0.16760000000000003,-0.2976552574916037
-0.16860000000000003,-0.2999187955713878
-0.16960000000000003,-0.3021823336511718
-0.17060000000000003,-0.3047288139909289
-0.17160000000000003,-0.3071338232006995
-0.17260000000000003,-0.3093973612804835
-0.17360000000000003,-0.3116608993602676
-0.17460000000000003,-0.3142073797000246
-0.17560000000000003,-0.31675386003978173
-0.17660000000000003,-0.31930034037953875
-0.17760000000000004,-0.3217053495893093
-0.17860000000000004,-0.32411035879907985
-0.17960000000000004,-0.32651536800885045
-0.18060000000000004,-0.329203319478594
-0.18160000000000004,-0.3318912709483376
-0.18260000000000004,-0.3342962801581082
-0.18360000000000004,-0.33684276049786527
-0.18460000000000004,-0.3395307119676088
-0.18560000000000004,-0.3422186634373524
-0.18660000000000004,-0.34490661490709595
-0.18760000000000004,-0.347453095246853
-0.18860000000000005,-0.3499995755866101
-0.18960000000000005,-0.35268752705635364
-0.19060000000000005,-0.35551694965608377
-0.19160000000000005,-0.3583463722558138
-0.19260000000000005,-0.3610343237255574
-0.19360000000000005,-0.36358080406531446
-0.19460000000000005,-0.36641022666504447
-0.19560000000000005,-0.36909817813478807
-0.19660000000000005,-0.3720690718645046
-0.19760000000000005,-0.3747570233342482
-0.19860000000000005,-0.37744497480399175
-0.19960000000000006,-0.38041586853370835
-0.20060000000000006,-0.3832452911334384
-0.20160000000000006,-0.386216184863155
-0.20260000000000006,-0.3890456074628851
-0.20360000000000006,-0.39187503006261515
-0.20460000000000006,-0.3945629815323587
-0.20560000000000006,-0.3976753463920618
-0.20660000000000006,-0.40064624012177835
-0.20760000000000006,-0.4034756627215085
-0.20860000000000006,-0.406446556451225
-0.20960000000000006,-0.40941745018094167
-0.21060000000000006,-0.4125298150406447
-0.21160000000000007,-0.4156421799003478
-0.21260000000000007,-0.4186130736300644
-0.21360000000000007,-0.42158396735978093
-0.21460000000000007,-0.42469633221948405
-0.21560000000000007,-0.42780869707918706
-0.21660000000000007,-0.4310625330688767
-0.21760000000000007,-0.4343163690585663
-0.21860000000000007,-0.43728726278828284
-0.21960000000000007,-0.44039962764798596
-0.22060000000000007,-0.4436534636376755
-0.22160000000000007,-0.4469072996273651
-0.22260000000000008,-0.4500196644870682
-0.22360000000000008,-0.45327350047675774
-0.22460000000000008,-0.45652733646644733
-0.22560000000000008,-0.4599226435861234
-0.22660000000000008,-0.46317647957581304
-0.22760000000000008,-0.4664303155655025
-0.22860000000000008,-0.46954268042520564
-0.22960000000000008,-0.47293798754488175
-0.23060000000000008,-0.4764747657945444
-0.23160000000000008,-0.47972860178423393
-0.23260000000000008,-0.4829824377739235
-0.23360000000000009,-0.4862362737636131
-0.2346000000000001,-0.48977305201327564
-0.2356000000000001,-0.4933098302629383
-0.2366000000000001,-0.49670513738261435
-0.2376000000000001,-0.5001004445022904
-0.2386000000000001,-0.5034957516219666
-0.2396000000000001,-0.5068910587416426
-0.2406000000000001,-0.5104278369913052
-0.2416000000000001,-0.5139646152409678
-0.2426000000000001,-0.5175013934906304
-0.2436000000000001,-0.521038171740293
-0.2446000000000001,-0.5245749499899556
-0.2456000000000001,-0.5282531993696047
-0.2466000000000001,-0.5317899776192673
-0.2476000000000001,-0.5353267558689299
-0.2486000000000001,-0.5388635341185926
-0.2496000000000001,-0.5425417834982416
-0.2506000000000001,-0.5462200328778907
-0.2516000000000001,-0.5498982822575398
-0.2526000000000001,-0.5535765316371889
-0.2536000000000001,-0.557254781016838
-0.2546000000000001,-0.5609330303964871
-0.2556000000000001,-0.5648942220361092
-0.2566000000000001,-0.5687139425457448
-0.2576000000000001,-0.5722507207954074
-0.2586000000000001,-0.5759289701750565
-0.2596000000000001,-0.579748690684692
-0.2606000000000001,-0.5837098823243142
-0.2616000000000001,-0.5875296028339497
-0.2626000000000001,-0.5913493233435854
-0.2636000000000001,-0.5950275727232345
-0.2646000000000001,-0.5989887643628565
-0.2656000000000001,-0.6029499560024787
-0.2666000000000001,-0.6069111476421007
-0.2676000000000001,-0.6108723392817229
-0.2686000000000001,-0.6146920597913584
-0.2696000000000001,-0.6183703091710075
-0.2706000000000001,-0.6224729719406161
-0.2716000000000001,-0.6264341635802383
-0.2726000000000001,-0.6303953552198603
-0.2736000000000001,-0.634215075729496
-0.2746000000000001,-0.6383177384991046
-0.2756000000000001,-0.6425618723986997
-0.2766000000000001,-0.6466645351683082
-0.2776000000000001,-0.6506257268079303
-0.2786000000000001,-0.6545869184475525
-0.2796000000000001,-0.658689581217161
-0.2806000000000001,-0.6630751862467427
-0.28160000000000013,-0.6671778490163512
-0.28260000000000013,-0.6712805117859599
-0.28360000000000013,-0.675524645685555
-0.2846,-0.6796273084551637
-0.2856,-0.6840129134847454
-0.2866,-0.6882570473843403
-0.2876,-0.6925011812839355
-0.2886,-0.6967453151835306
-0.2896,-0.7009894490831257
-0.2906,-0.7052335829827208
-0.2916,-0.7096191880123024
-0.2926,-0.7138633219118975
-0.2936,-0.7182489269414791
-0.29460000000000003,-0.7226345319710608
-0.29560000000000003,-0.7270201370006424
-0.29660000000000003,-0.7315472131602104
-0.29760000000000003,-0.7357913470598055
-0.29860000000000003,-0.7401769520893872
-0.29960000000000003,-0.7447040282489552
-0.30060000000000003,-0.7492311044085235
-0.30160000000000003,-0.753899651698078
-0.30260000000000004,-0.7581437855976731
-0.30360000000000004,-0.7625293906272548
-0.30460000000000004,-0.7671979379168093
-0.30560000000000004,-0.7717250140763775
-0.30660000000000004,-0.7763935613659322
-0.30760000000000004,-0.7809206375255002
-0.30860000000000004,-0.7855891848150548
-0.30960000000000004,-0.7902577321046094
-0.31060000000000004,-0.7949262793941642
-0.31160000000000004,-0.7997362978137053
-0.31260000000000004,-0.8044048451032598
-0.31360000000000005,-0.808931921262828
-0.31460000000000005,-0.8136004685523825
-0.31560000000000005,-0.8185519581019103
-0.31660000000000005,-0.8232205053914649
-0.31760000000000005,-0.828030523811006
-0.31860000000000005,-0.8326990711005606
-0.31960000000000005,-0.8376505606500882
-0.32060000000000005,-0.8426020501996159
-0.32160000000000005,-0.847412068619157
-0.32260000000000005,-0.8522220870386981
-0.32360000000000005,-0.8570321054582393
-0.32460000000000006,-0.8618421238777804
-0.32560000000000006,-0.8669350845572944
-0.32660000000000006,-0.8718865741068222
-0.32760000000000006,-0.8766965925263633
-0.32860000000000006,-0.8816480820758908
-0.32960000000000006,-0.8865995716254184
-0.33060000000000006,-0.8916925323049326
-0.33160000000000006,-0.8967854929844468
-0.33260000000000006,-0.9018784536639609
-0.33360000000000006,-0.9068299432134885
-0.33460000000000006,-0.9119229038930027
-0.33560000000000006,-0.9170158645725168
-0.33660000000000007,-0.9222502963820175
-0.33760000000000007,-0.927201785931545
-0.33860000000000007,-0.9322947466110592
-0.33960000000000007,-0.9375291784205598
-0.34060000000000007,-0.9427636102300604
-0.34160000000000007,-0.947998042039561
-0.34260000000000007,-0.9530910027190752
-0.34360000000000007,-0.9581839633985894
-0.3446000000000001,-0.96341839520809
-0.3456000000000001,-0.9687942981475771
-0.3466000000000001,-0.9741702010870643
-0.34759999999999996,-0.9794046328965649
-0.3486000000000001,-0.9844975935760791
-0.34959999999999997,-0.9898734965155661
-0.3506000000000001,-0.9952493994550534
-0.35159999999999997,-1.0006253023945404
-0.3526000000000001,-1.0060012053340277
-0.35359999999999997,-1.011235637143528
-0.3546000000000001,-1.0166115400830154
-0.35559999999999997,-1.022128914152489
-0.3566000000000001,-1.027504817091976
-0.3576,-1.0330221911614497
-0.3586000000000001,-1.0382566229709504
-0.3596,-1.0437739970404243
-0.3606000000000001,-1.0492913711098977
-0.3616,-1.0549502163093578
-0.3626000000000001,-1.0604675903788316
-0.3636,-1.0655605510583457
-0.3646000000000001,-1.0709364539978328
-0.3656,-1.0765952991972931
-0.3666000000000001,-1.0822541443967533
-0.3676,-1.0877715184662267
-0.3686000000000001,-1.0931474214057137
-0.3696,-1.0986647954751876
-0.3706000000000001,-1.1046065829346206
-0.3716,-1.1104068992640672
-0.3726000000000001,-1.1157828022035543
-0.3736,-1.1214416474030147
-0.3746000000000001,-1.1269590214724883
-0.3756,-1.1327593378019347
-0.3766000000000001,-1.1384181830013949
-0.3776,-1.1440770282008552
-0.3786000000000001,-1.1497358734003151
-0.3796,-1.155253247469789
-0.3806000000000001,-1.1611950349292222
-0.3816,-1.1669953512586688
-0.3826000000000001,-1.1725127253281424
-0.3836,-1.1781715705276026
-0.3846000000000001,-1.1839718868570492
-0.3856,-1.1896307320565096
-0.3866000000000001,-1.1955725195159426
-0.3876,-1.2012313647154027
-0.3886000000000001,-1.2068902099148628
-0.3896,-1.2126905262443095
-0.3906000000000001,-1.2184908425737562
-0.3916,-1.2244326300331894
-0.3926000000000001,-1.2300914752326495
-0.3936,-1.2357503204321096
-0.3946000000000001,-1.2416921078915426
-0.3956,-1.2476338953509758
-0.3966000000000001,-1.253575682810409
-0.3976,-1.2593759991398557
-0.3986000000000001,-1.2648933732093293
-0.3996,-1.270693689538776
-0.4006000000000001,-1.2766354769982091
-0.4016,-1.2825772644576423
-0.4026000000000001,-1.2882361096571022
-0.4036,-1.2938949548565624
-0.4046000000000001,-1.2995538000560227
-0.4056,-1.305495587515456
-0.40660000000000013,-1.3114373749748889
-0.4076,-1.317096220174349
-0.40860000000000013,-1.322896536503796
-0.4096,-1.3286968528332426
-0.41060000000000013,-1.3346386402926755
-0.4116,-1.3405804277521087
-0.41260000000000013,-1.3463807440815554
-0.4136,-1.3520395892810155
-0.41460000000000014,-1.3578399056104622
-0.4156,-1.3637816930698954
-0.41660000000000014,-1.3697234805293286
-0.4176,-1.3753823257287887
-0.41860000000000014,-1.3810411709282489
-0.41960000000000003,-1.386700016127709
-0.42060000000000014,-1.3926418035871422
-0.42160000000000003,-1.3987250621765617
-0.42260000000000014,-1.4045253785060083
-0.42360000000000003,-1.4101842237054685
-0.42460000000000014,-1.4161260111649017
-0.42560000000000003,-1.421784856364362
-0.42660000000000015,-1.427443701563822
-0.42760000000000004,-1.433102546763282
-0.42860000000000015,-1.4387613919627424
-0.42960000000000004,-1.4444202371622026
-0.43060000000000015,-1.4500790823616625
-0.43160000000000004,-1.4571526388609877
-0.43260000000000015,-1.462811484060448
-0.43360000000000004,-1.4684703292599082
-0.43460000000000015,-1.4741291744593683
-0.43560000000000004,-1.4797880196588282
-0.43660000000000015,-1.4854468648582886
-0.43760000000000004,-1.4911057100577487
-0.43860000000000016,-1.498179266557074
-0.43960000000000005,-1.5038381117565338
-0.44060000000000016,-1.5094969569559942
-0.44160000000000005,-1.5151558021554543
-0.44260000000000016,-1.5208146473549145
