Aug. 4, 2024   05:18:39
Cyclic Voltammetry
File: c:/users/guazh/data/20240802_batch_500/2024-08-02-exp13\exp13-2024-08-04t04_59_09-arkoh\exp13_cv_sr_200mvs_efin_-1900mv.bin
Data Source:  Experiment
Instrument Model:  CHI760E
Header: CV ran at 200 mVs
Note: 

Init E (V) = -1
High E (V) = -1
Low E (V) = -1.9
Final E (V) = -1
Init P/N = N
Scan Rate (V/s) = 0.2
Segment = 3
Sample Interval (V) = 0.001
Quiet Time (sec) = 2
Sensitivity (A/V) = 0.01
Comp R (ohm) = 1.7

Results:

Channel 1:
Segment 1:

Segment 2:

Segment 3:

Potential/V, Current/A

-1.000, -3.769e-7
-1.001, 4.736e-8
-1.002, 1.362e-7
-1.003, 6.788e-7
-1.004, 5.308e-7
-1.005, 4.321e-7
-1.006, 6.886e-7
-1.007, 8.070e-7
-1.008, 6.590e-7
-1.009, 1.350e-6
-1.010, 1.014e-6
-1.011, 1.083e-6
-1.012, 9.846e-7
-1.013, 1.202e-6
-1.014, 1.162e-6
-1.015, 1.123e-6
-1.016, 1.567e-6
-1.017, 1.369e-6
-1.018, 1.389e-6
-1.019, 1.646e-6
-1.020, 1.567e-6
-1.021, 1.429e-6
-1.022, 1.498e-6
-1.023, 1.734e-6
-1.024, 1.833e-6
-1.025, 1.606e-6
-1.026, 1.981e-6
-1.027, 1.685e-6
-1.028, 1.715e-6
-1.029, 2.011e-6
-1.030, 1.606e-6
-1.031, 1.833e-6
-1.032, 1.912e-6
-1.033, 2.277e-6
-1.034, 1.754e-6
-1.035, 1.774e-6
-1.036, 2.208e-6
-1.037, 1.991e-6
-1.038, 2.080e-6
-1.039, 2.277e-6
-1.040, 2.040e-6
-1.041, 2.238e-6
-1.042, 2.109e-6
-1.043, 2.307e-6
-1.044, 2.238e-6
-1.045, 2.119e-6
-1.046, 2.386e-6
-1.047, 2.336e-6
-1.048, 2.238e-6
-1.049, 2.524e-6
-1.050, 2.376e-6
-1.051, 2.238e-6
-1.052, 2.297e-6
-1.053, 2.534e-6
-1.054, 2.494e-6
-1.055, 2.247e-6
-1.056, 2.721e-6
-1.057, 2.159e-6
-1.058, 2.317e-6
-1.059, 2.642e-6
-1.060, 2.425e-6
-1.061, 2.445e-6
-1.062, 2.395e-6
-1.063, 2.830e-6
-1.064, 2.672e-6
-1.065, 2.583e-6
-1.066, 2.800e-6
-1.067, 2.593e-6
-1.068, 2.583e-6
-1.069, 2.820e-6
-1.070, 2.731e-6
-1.071, 2.701e-6
-1.072, 2.593e-6
-1.073, 2.889e-6
-1.074, 2.908e-6
-1.075, 2.524e-6
-1.076, 3.234e-6
-1.077, 2.573e-6
-1.078, 2.869e-6
-1.079, 3.037e-6
-1.080, 2.721e-6
-1.081, 2.800e-6
-1.082, 2.790e-6
-1.083, 3.047e-6
-1.084, 2.899e-6
-1.085, 2.908e-6
-1.086, 3.224e-6
-1.087, 2.682e-6
-1.088, 2.790e-6
-1.089, 3.155e-6
-1.090, 3.076e-6
-1.091, 3.007e-6
-1.092, 2.958e-6
-1.093, 3.274e-6
-1.094, 2.938e-6
-1.095, 2.918e-6
-1.096, 3.145e-6
-1.097, 2.987e-6
-1.098, 2.899e-6
-1.099, 3.214e-6
-1.100, 2.938e-6
-1.101, 3.195e-6
-1.102, 3.116e-6
-1.103, 3.264e-6
-1.104, 3.185e-6
-1.105, 3.145e-6
-1.106, 3.254e-6
-1.107, 3.037e-6
-1.108, 3.116e-6
-1.109, 3.352e-6
-1.110, 3.204e-6
-1.111, 3.264e-6
-1.112, 2.987e-6
-1.113, 3.491e-6
-1.114, 3.224e-6
-1.115, 3.066e-6
-1.116, 3.481e-6
-1.117, 3.135e-6
-1.118, 3.195e-6
-1.119, 3.343e-6
-1.120, 3.372e-6
-1.121, 3.244e-6
-1.122, 3.155e-6
-1.123, 3.461e-6
-1.124, 3.293e-6
-1.125, 3.145e-6
-1.126, 3.589e-6
-1.127, 3.333e-6
-1.128, 3.313e-6
-1.129, 3.648e-6
-1.130, 3.431e-6
-1.131, 3.481e-6
-1.132, 3.500e-6
-1.133, 3.708e-6
-1.134, 3.510e-6
-1.135, 3.431e-6
-1.136, 3.698e-6
-1.137, 3.471e-6
-1.138, 3.560e-6
-1.139, 3.658e-6
-1.140, 3.678e-6
-1.141, 3.629e-6
-1.142, 3.560e-6
-1.143, 3.708e-6
-1.144, 3.806e-6
-1.145, 3.441e-6
-1.146, 3.757e-6
-1.147, 3.688e-6
-1.148, 3.599e-6
-1.149, 3.826e-6
-1.150, 3.727e-6
-1.151, 3.481e-6
-1.152, 3.668e-6
-1.153, 3.865e-6
-1.154, 3.717e-6
-1.155, 3.619e-6
-1.156, 3.885e-6
-1.157, 3.747e-6
-1.158, 3.796e-6
-1.159, 4.023e-6
-1.160, 3.875e-6
-1.161, 3.905e-6
-1.162, 3.944e-6
-1.163, 4.191e-6
-1.164, 3.619e-6
-1.165, 3.737e-6
-1.166, 4.231e-6
-1.167, 3.806e-6
-1.168, 3.846e-6
-1.169, 4.132e-6
-1.170, 3.895e-6
-1.171, 3.974e-6
-1.172, 4.053e-6
-1.173, 4.112e-6
-1.174, 4.171e-6
-1.175, 4.053e-6
-1.176, 4.309e-6
-1.177, 4.112e-6
-1.178, 3.954e-6
-1.179, 4.270e-6
-1.180, 4.013e-6
-1.181, 4.231e-6
-1.182, 4.221e-6
-1.183, 4.221e-6
-1.184, 4.092e-6
-1.185, 4.152e-6
-1.186, 4.250e-6
-1.187, 4.191e-6
-1.188, 4.191e-6
-1.189, 4.615e-6
-1.190, 4.063e-6
-1.191, 4.319e-6
-1.192, 4.122e-6
-1.193, 4.319e-6
-1.194, 4.329e-6
-1.195, 4.171e-6
-1.196, 4.467e-6
-1.197, 4.388e-6
-1.198, 4.359e-6
-1.199, 4.655e-6
-1.200, 4.379e-6
-1.201, 4.457e-6
-1.202, 4.260e-6
-1.203, 4.576e-6
-1.204, 4.428e-6
-1.205, 4.379e-6
-1.206, 4.694e-6
-1.207, 4.477e-6
-1.208, 4.329e-6
-1.209, 4.674e-6
-1.210, 4.428e-6
-1.211, 4.408e-6
-1.212, 4.625e-6
-1.213, 4.921e-6
-1.214, 4.418e-6
-1.215, 4.576e-6
-1.216, 4.842e-6
-1.217, 4.773e-6
-1.218, 4.566e-6
-1.219, 4.931e-6
-1.220, 4.803e-6
-1.221, 4.724e-6
-1.222, 4.724e-6
-1.223, 5.040e-6
-1.224, 4.665e-6
-1.225, 4.694e-6
-1.226, 4.990e-6
-1.227, 4.744e-6
-1.228, 4.665e-6
-1.229, 5.217e-6
-1.230, 4.980e-6
-1.231, 5.158e-6
-1.232, 4.842e-6
-1.233, 4.951e-6
-1.234, 5.168e-6
-1.235, 5.040e-6
-1.236, 5.316e-6
-1.237, 5.049e-6
-1.238, 4.872e-6
-1.239, 5.355e-6
-1.240, 5.266e-6
-1.241, 5.099e-6
-1.242, 5.237e-6
-1.243, 5.168e-6
-1.244, 5.040e-6
-1.245, 5.128e-6
-1.246, 5.523e-6
-1.247, 5.286e-6
-1.248, 5.197e-6
-1.249, 5.543e-6
-1.250, 5.266e-6
-1.251, 5.138e-6
-1.252, 5.138e-6
-1.253, 5.474e-6
-1.254, 5.395e-6
-1.255, 5.286e-6
-1.256, 5.661e-6
-1.257, 5.375e-6
-1.258, 5.355e-6
-1.259, 5.582e-6
-1.260, 5.483e-6
-1.261, 5.385e-6
-1.262, 5.454e-6
-1.263, 5.592e-6
-1.264, 5.414e-6
-1.265, 5.375e-6
-1.266, 5.779e-6
-1.267, 5.474e-6
-1.268, 5.592e-6
-1.269, 5.661e-6
-1.270, 5.651e-6
-1.271, 5.543e-6
-1.272, 5.405e-6
-1.273, 5.750e-6
-1.274, 5.760e-6
-1.275, 5.562e-6
-1.276, 5.947e-6
-1.277, 5.533e-6
-1.278, 5.641e-6
-1.279, 5.957e-6
-1.280, 5.760e-6
-1.281, 5.888e-6
-1.282, 5.789e-6
-1.283, 5.957e-6
-1.284, 5.858e-6
-1.285, 5.701e-6
-1.286, 6.046e-6
-1.287, 5.878e-6
-1.288, 5.868e-6
-1.289, 6.243e-6
-1.290, 5.898e-6
-1.291, 5.947e-6
-1.292, 5.888e-6
-1.293, 6.095e-6
-1.294, 5.947e-6
-1.295, 5.730e-6
-1.296, 6.125e-6
-1.297, 6.164e-6
-1.298, 5.849e-6
-1.299, 6.322e-6
-1.300, 6.164e-6
-1.301, 6.006e-6
-1.302, 5.987e-6
-1.303, 6.539e-6
-1.304, 6.085e-6
-1.305, 6.046e-6
-1.306, 6.539e-6
-1.307, 6.263e-6
-1.308, 6.312e-6
-1.309, 6.579e-6
-1.310, 6.263e-6
-1.311, 6.253e-6
-1.312, 6.223e-6
-1.313, 6.529e-6
-1.314, 6.233e-6
-1.315, 6.263e-6
-1.316, 6.342e-6
-1.317, 6.539e-6
-1.318, 6.204e-6
-1.319, 6.598e-6
-1.320, 6.440e-6
-1.321, 6.490e-6
-1.322, 6.510e-6
-1.323, 6.776e-6
-1.324, 6.519e-6
-1.325, 6.608e-6
-1.326, 6.815e-6
-1.327, 6.618e-6
-1.328, 6.460e-6
-1.329, 6.766e-6
-1.330, 6.460e-6
-1.331, 6.667e-6
-1.332, 6.756e-6
-1.333, 7.032e-6
-1.334, 6.687e-6
-1.335, 6.598e-6
-1.336, 7.092e-6
-1.337, 6.914e-6
-1.338, 6.845e-6
-1.339, 6.944e-6
-1.340, 7.082e-6
-1.341, 6.806e-6
-1.342, 6.884e-6
-1.343, 7.269e-6
-1.344, 6.924e-6
-1.345, 6.776e-6
-1.346, 7.082e-6
-1.347, 6.983e-6
-1.348, 7.072e-6
-1.349, 7.161e-6
-1.350, 7.141e-6
-1.351, 7.052e-6
-1.352, 7.062e-6
-1.353, 7.358e-6
-1.354, 7.190e-6
-1.355, 7.082e-6
-1.356, 7.447e-6
-1.357, 7.269e-6
-1.358, 7.259e-6
-1.359, 7.703e-6
-1.360, 7.407e-6
-1.361, 7.279e-6
-1.362, 7.447e-6
-1.363, 7.555e-6
-1.364, 7.467e-6
-1.365, 7.230e-6
-1.366, 7.920e-6
-1.367, 7.279e-6
-1.368, 7.605e-6
-1.369, 7.664e-6
-1.370, 7.664e-6
-1.371, 7.743e-6
-1.372, 7.684e-6
-1.373, 8.019e-6
-1.374, 7.615e-6
-1.375, 7.832e-6
-1.376, 7.960e-6
-1.377, 7.851e-6
-1.378, 7.743e-6
-1.379, 7.980e-6
-1.380, 7.960e-6
-1.381, 7.812e-6
-1.382, 7.881e-6
-1.383, 8.108e-6
-1.384, 8.029e-6
-1.385, 7.684e-6
-1.386, 8.414e-6
-1.387, 8.206e-6
-1.388, 8.019e-6
-1.389, 8.335e-6
-1.390, 8.137e-6
-1.391, 8.118e-6
-1.392, 8.039e-6
-1.393, 8.424e-6
-1.394, 8.374e-6
-1.395, 8.256e-6
-1.396, 8.591e-6
-1.397, 8.473e-6
-1.398, 8.305e-6
-1.399, 8.710e-6
-1.400, 8.532e-6
-1.401, 8.276e-6
-1.402, 8.453e-6
-1.403, 8.818e-6
-1.404, 8.739e-6
-1.405, 8.532e-6
-1.406, 9.045e-6
-1.407, 8.779e-6
-1.408, 8.650e-6
-1.409, 9.006e-6
-1.410, 8.897e-6
-1.411, 8.818e-6
-1.412, 8.946e-6
-1.413, 9.163e-6
-1.414, 8.739e-6
-1.415, 8.956e-6
-1.416, 9.262e-6
-1.417, 9.016e-6
-1.418, 8.956e-6
-1.419, 9.410e-6
-1.420, 9.124e-6
-1.421, 9.233e-6
-1.422, 9.252e-6
-1.423, 9.716e-6
-1.424, 9.321e-6
-1.425, 9.272e-6
-1.426, 9.558e-6
-1.427, 9.568e-6
-1.428, 9.499e-6
-1.429, 1.001e-5
-1.430, 9.775e-6
-1.431, 9.647e-6
-1.432, 9.706e-6
-1.433, 1.007e-5
-1.434, 9.943e-6
-1.435, 9.933e-6
-1.436, 1.029e-5
-1.437, 9.933e-6
-1.438, 9.903e-6
-1.439, 1.027e-5
-1.440, 1.020e-5
-1.441, 1.021e-5
-1.442, 1.024e-5
-1.443, 1.060e-5
-1.444, 1.040e-5
-1.445, 1.039e-5
-1.446, 1.075e-5
-1.447, 1.069e-5
-1.448, 1.043e-5
-1.449, 1.094e-5
-1.450, 1.075e-5
-1.451, 1.064e-5
-1.452, 1.084e-5
-1.453, 1.120e-5
-1.454, 1.094e-5
-1.455, 1.082e-5
-1.456, 1.143e-5
-1.457, 1.118e-5
-1.458, 1.109e-5
-1.459, 1.153e-5
-1.460, 1.163e-5
-1.461, 1.125e-5
-1.462, 1.135e-5
-1.463, 1.173e-5
-1.464, 1.157e-5
-1.465, 1.143e-5
-1.466, 1.219e-5
-1.467, 1.187e-5
-1.468, 1.173e-5
-1.469, 1.230e-5
-1.470, 1.220e-5
-1.471, 1.219e-5
-1.472, 1.216e-5
-1.473, 1.259e-5
-1.474, 1.252e-5
-1.475, 1.224e-5
-1.476, 1.265e-5
-1.477, 1.254e-5
-1.478, 1.266e-5
-1.479, 1.312e-5
-1.480, 1.285e-5
-1.481, 1.304e-5
-1.482, 1.304e-5
-1.483, 1.330e-5
-1.484, 1.303e-5
-1.485, 1.311e-5
-1.486, 1.375e-5
-1.487, 1.373e-5
-1.488, 1.342e-5
-1.489, 1.383e-5
-1.490, 1.384e-5
-1.491, 1.398e-5
-1.492, 1.402e-5
-1.493, 1.444e-5
-1.494, 1.400e-5
-1.495, 1.407e-5
-1.496, 1.461e-5
-1.497, 1.443e-5
-1.498, 1.454e-5
-1.499, 1.494e-5
-1.500, 1.489e-5
-1.501, 1.504e-5
-1.502, 1.511e-5
-1.503, 1.537e-5
-1.504, 1.518e-5
-1.505, 1.531e-5
-1.506, 1.581e-5
-1.507, 1.566e-5
-1.508, 1.569e-5
-1.509, 1.612e-5
-1.510, 1.606e-5
-1.511, 1.609e-5
-1.512, 1.640e-5
-1.513, 1.687e-5
-1.514, 1.672e-5
-1.515, 1.674e-5
-1.516, 1.721e-5
-1.517, 1.711e-5
-1.518, 1.710e-5
-1.519, 1.779e-5
-1.520, 1.754e-5
-1.521, 1.776e-5
-1.522, 1.796e-5
-1.523, 1.824e-5
-1.524, 1.831e-5
-1.525, 1.804e-5
-1.526, 1.897e-5
-1.527, 1.876e-5
-1.528, 1.873e-5
-1.529, 1.929e-5
-1.530, 1.926e-5
-1.531, 1.923e-5
-1.532, 1.962e-5
-1.533, 1.986e-5
-1.534, 1.978e-5
-1.535, 1.981e-5
-1.536, 2.055e-5
-1.537, 2.043e-5
-1.538, 2.035e-5
-1.539, 2.097e-5
-1.540, 2.130e-5
-1.541, 2.122e-5
-1.542, 2.147e-5
-1.543, 2.202e-5
-1.544, 2.189e-5
-1.545, 2.175e-5
-1.546, 2.285e-5
-1.547, 2.230e-5
-1.548, 2.271e-5
-1.549, 2.330e-5
-1.550, 2.351e-5
-1.551, 2.360e-5
-1.552, 2.360e-5
-1.553, 2.424e-5
-1.554, 2.428e-5
-1.555, 2.437e-5
-1.556, 2.513e-5
-1.557, 2.510e-5
-1.558, 2.510e-5
-1.559, 2.591e-5
-1.560, 2.587e-5
-1.561, 2.598e-5
-1.562, 2.648e-5
-1.563, 2.700e-5
-1.564, 2.719e-5
-1.565, 2.713e-5
-1.566, 2.798e-5
-1.567, 2.813e-5
-1.568, 2.812e-5
-1.569, 2.889e-5
-1.570, 2.915e-5
-1.571, 2.912e-5
-1.572, 2.965e-5
-1.573, 3.015e-5
-1.574, 3.030e-5
-1.575, 3.070e-5
-1.576, 3.132e-5
-1.577, 3.164e-5
-1.578, 3.176e-5
-1.579, 3.244e-5
-1.580, 3.256e-5
-1.581, 3.312e-5
-1.582, 3.358e-5
-1.583, 3.450e-5
-1.584, 3.449e-5
-1.585, 3.448e-5
-1.586, 3.552e-5
-1.587, 3.573e-5
-1.588, 3.604e-5
-1.589, 3.708e-5
-1.590, 3.717e-5
-1.591, 3.760e-5
-1.592, 3.807e-5
-1.593, 3.855e-5
-1.594, 3.883e-5
-1.595, 3.927e-5
-1.596, 4.016e-5
-1.597, 4.055e-5
-1.598, 4.064e-5
-1.599, 4.184e-5
-1.600, 4.239e-5
-1.601, 4.271e-5
-1.602, 4.356e-5
-1.603, 4.428e-5
-1.604, 4.453e-5
-1.605, 4.502e-5
-1.606, 4.615e-5
-1.607, 4.670e-5
-1.608, 4.682e-5
-1.609, 4.803e-5
-1.610, 4.883e-5
-1.611, 4.908e-5
-1.612, 5.017e-5
-1.613, 5.119e-5
-1.614, 5.151e-5
-1.615, 5.236e-5
-1.616, 5.378e-5
-1.617, 5.396e-5
-1.618, 5.435e-5
-1.619, 5.585e-5
-1.620, 5.642e-5
-1.621, 5.698e-5
-1.622, 5.806e-5
-1.623, 5.936e-5
-1.624, 5.976e-5
-1.625, 6.030e-5
-1.626, 6.215e-5
-1.627, 6.270e-5
-1.628, 6.365e-5
-1.629, 6.498e-5
-1.630, 6.624e-5
-1.631, 6.682e-5
-1.632, 6.808e-5
-1.633, 6.947e-5
-1.634, 6.994e-5
-1.635, 7.114e-5
-1.636, 7.286e-5
-1.637, 7.379e-5
-1.638, 7.474e-5
-1.639, 7.714e-5
-1.640, 7.802e-5
-1.641, 7.904e-5
-1.642, 8.045e-5
-1.643, 8.233e-5
-1.644, 8.361e-5
-1.645, 8.440e-5
-1.646, 8.695e-5
-1.647, 8.852e-5
-1.648, 8.978e-5
-1.649, 9.151e-5
-1.650, 9.277e-5
-1.651, 9.450e-5
-1.652, 9.563e-5
-1.653, 9.811e-5
-1.654, 9.921e-5
-1.655, 1.008e-4
-1.656, 1.033e-4
-1.657, 1.054e-4
-1.658, 1.067e-4
-1.659, 1.090e-4
-1.660, 1.112e-4
-1.661, 1.130e-4
-1.662, 1.152e-4
-1.663, 1.178e-4
-1.664, 1.200e-4
-1.665, 1.218e-4
-1.666, 1.247e-4
-1.667, 1.273e-4
-1.668, 1.296e-4
-1.669, 1.327e-4
-1.670, 1.355e-4
-1.671, 1.376e-4
-1.672, 1.397e-4
-1.673, 1.426e-4
-1.674, 1.451e-4
-1.675, 1.481e-4
-1.676, 1.517e-4
-1.677, 1.546e-4
-1.678, 1.570e-4
-1.679, 1.609e-4
-1.680, 1.641e-4
-1.681, 1.677e-4
-1.682, 1.714e-4
-1.683, 1.751e-4
-1.684, 1.778e-4
-1.685, 1.813e-4
-1.686, 1.862e-4
-1.687, 1.901e-4
-1.688, 1.937e-4
-1.689, 1.988e-4
-1.690, 2.033e-4
-1.691, 2.072e-4
-1.692, 2.114e-4
-1.693, 2.151e-4
-1.694, 2.177e-4
-1.695, 2.219e-4
-1.696, 2.271e-4
-1.697, 2.317e-4
-1.698, 2.362e-4
-1.699, 2.423e-4
-1.700, 2.477e-4
-1.701, 2.526e-4
-1.702, 2.585e-4
-1.703, 2.655e-4
-1.704, 2.713e-4
-1.705, 2.758e-4
-1.706, 2.827e-4
-1.707, 2.897e-4
-1.708, 2.955e-4
-1.709, 3.022e-4
-1.710, 3.087e-4
-1.711, 3.150e-4
-1.712, 3.225e-4
-1.713, 3.314e-4
-1.714, 3.394e-4
-1.715, 3.468e-4
-1.716, 3.521e-4
-1.717, 3.578e-4
-1.718, 3.656e-4
-1.719, 3.742e-4
-1.720, 3.831e-4
-1.721, 3.922e-4
-1.722, 4.013e-4
-1.723, 4.121e-4
-1.724, 4.221e-4
-1.725, 4.320e-4
-1.726, 4.432e-4
-1.727, 4.548e-4
-1.728, 4.649e-4
-1.729, 4.754e-4
-1.730, 4.875e-4
-1.731, 4.989e-4
-1.732, 5.118e-4
-1.733, 5.263e-4
-1.734, 5.386e-4
-1.735, 5.490e-4
-1.736, 5.608e-4
-1.737, 5.766e-4
-1.738, 5.828e-4
-1.739, 5.932e-4
-1.740, 6.066e-4
-1.741, 6.203e-4
-1.742, 6.354e-4
-1.743, 6.549e-4
-1.744, 6.696e-4
-1.745, 6.861e-4
-1.746, 7.077e-4
-1.747, 7.237e-4
-1.748, 7.384e-4
-1.749, 7.568e-4
-1.750, 7.779e-4
-1.751, 7.972e-4
-1.752, 8.151e-4
-1.753, 8.380e-4
-1.754, 8.583e-4
-1.755, 8.761e-4
-1.756, 8.960e-4
-1.757, 9.189e-4
-1.758, 9.404e-4
-1.759, 9.647e-4
-1.760, 9.912e-4
-1.761, 1.012e-3
-1.762, 1.031e-3
-1.763, 1.056e-3
-1.764, 1.080e-3
-1.765, 1.103e-3
-1.766, 1.128e-3
-1.767, 1.150e-3
-1.768, 1.177e-3
-1.769, 1.206e-3
-1.770, 1.237e-3
-1.771, 1.267e-3
-1.772, 1.301e-3
-1.773, 1.334e-3
-1.774, 1.365e-3
-1.775, 1.398e-3
-1.776, 1.436e-3
-1.777, 1.471e-3
-1.778, 1.504e-3
-1.779, 1.531e-3
-1.780, 1.571e-3
-1.781, 1.607e-3
-1.782, 1.643e-3
-1.783, 1.677e-3
-1.784, 1.713e-3
-1.785, 1.750e-3
-1.786, 1.794e-3
-1.787, 1.829e-3
-1.788, 1.862e-3
-1.789, 1.898e-3
-1.790, 1.945e-3
-1.791, 1.990e-3
-1.792, 2.031e-3
-1.793, 2.081e-3
-1.794, 2.127e-3
-1.795, 2.170e-3
-1.796, 2.222e-3
-1.797, 2.262e-3
-1.798, 2.306e-3
-1.799, 2.360e-3
-1.800, 2.415e-3
-1.801, 2.465e-3
-1.802, 2.517e-3
-1.803, 2.567e-3
-1.804, 2.612e-3
-1.805, 2.654e-3
-1.806, 2.714e-3
-1.807, 2.774e-3
-1.808, 2.824e-3
-1.809, 2.883e-3
-1.810, 2.945e-3
-1.811, 2.994e-3
-1.812, 3.046e-3
-1.813, 3.111e-3
-1.814, 3.172e-3
-1.815, 3.236e-3
-1.816, 3.306e-3
-1.817, 3.370e-3
-1.818, 3.420e-3
-1.819, 3.477e-3
-1.820, 3.549e-3
-1.821, 3.613e-3
-1.822, 3.676e-3
-1.823, 3.752e-3
-1.824, 3.819e-3
-1.825, 3.870e-3
-1.826, 3.938e-3
-1.827, 4.011e-3
-1.828, 4.078e-3
-1.829, 4.149e-3
-1.830, 4.228e-3
-1.831, 4.287e-3
-1.832, 4.345e-3
-1.833, 4.428e-3
-1.834, 4.503e-3
-1.835, 4.569e-3
-1.836, 4.645e-3
-1.837, 4.715e-3
-1.838, 4.777e-3
-1.839, 4.858e-3
-1.840, 4.946e-3
-1.841, 5.019e-3
-1.842, 5.097e-3
-1.843, 5.160e-3
-1.844, 5.238e-3
-1.845, 5.317e-3
-1.846, 5.405e-3
-1.847, 5.490e-3
-1.848, 5.553e-3
-1.849, 5.631e-3
-1.850, 5.726e-3
-1.851, 5.805e-3
-1.852, 5.889e-3
-1.853, 5.971e-3
-1.854, 6.037e-3
-1.855, 6.123e-3
-1.856, 6.217e-3
-1.857, 6.307e-3
-1.858, 6.375e-3
-1.859, 6.460e-3
-1.860, 6.557e-3
-1.861, 6.639e-3
-1.862, 6.723e-3
-1.863, 6.813e-3
-1.864, 6.902e-3
-1.865, 6.975e-3
-1.866, 7.071e-3
-1.867, 7.152e-3
-1.868, 7.237e-3
-1.869, 7.327e-3
-1.870, 7.423e-3
-1.871, 7.498e-3
-1.872, 7.591e-3
-1.873, 7.699e-3
-1.874, 7.795e-3
-1.875, 7.869e-3
-1.876, 7.972e-3
-1.877, 8.069e-3
-1.878, 8.144e-3
-1.879, 8.229e-3
-1.880, 8.334e-3
-1.881, 8.421e-3
-1.882, 8.510e-3
-1.883, 8.608e-3
-1.884, 8.709e-3
-1.885, 8.800e-3
-1.886, 8.891e-3
-1.887, 8.995e-3
-1.888, 9.082e-3
-1.889, 9.169e-3
-1.890, 9.267e-3
-1.891, 9.362e-3
-1.892, 9.454e-3
-1.893, 9.547e-3
-1.894, 9.648e-3
-1.895, 9.741e-3
-1.896, 9.839e-3
-1.897, 9.953e-3
-1.898, 1.004e-2
-1.899, 1.014e-2
-1.900, 1.017e-2
-1.899, 1.011e-2
-1.898, 1.004e-2
-1.897, 9.997e-3
-1.896, 9.935e-3
-1.895, 9.858e-3
-1.894, 9.801e-3
-1.893, 9.743e-3
-1.892, 9.665e-3
-1.891, 9.609e-3
-1.890, 9.554e-3
-1.889, 9.474e-3
-1.888, 9.410e-3
-1.887, 9.348e-3
-1.886, 9.259e-3
-1.885, 9.182e-3
-1.884, 9.134e-3
-1.883, 9.064e-3
-1.882, 8.998e-3
-1.881, 8.936e-3
-1.880, 8.872e-3
-1.879, 8.786e-3
-1.878, 8.719e-3
-1.877, 8.649e-3
-1.876, 8.584e-3
-1.875, 8.510e-3
-1.874, 8.452e-3
-1.873, 8.382e-3
-1.872, 8.309e-3
-1.871, 8.237e-3
-1.870, 8.161e-3
-1.869, 8.094e-3
-1.868, 8.023e-3
-1.867, 7.964e-3
-1.866, 7.897e-3
-1.865, 7.832e-3
-1.864, 7.758e-3
-1.863, 7.693e-3
-1.862, 7.608e-3
-1.861, 7.539e-3
-1.860, 7.474e-3
-1.859, 7.404e-3
-1.858, 7.332e-3
-1.857, 7.278e-3
-1.856, 7.219e-3
-1.855, 7.144e-3
-1.854, 7.075e-3
-1.853, 7.013e-3
-1.852, 6.946e-3
-1.851, 6.867e-3
-1.850, 6.810e-3
-1.849, 6.741e-3
-1.848, 6.671e-3
-1.847, 6.611e-3
-1.846, 6.537e-3
-1.845, 6.467e-3
-1.844, 6.401e-3
-1.843, 6.335e-3
-1.842, 6.269e-3
-1.841, 6.204e-3
-1.840, 6.150e-3
-1.839, 6.094e-3
-1.838, 6.026e-3
-1.837, 5.963e-3
-1.836, 5.890e-3
-1.835, 5.823e-3
-1.834, 5.776e-3
-1.833, 5.709e-3
-1.832, 5.643e-3
-1.831, 5.581e-3
-1.830, 5.520e-3
-1.829, 5.450e-3
-1.828, 5.393e-3
-1.827, 5.343e-3
-1.826, 5.272e-3
-1.825, 5.201e-3
-1.824, 5.155e-3
-1.823, 5.103e-3
-1.822, 5.040e-3
-1.821, 4.976e-3
-1.820, 4.928e-3
-1.819, 4.867e-3
-1.818, 4.806e-3
-1.817, 4.750e-3
-1.816, 4.703e-3
-1.815, 4.636e-3
-1.814, 4.585e-3
-1.813, 4.523e-3
-1.812, 4.460e-3
-1.811, 4.411e-3
-1.810, 4.363e-3
-1.809, 4.303e-3
-1.808, 4.249e-3
-1.807, 4.205e-3
-1.806, 4.151e-3
-1.805, 4.093e-3
-1.804, 4.039e-3
-1.803, 3.987e-3
-1.802, 3.933e-3
-1.801, 3.883e-3
-1.800, 3.835e-3
-1.799, 3.772e-3
-1.798, 3.723e-3
-1.797, 3.684e-3
-1.796, 3.631e-3
-1.795, 3.578e-3
-1.794, 3.529e-3
-1.793, 3.482e-3
-1.792, 3.431e-3
-1.791, 3.387e-3
-1.790, 3.344e-3
-1.789, 3.289e-3
-1.788, 3.246e-3
-1.787, 3.213e-3
-1.786, 3.160e-3
-1.785, 3.110e-3
-1.784, 3.069e-3
-1.783, 3.024e-3
-1.782, 2.978e-3
-1.781, 2.939e-3
-1.780, 2.900e-3
-1.779, 2.854e-3
-1.778, 2.806e-3
-1.777, 2.771e-3
-1.776, 2.733e-3
-1.775, 2.689e-3
-1.774, 2.652e-3
-1.773, 2.611e-3
-1.772, 2.565e-3
-1.771, 2.532e-3
-1.770, 2.492e-3
-1.769, 2.450e-3
-1.768, 2.411e-3
-1.767, 2.374e-3
-1.766, 2.333e-3
-1.765, 2.299e-3
-1.764, 2.268e-3
-1.763, 2.231e-3
-1.762, 2.193e-3
-1.761, 2.157e-3
-1.760, 2.121e-3
-1.759, 2.084e-3
-1.758, 2.054e-3
-1.757, 2.024e-3
-1.756, 1.992e-3
-1.755, 1.959e-3
-1.754, 1.925e-3
-1.753, 1.893e-3
-1.752, 1.857e-3
-1.751, 1.829e-3
-1.750, 1.803e-3
-1.749, 1.772e-3
-1.748, 1.739e-3
-1.747, 1.712e-3
-1.746, 1.686e-3
-1.745, 1.658e-3
-1.744, 1.633e-3
-1.743, 1.603e-3
-1.742, 1.571e-3
-1.741, 1.543e-3
-1.740, 1.512e-3
-1.739, 1.484e-3
-1.738, 1.462e-3
-1.737, 1.439e-3
-1.736, 1.416e-3
-1.735, 1.389e-3
-1.734, 1.364e-3
-1.733, 1.335e-3
-1.732, 1.307e-3
-1.731, 1.287e-3
-1.730, 1.269e-3
-1.729, 1.244e-3
-1.728, 1.222e-3
-1.727, 1.204e-3
-1.726, 1.180e-3
-1.725, 1.152e-3
-1.724, 1.130e-3
-1.723, 1.113e-3
-1.722, 1.092e-3
-1.721, 1.073e-3
-1.720, 1.056e-3
-1.719, 1.035e-3
-1.718, 1.013e-3
-1.717, 9.938e-4
-1.716, 9.751e-4
-1.715, 9.588e-4
-1.714, 9.457e-4
-1.713, 9.274e-4
-1.712, 9.077e-4
-1.711, 8.940e-4
-1.710, 8.791e-4
-1.709, 8.557e-4
-1.708, 8.364e-4
-1.707, 8.214e-4
-1.706, 8.071e-4
-1.705, 7.917e-4
-1.704, 7.775e-4
-1.703, 7.634e-4
-1.702, 7.469e-4
-1.701, 7.342e-4
-1.700, 7.188e-4
-1.699, 7.027e-4
-1.698, 6.899e-4
-1.697, 6.751e-4
-1.696, 6.609e-4
-1.695, 6.470e-4
-1.694, 6.357e-4
-1.693, 6.238e-4
-1.692, 6.102e-4
-1.691, 5.994e-4
-1.690, 5.872e-4
-1.689, 5.728e-4
-1.688, 5.613e-4
-1.687, 5.523e-4
-1.686, 5.411e-4
-1.685, 5.306e-4
-1.684, 5.217e-4
-1.683, 5.112e-4
-1.682, 4.988e-4
-1.681, 4.903e-4
-1.680, 4.817e-4
-1.679, 4.678e-4
-1.678, 4.580e-4
-1.677, 4.495e-4
-1.676, 4.402e-4
-1.675, 4.323e-4
-1.674, 4.268e-4
-1.673, 4.163e-4
-1.672, 4.075e-4
-1.671, 4.006e-4
-1.670, 3.936e-4
-1.669, 3.849e-4
-1.668, 3.746e-4
-1.667, 3.668e-4
-1.666, 3.592e-4
-1.665, 3.518e-4
-1.664, 3.469e-4
-1.663, 3.404e-4
-1.662, 3.321e-4
-1.661, 3.257e-4
-1.660, 3.196e-4
-1.659, 3.125e-4
-1.658, 3.061e-4
-1.657, 3.009e-4
-1.656, 2.942e-4
-1.655, 2.832e-4
-1.654, 2.784e-4
-1.653, 2.729e-4
-1.652, 2.674e-4
-1.651, 2.626e-4
-1.650, 2.575e-4
-1.649, 2.517e-4
-1.648, 2.470e-4
-1.647, 2.425e-4
-1.646, 2.372e-4
-1.645, 2.318e-4
-1.644, 2.270e-4
-1.643, 2.222e-4
-1.642, 2.173e-4
-1.641, 2.122e-4
-1.640, 2.072e-4
-1.639, 2.019e-4
-1.638, 1.980e-4
-1.637, 1.951e-4
-1.636, 1.910e-4
-1.635, 1.865e-4
-1.634, 1.834e-4
-1.633, 1.790e-4
-1.632, 1.746e-4
-1.631, 1.719e-4
-1.630, 1.682e-4
-1.629, 1.642e-4
-1.628, 1.600e-4
-1.627, 1.563e-4
-1.626, 1.528e-4
-1.625, 1.478e-4
-1.624, 1.461e-4
-1.623, 1.422e-4
-1.622, 1.386e-4
-1.621, 1.370e-4
-1.620, 1.336e-4
-1.619, 1.311e-4
-1.618, 1.287e-4
-1.617, 1.256e-4
-1.616, 1.225e-4
-1.615, 1.196e-4
-1.614, 1.178e-4
-1.613, 1.150e-4
-1.612, 1.123e-4
-1.611, 1.104e-4
-1.610, 1.081e-4
-1.609, 1.050e-4
-1.608, 1.031e-4
-1.607, 1.006e-4
-1.606, 9.776e-5
-1.605, 9.533e-5
-1.604, 9.411e-5
-1.603, 9.206e-5
-1.602, 8.969e-5
-1.601, 8.880e-5
-1.600, 8.633e-5
-1.599, 8.411e-5
-1.598, 8.229e-5
-1.597, 8.063e-5
-1.596, 7.880e-5
-1.595, 7.681e-5
-1.594, 7.560e-5
-1.593, 7.369e-5
-1.592, 7.192e-5
-1.591, 7.102e-5
-1.590, 6.922e-5
-1.589, 6.727e-5
-1.588, 6.590e-5
-1.587, 6.394e-5
-1.586, 6.227e-5
-1.585, 6.090e-5
-1.584, 6.030e-5
-1.583, 5.853e-5
-1.582, 5.682e-5
-1.581, 5.616e-5
-1.580, 5.488e-5
-1.579, 5.310e-5
-1.578, 5.251e-5
-1.577, 5.142e-5
-1.576, 4.990e-5
-1.575, 4.857e-5
-1.574, 4.812e-5
-1.573, 4.660e-5
-1.572, 4.542e-5
-1.571, 4.484e-5
-1.570, 4.362e-5
-1.569, 4.212e-5
-1.568, 4.113e-5
-1.567, 4.026e-5
-1.566, 3.898e-5
-1.565, 3.808e-5
-1.564, 3.754e-5
-1.563, 3.632e-5
-1.562, 3.503e-5
-1.561, 3.458e-5
-1.560, 3.349e-5
-1.559, 3.257e-5
-1.558, 3.203e-5
-1.557, 3.136e-5
-1.556, 3.019e-5
-1.555, 2.913e-5
-1.554, 2.908e-5
-1.553, 2.785e-5
-1.552, 2.695e-5
-1.551, 2.689e-5
-1.550, 2.585e-5
-1.549, 2.513e-5
-1.548, 2.453e-5
-1.547, 2.402e-5
-1.546, 2.333e-5
-1.545, 2.250e-5
-1.544, 2.235e-5
-1.543, 2.146e-5
-1.542, 2.064e-5
-1.541, 2.081e-5
-1.540, 1.990e-5
-1.539, 1.904e-5
-1.538, 1.893e-5
-1.537, 1.831e-5
-1.536, 1.767e-5
-1.535, 1.699e-5
-1.534, 1.700e-5
-1.533, 1.605e-5
-1.532, 1.572e-5
-1.531, 1.573e-5
-1.530, 1.489e-5
-1.529, 1.429e-5
-1.528, 1.440e-5
-1.527, 1.382e-5
-1.526, 1.318e-5
-1.525, 1.273e-5
-1.524, 1.294e-5
-1.523, 1.220e-5
-1.522, 1.168e-5
-1.521, 1.192e-5
-1.520, 1.130e-5
-1.519, 1.062e-5
-1.518, 1.070e-5
-1.517, 1.020e-5
-1.516, 9.815e-6
-1.515, 9.173e-6
-1.514, 9.529e-6
-1.513, 8.937e-6
-1.512, 8.424e-6
-1.511, 8.611e-6
-1.510, 8.078e-6
-1.509, 7.417e-6
-1.508, 7.496e-6
-1.507, 7.259e-6
-1.506, 6.746e-6
-1.505, 6.519e-6
-1.504, 6.973e-6
-1.503, 6.105e-6
-1.502, 5.809e-6
-1.501, 6.075e-6
-1.500, 5.651e-6
-1.499, 5.178e-6
-1.498, 5.247e-6
-1.497, 5.178e-6
-1.496, 4.655e-6
-1.495, 4.309e-6
-1.494, 4.596e-6
-1.493, 4.073e-6
-1.492, 3.856e-6
-1.491, 4.013e-6
-1.490, 3.668e-6
-1.489, 3.303e-6
-1.488, 3.471e-6
-1.487, 3.283e-6
-1.486, 2.889e-6
-1.485, 2.741e-6
-1.484, 2.701e-6
-1.483, 2.297e-6
-1.482, 1.981e-6
-1.481, 2.484e-6
-1.480, 1.951e-6
-1.479, 1.784e-6
-1.478, 1.971e-6
-1.477, 1.665e-6
-1.476, 1.310e-6
-1.475, 1.212e-6
-1.474, 1.557e-6
-1.473, 1.300e-6
-1.472, 6.985e-7
-1.471, 9.649e-7
-1.470, 7.281e-7
-1.469, 4.815e-7
-1.468, 4.617e-7
-1.467, 3.927e-7
-1.466, 1.066e-7
-1.465, 6.709e-8
-1.464, 1.066e-7
-1.463, -6.117e-8
-1.462, -3.275e-7
-1.461, 1.756e-7
-1.460, -3.769e-7
-1.459, -5.249e-7
-1.458, -4.657e-7
-1.457, -5.545e-7
-1.456, -7.617e-7
-1.455, -9.096e-7
-1.454, -4.854e-7
-1.453, -9.590e-7
-1.452, -1.275e-6
-1.451, -8.603e-7
-1.450, -1.275e-6
-1.449, -1.413e-6
-1.448, -1.127e-6
-1.447, -1.354e-6
-1.446, -1.768e-6
-1.445, -1.679e-6
-1.444, -1.433e-6
-1.443, -1.511e-6
-1.442, -1.916e-6
-1.441, -1.610e-6
-1.440, -1.817e-6
-1.439, -1.916e-6
-1.438, -1.719e-6
-1.437, -2.005e-6
-1.436, -2.222e-6
-1.435, -2.281e-6
-1.434, -2.103e-6
-1.433, -2.488e-6
-1.432, -2.518e-6
-1.431, -2.301e-6
-1.430, -2.459e-6
-1.429, -2.745e-6
-1.428, -2.547e-6
-1.427, -2.616e-6
-1.426, -2.715e-6
-1.425, -2.843e-6
-1.424, -2.587e-6
-1.423, -3.021e-6
-1.422, -3.090e-6
-1.421, -2.646e-6
-1.420, -3.169e-6
-1.419, -3.110e-6
-1.418, -2.853e-6
-1.417, -3.199e-6
-1.416, -3.268e-6
-1.415, -3.366e-6
-1.414, -3.080e-6
-1.413, -3.347e-6
-1.412, -3.603e-6
-1.411, -3.090e-6
-1.410, -3.317e-6
-1.409, -3.672e-6
-1.408, -3.337e-6
-1.407, -3.573e-6
-1.406, -3.692e-6
-1.405, -3.781e-6
-1.404, -3.208e-6
-1.403, -3.800e-6
-1.402, -3.840e-6
-1.401, -3.593e-6
-1.400, -3.840e-6
-1.399, -4.057e-6
-1.398, -3.702e-6
-1.397, -3.889e-6
-1.396, -3.860e-6
-1.395, -4.136e-6
-1.394, -3.712e-6
-1.393, -4.027e-6
-1.392, -4.294e-6
-1.391, -3.721e-6
-1.390, -4.274e-6
-1.389, -4.264e-6
-1.388, -4.027e-6
-1.387, -4.096e-6
-1.386, -4.234e-6
-1.385, -4.501e-6
-1.384, -4.067e-6
-1.383, -4.313e-6
-1.382, -4.580e-6
-1.381, -4.126e-6
-1.380, -4.313e-6
-1.379, -4.521e-6
-1.378, -4.264e-6
-1.377, -4.442e-6
-1.376, -4.412e-6
-1.375, -4.432e-6
-1.374, -4.195e-6
-1.373, -4.560e-6
-1.372, -4.708e-6
-1.371, -4.254e-6
-1.370, -4.708e-6
-1.369, -4.876e-6
-1.368, -4.402e-6
-1.367, -4.728e-6
-1.366, -4.619e-6
-1.365, -4.826e-6
-1.364, -4.452e-6
-1.363, -4.757e-6
-1.362, -4.846e-6
-1.361, -4.432e-6
-1.360, -4.708e-6
-1.359, -4.846e-6
-1.358, -4.629e-6
-1.357, -4.817e-6
-1.356, -4.817e-6
-1.355, -5.172e-6
-1.354, -4.659e-6
-1.353, -5.024e-6
-1.352, -4.965e-6
-1.351, -4.669e-6
-1.350, -4.984e-6
-1.349, -5.063e-6
-1.348, -4.600e-6
-1.347, -4.876e-6
-1.346, -5.191e-6
-1.345, -4.866e-6
-1.344, -4.984e-6
-1.343, -5.122e-6
-1.342, -5.251e-6
-1.341, -4.994e-6
-1.340, -5.201e-6
-1.339, -5.270e-6
-1.338, -4.905e-6
-1.337, -5.142e-6
-1.336, -5.162e-6
-1.335, -5.182e-6
-1.334, -5.063e-6
-1.333, -5.280e-6
-1.332, -5.339e-6
-1.331, -4.974e-6
-1.330, -5.152e-6
-1.329, -5.310e-6
-1.328, -5.182e-6
-1.327, -5.359e-6
-1.326, -5.517e-6
-1.325, -5.369e-6
-1.324, -5.191e-6
-1.323, -5.497e-6
-1.322, -5.576e-6
-1.321, -5.162e-6
-1.320, -5.616e-6
-1.319, -5.517e-6
-1.318, -5.349e-6
-1.317, -5.379e-6
-1.316, -5.507e-6
-1.315, -5.645e-6
-1.314, -5.261e-6
-1.313, -5.458e-6
-1.312, -5.685e-6
-1.311, -5.300e-6
-1.310, -5.665e-6
-1.309, -5.566e-6
-1.308, -5.320e-6
-1.307, -5.586e-6
-1.306, -5.655e-6
-1.305, -5.734e-6
-1.304, -5.409e-6
-1.303, -5.793e-6
-1.302, -5.813e-6
-1.301, -5.409e-6
-1.300, -5.774e-6
-1.299, -5.754e-6
-1.298, -5.517e-6
-1.297, -5.695e-6
-1.296, -5.813e-6
-1.295, -5.606e-6
-1.294, -5.438e-6
-1.293, -5.537e-6
-1.292, -5.981e-6
-1.291, -5.616e-6
-1.290, -5.635e-6
-1.289, -5.971e-6
-1.288, -5.359e-6
-1.287, -5.852e-6
-1.286, -5.922e-6
-1.285, -5.991e-6
-1.284, -5.517e-6
-1.283, -5.902e-6
-1.282, -5.912e-6
-1.281, -5.655e-6
-1.280, -5.912e-6
-1.279, -6.000e-6
-1.278, -5.813e-6
-1.277, -5.951e-6
-1.276, -6.109e-6
-1.275, -6.020e-6
-1.274, -5.635e-6
-1.273, -6.208e-6
-1.272, -6.040e-6
-1.271, -5.704e-6
-1.270, -5.991e-6
-1.269, -6.060e-6
-1.268, -5.803e-6
-1.267, -6.079e-6
-1.266, -6.020e-6
-1.265, -6.089e-6
-1.264, -5.754e-6
-1.263, -6.119e-6
-1.262, -6.218e-6
-1.261, -5.793e-6
-1.260, -5.951e-6
-1.259, -6.237e-6
-1.258, -5.793e-6
-1.257, -6.178e-6
-1.256, -6.109e-6
-1.255, -6.109e-6
-1.254, -6.010e-6
-1.253, -6.267e-6
-1.252, -6.296e-6
-1.251, -5.922e-6
-1.250, -6.208e-6
-1.249, -6.415e-6
-1.248, -6.139e-6
-1.247, -6.257e-6
-1.246, -6.395e-6
-1.245, -6.218e-6
-1.244, -6.020e-6
-1.243, -6.405e-6
-1.242, -6.592e-6
-1.241, -6.326e-6
-1.240, -6.405e-6
-1.239, -6.356e-6
-1.238, -6.198e-6
-1.237, -6.395e-6
-1.236, -6.316e-6
-1.235, -6.356e-6
-1.234, -6.237e-6
-1.233, -6.316e-6
-1.232, -6.642e-6
-1.231, -6.079e-6
-1.230, -6.464e-6
-1.229, -6.661e-6
-1.228, -6.405e-6
-1.227, -6.573e-6
-1.226, -6.543e-6
-1.225, -6.642e-6
-1.224, -6.464e-6
-1.223, -6.652e-6
-1.222, -6.681e-6
-1.221, -6.385e-6
-1.220, -6.770e-6
-1.219, -6.661e-6
-1.218, -6.464e-6
-1.217, -6.514e-6
-1.216, -6.829e-6
-1.215, -6.770e-6
-1.214, -6.642e-6
-1.213, -6.711e-6
-1.212, -6.701e-6
-1.211, -6.602e-6
-1.210, -6.652e-6
-1.209, -6.829e-6
-1.208, -6.622e-6
-1.207, -6.770e-6
-1.206, -6.839e-6
-1.205, -6.879e-6
-1.204, -6.681e-6
-1.203, -6.987e-6
-1.202, -7.027e-6
-1.201, -6.553e-6
-1.200, -6.770e-6
-1.199, -6.977e-6
-1.198, -6.602e-6
-1.197, -7.036e-6
-1.196, -6.819e-6
-1.195, -7.056e-6
-1.194, -6.583e-6
-1.193, -6.957e-6
-1.192, -7.115e-6
-1.191, -6.809e-6
-1.190, -7.204e-6
-1.189, -6.967e-6
-1.188, -6.977e-6
-1.187, -6.948e-6
-1.186, -7.007e-6
-1.185, -6.987e-6
-1.184, -6.849e-6
-1.183, -6.948e-6
-1.182, -7.194e-6
-1.181, -7.017e-6
-1.180, -7.036e-6
-1.179, -7.145e-6
-1.178, -6.770e-6
-1.177, -7.007e-6
-1.176, -7.125e-6
-1.175, -7.214e-6
-1.174, -6.809e-6
-1.173, -7.086e-6
-1.172, -7.224e-6
-1.171, -6.997e-6
-1.170, -7.234e-6
-1.169, -7.214e-6
-1.168, -6.948e-6
-1.167, -7.036e-6
-1.166, -6.977e-6
-1.165, -7.283e-6
-1.164, -7.056e-6
-1.163, -7.204e-6
-1.162, -7.342e-6
-1.161, -7.046e-6
-1.160, -7.086e-6
-1.159, -7.303e-6
-1.158, -7.253e-6
-1.157, -7.007e-6
-1.156, -7.105e-6
-1.155, -7.155e-6
-1.154, -6.997e-6
-1.153, -7.293e-6
-1.152, -7.293e-6
-1.151, -7.056e-6
-1.150, -7.175e-6
-1.149, -7.244e-6
-1.148, -6.938e-6
-1.147, -7.273e-6
-1.146, -7.372e-6
-1.145, -7.362e-6
-1.144, -7.056e-6
-1.143, -7.392e-6
-1.142, -7.451e-6
-1.141, -7.007e-6
-1.140, -7.244e-6
-1.139, -7.441e-6
-1.138, -7.234e-6
-1.137, -7.549e-6
-1.136, -7.332e-6
-1.135, -7.372e-6
-1.134, -7.184e-6
-1.133, -7.323e-6
-1.132, -7.549e-6
-1.131, -7.017e-6
-1.130, -7.392e-6
-1.129, -7.421e-6
-1.128, -7.036e-6
-1.127, -7.332e-6
-1.126, -7.628e-6
-1.125, -7.549e-6
-1.124, -7.293e-6
-1.123, -7.500e-6
-1.122, -7.589e-6
-1.121, -7.066e-6
-1.120, -7.480e-6
-1.119, -7.628e-6
-1.118, -7.244e-6
-1.117, -7.480e-6
-1.116, -7.451e-6
-1.115, -7.490e-6
-1.114, -7.421e-6
-1.113, -7.569e-6
-1.112, -7.648e-6
-1.111, -7.046e-6
-1.110, -7.530e-6
-1.109, -7.658e-6
-1.108, -7.283e-6
-1.107, -7.826e-6
-1.106, -7.510e-6
-1.105, -7.648e-6
-1.104, -7.510e-6
-1.103, -7.411e-6
-1.102, -7.757e-6
-1.101, -7.234e-6
-1.100, -7.549e-6
-1.099, -7.688e-6
-1.098, -7.470e-6
-1.097, -7.628e-6
-1.096, -7.747e-6
-1.095, -7.796e-6
-1.094, -7.470e-6
-1.093, -7.609e-6
-1.092, -7.875e-6
-1.091, -7.727e-6
-1.090, -7.836e-6
-1.089, -7.747e-6
-1.088, -7.411e-6
-1.087, -7.589e-6
-1.086, -7.875e-6
-1.085, -7.648e-6
-1.084, -7.688e-6
-1.083, -7.678e-6
-1.082, -7.944e-6
-1.081, -7.727e-6
-1.080, -7.885e-6
-1.079, -7.895e-6
-1.078, -7.451e-6
-1.077, -7.845e-6
-1.076, -7.786e-6
-1.075, -7.964e-6
-1.074, -7.747e-6
-1.073, -7.944e-6
-1.072, -8.132e-6
-1.071, -7.737e-6
-1.070, -8.033e-6
-1.069, -8.191e-6
-1.068, -7.974e-6
-1.067, -8.230e-6
-1.066, -8.033e-6
-1.065, -8.003e-6
-1.064, -7.836e-6
-1.063, -8.210e-6
-1.062, -8.112e-6
-1.061, -7.905e-6
-1.060, -7.993e-6
-1.059, -8.181e-6
-1.058, -7.895e-6
-1.057, -8.082e-6
-1.056, -8.072e-6
-1.055, -8.122e-6
-1.054, -8.043e-6
-1.053, -8.240e-6
-1.052, -8.270e-6
-1.051, -7.974e-6
-1.050, -8.092e-6
-1.049, -8.368e-6
-1.048, -8.171e-6
-1.047, -8.388e-6
-1.046, -8.368e-6
-1.045, -8.289e-6
-1.044, -8.151e-6
-1.043, -8.457e-6
-1.042, -8.566e-6
-1.041, -8.132e-6
-1.040, -8.378e-6
-1.039, -8.566e-6
-1.038, -8.250e-6
-1.037, -8.664e-6
-1.036, -8.447e-6
-1.035, -8.793e-6
-1.034, -8.250e-6
-1.033, -8.566e-6
-1.032, -8.743e-6
-1.031, -8.516e-6
-1.030, -8.862e-6
-1.029, -8.891e-6
-1.028, -8.457e-6
-1.027, -8.773e-6
-1.026, -8.793e-6
-1.025, -8.852e-6
-1.024, -8.714e-6
-1.023, -9.029e-6
-1.022, -9.177e-6
-1.021, -8.684e-6
-1.020, -9.010e-6
-1.019, -9.227e-6
-1.018, -8.941e-6
-1.017, -9.089e-6
-1.016, -9.187e-6
-1.015, -9.158e-6
-1.014, -9.138e-6
-1.013, -9.217e-6
-1.012, -9.592e-6
-1.011, -9.039e-6
-1.010, -9.394e-6
-1.009, -9.513e-6
-1.008, -9.276e-6
-1.007, -9.503e-6
-1.006, -9.345e-6
-1.005, -9.473e-6
-1.004, -9.503e-6
-1.003, -9.384e-6
-1.002, -9.789e-6
-1.001, -9.365e-6
