Potential V vs RHE, Current mA cm-2
0.013299999999999867,-0.48199213986401795
0.012299999999999978,-2.7501987669376318
0.011299999999999866,-4.800115440442069
0.010299999999999976,-6.762320013354876
0.009299999999999864,-8.55051509638428
0.008299999999999974,-10.208556739826104
0.007299999999999862,-11.56102074249708
0.006299999999999972,-12.73806054398479
0.00529999999999986,-13.741090855589102
0.0042999999999999705,-14.783733083589633
0.0032999999999998586,-15.830619445489761
0.0022999999999999687,-16.835064468393938
0.0012999999999998568,-17.71218547431026
0.00029999999999996696,-18.362952672248177
-0.000700000000000145,-18.88639585319824
-0.0017000000000000348,-19.409839034148305
-0.0027000000000001467,-19.97572355409432
-0.0037000000000000366,-20.626490752032236
-0.0047000000000001485,-21.2065223849769
-0.005700000000000038,-21.729965565926964
-0.00670000000000015,-22.111937616890522
-0.00770000000000004,-22.33829142486893
-0.008700000000000152,-22.67782213683654
-0.009700000000000042,-23.073941300798747
-0.010700000000000154,-23.55494314275286
-0.011700000000000044,-23.951062306715073
-0.012700000000000156,-24.16326900169483
-0.013700000000000045,-24.290593018682678
-0.014700000000000157,-24.432064148669184
-0.015700000000000047,-24.601829504652986
-0.01670000000000016,-24.9130659906233
-0.01770000000000005,-25.252596702590903
-0.01870000000000016,-25.43650917157336
-0.01970000000000005,-25.521391849565262
-0.020700000000000163,-25.478950510569312
-0.021700000000000053,-25.478950510569312
-0.022700000000000164,-25.60627452755716
-0.023700000000000054,-25.77603988354097
-0.024700000000000166,-26.002393691519377
-0.025700000000000056,-26.087276369511276
-0.026700000000000168,-26.044835030515326
-0.027700000000000058,-25.959952352523427
-0.02870000000000017,-25.91751101352747
-0.02970000000000006,-26.044835030515326
-0.03070000000000017,-26.21460038649913
-0.03170000000000006,-26.34192440348698
-0.03270000000000017,-26.38436574248293
-0.03370000000000006,-26.29948306449103
-0.034700000000000175,-26.21460038649913
-0.035700000000000065,-26.21460038649913
-0.03670000000000018,-26.34192440348698
-0.03770000000000007,-26.483395533473487
-0.03870000000000018,-26.568278211465387
-0.03970000000000007,-26.483395533473487
-0.04070000000000018,-26.34192440348698
-0.04170000000000007,-26.257041725495082
-0.04270000000000018,-26.257041725495082
-0.04370000000000007,-26.38436574248293
-0.044700000000000184,-26.483395533473487
-0.045700000000000074,-26.525836872469437
-0.046700000000000186,-26.440954194477534
-0.047700000000000076,-26.257041725495082
-0.04870000000000019,-26.21460038649913
-0.04970000000000008,-26.29948306449103
-0.05070000000000019,-26.440954194477534
-0.05170000000000008,-26.568278211465387
-0.05270000000000019,-26.525836872469437
-0.05370000000000008,-26.38436574248293
-0.05470000000000019,-26.257041725495082
-0.05570000000000008,-26.257041725495082
-0.056700000000000195,-26.34192440348698
-0.057700000000000085,-26.483395533473487
-0.058700000000000196,-26.525836872469437
-0.059700000000000086,-26.483395533473487
-0.0607000000000002,-26.29948306449103
-0.06170000000000009,-26.21460038649913
-0.0627000000000002,-26.29948306449103
-0.06370000000000009,-26.38436574248293
-0.0647000000000002,-26.525836872469437
-0.06570000000000009,-26.568278211465387
-0.0667000000000002,-26.483395533473487
-0.0677000000000001,-26.34192440348698
-0.0687000000000002,-26.29948306449103
-0.0697000000000001,-26.38436574248293
-0.07070000000000021,-26.568278211465387
-0.0717000000000001,-26.69560222845324
-0.07270000000000021,-26.65316088945729
-0.0737000000000001,-26.525836872469437
-0.07470000000000021,-26.440954194477534
-0.0757000000000001,-26.38436574248293
-0.07670000000000021,-26.483395533473487
-0.0777000000000001,-26.61071955046134
-0.07870000000000021,-26.61071955046134
-0.0797000000000001,-26.525836872469437
-0.08070000000000022,-26.38436574248293
-0.0817000000000001,-26.29948306449103
-0.08270000000000022,-26.29948306449103
-0.08370000000000011,-26.440954194477534
-0.08470000000000022,-26.568278211465387
-0.08570000000000011,-26.61071955046134
-0.08670000000000022,-26.525836872469437
-0.08770000000000011,-26.34192440348698
-0.08870000000000022,-26.29948306449103
-0.08970000000000011,-26.34192440348698
-0.09070000000000022,-26.525836872469437
-0.09170000000000011,-26.61071955046134
-0.09270000000000023,-26.568278211465387
-0.09370000000000012,-26.483395533473487
-0.09470000000000023,-26.34192440348698
-0.09570000000000012,-26.29948306449103
-0.09670000000000023,-26.440954194477534
-0.09770000000000012,-26.61071955046134
-0.09870000000000023,-26.69560222845324
-0.09970000000000012,-26.69560222845324
-0.10070000000000023,-26.568278211465387
-0.10170000000000012,-26.483395533473487
-0.10270000000000024,-26.525836872469437
-0.10370000000000013,-26.61071955046134
-0.10470000000000024,-26.69560222845324
-0.10570000000000013,-26.738043567449193
-0.10670000000000024,-26.65316088945729
-0.10770000000000013,-26.525836872469437
-0.10870000000000024,-26.483395533473487
-0.10970000000000013,-26.568278211465387
-0.11070000000000024,-26.738043567449193
-0.11170000000000013,-26.822926245441096
-0.11270000000000002,-26.822926245441096
-0.11370000000000013,-26.69560222845324
-0.11470000000000002,-26.61071955046134
-0.11570000000000014,-26.568278211465387
-0.11670000000000003,-26.65316088945729
-0.11770000000000014,-26.822926245441096
-0.11870000000000003,-26.86536758443705
-0.11970000000000014,-26.780484906445146
-0.12070000000000003,-26.65316088945729
-0.12170000000000014,-26.568278211465387
-0.12270000000000003,-26.61071955046134
-0.12370000000000014,-26.69560222845324
-0.12470000000000003,-26.780484906445146
-0.12570000000000014,-26.86536758443705
-0.12670000000000003,-26.780484906445146
-0.12770000000000015,-26.65316088945729
-0.12870000000000004,-26.65316088945729
-0.12970000000000015,-26.69560222845324
-0.13070000000000004,-26.822926245441096
-0.13170000000000015,-26.9643973754276
-0.13270000000000004,-26.907808923433
-0.13370000000000015,-26.822926245441096
-0.13470000000000004,-26.780484906445146
-0.13570000000000015,-26.738043567449193
-0.13670000000000004,-26.907808923433
-0.13770000000000016,-27.091721392415455
-0.13870000000000005,-27.176604070407354
-0.13970000000000016,-27.134162731411404
-0.14070000000000005,-26.9643973754276
-0.14170000000000016,-26.907808923433
-0.14270000000000005,-26.9643973754276
-0.14370000000000016,-27.091721392415455
-0.14470000000000005,-27.261486748399253
-0.14570000000000016,-27.34636942639116
-0.14670000000000005,-27.303928087395207
-0.14770000000000016,-27.176604070407354
-0.14870000000000005,-27.134162731411404
-0.14970000000000017,-27.219045409403304
-0.15070000000000006,-27.34636942639116
-0.15170000000000017,-27.487840556377662
-0.15270000000000006,-27.43125210438306
-0.15370000000000017,-27.34636942639116
-0.15470000000000006,-27.261486748399253
-0.15570000000000017,-27.303928087395207
-0.15670000000000006,-27.43125210438306
-0.15770000000000017,-27.615164573365515
-0.15870000000000006,-27.742488590353368
-0.15970000000000018,-27.65760591236147
-0.16070000000000007,-27.615164573365515
-0.16170000000000018,-27.572723234369565
-0.16270000000000007,-27.65760591236147
-0.16370000000000018,-27.827371268345274
-0.16470000000000007,-28.011283737327723
-0.16570000000000018,-28.09616641531963
-0.16670000000000007,-28.011283737327723
-0.16770000000000018,-27.912253946337174
-0.16870000000000007,-27.869812607341224
-0.16970000000000018,-28.011283737327723
-0.17070000000000007,-28.13860775431558
-0.17170000000000019,-28.265931771303435
-0.17270000000000008,-28.265931771303435
-0.1737000000000002,-28.18104909331153
-0.17470000000000008,-28.09616641531963
-0.1757000000000002,-28.05372507632368
-0.17670000000000008,-28.22349043230748
-0.1777000000000002,-28.435697127287238
-0.17870000000000008,-28.478138466283188
-0.1797000000000002,-28.478138466283188
-0.18070000000000008,-28.393255788291288
-0.1817000000000002,-28.393255788291288
-0.18270000000000008,-28.53472691827779
-0.1837000000000002,-28.662050935265643
-0.1847000000000001,-28.831816291249446
-0.1857000000000002,-28.91669896924135
-0.1867000000000001,-28.8742576302454
-0.1877000000000002,-28.789374952253496
-0.1887000000000001,-28.746933613257543
-0.1897000000000002,-28.8742576302454
-0.1907000000000001,-29.001581647233255
-0.1917000000000001,-29.14305277721976
-0.19269999999999998,-29.18549411621571
-0.1937000000000001,-29.100611438223805
-0.19469999999999998,-29.001581647233255
-0.1957000000000001,-29.058170099227848
-0.19669999999999999,-29.18549411621571
-0.1977000000000001,-29.39770081119546
-0.1987,-29.525024828183312
-0.1997000000000001,-29.525024828183312
-0.2007,-29.440142150191413
-0.2017000000000001,-29.482583489187363
-0.2027,-29.581613280177915
-0.2037000000000001,-29.793819975157668
-0.2047,-29.96358533114148
-0.2057000000000001,-30.10505646112798
-0.2067,-30.04846800913338
-0.2077000000000001,-29.96358533114148
-0.2087,-29.96358533114148
-0.2097000000000001,-30.147497800123933
-0.2107,-30.359704495103685
-0.2117000000000001,-30.529469851087494
-0.2127,-30.571911190083444
-0.2137000000000001,-30.529469851087494
-0.2147,-30.529469851087494
-0.2157000000000001,-30.670940981073993
-0.2167,-30.8407063370578
-0.21770000000000012,-31.137795710029454
-0.2187,-31.27926684001596
-0.21970000000000012,-31.321708179011907
-0.2207,-31.27926684001596
-0.22170000000000012,-31.27926684001596
-0.2227,-31.449032195999767
-0.22370000000000012,-31.618797551983565
-0.2247,-31.84515135996197
-0.22570000000000012,-31.972475376949827
-0.2267,-32.01491671594578
-0.22770000000000012,-32.01491671594578
-0.22870000000000001,-32.05735805494172
-0.22970000000000013,-32.283711862920136
-0.23070000000000002,-32.58080123589179
-0.23170000000000013,-32.807155043870196
-0.23270000000000002,-32.892037721862096
-0.23370000000000013,-32.93447906085806
-0.23470000000000002,-32.93447906085806
-0.23570000000000013,-33.10424441684186
-0.23670000000000002,-33.330598224820264
-0.2376999999999999,-33.627687597791926
-0.23870000000000002,-33.81160006677438
-0.2396999999999999,-33.89648274476628
-0.24070000000000003,-33.89648274476628
-0.24169999999999991,-33.98136542275818
-0.24270000000000003,-34.10868943974604
-0.24369999999999992,-34.41992592571634
-0.24470000000000003,-34.67457395969205
-0.24569999999999992,-34.90092776767045
-0.24670000000000003,-34.94336910666641
-0.24769999999999992,-34.98581044566235
-0.24870000000000003,-35.11313446265021
-0.24969999999999992,-35.32534115762997
-0.25070000000000003,-35.679018982596226
-0.2516999999999999,-35.94781412957058
-0.25270000000000004,-36.11757948555439
-0.2536999999999999,-36.20246216354629
-0.25470000000000004,-36.329786180534136
-0.2556999999999999,-36.5136986495166
-0.25670000000000004,-36.8532293614842
-0.25769999999999993,-37.249348525446415
-0.25870000000000004,-37.60302635041268
-0.25969999999999993,-37.77279170639648
-0.26070000000000004,-37.85767438438838
-0.26169999999999993,-38.04158685337084
-0.26270000000000004,-38.29623488734655
-0.26369999999999993,-38.607471373316855
-0.26470000000000005,-38.94700208528445
-0.26569999999999994,-39.21579723225882
-0.26670000000000005,-39.34312124924667
-0.26769999999999994,-39.47044526623452
-0.26870000000000005,-39.61191639622103
-0.26969999999999994,-39.95144710818864
-0.27070000000000005,-40.34756627215084
-0.27169999999999994,-40.743685436113054
-0.27270000000000005,-40.99833347008877
-0.27369999999999994,-41.182245939071215
-0.27470000000000006,-41.39445263405098
-0.27569999999999995,-41.70568912002128
-0.27670000000000006,-42.087661170984845
-0.27769999999999995,-42.6111043519349
-0.27870000000000006,-43.007223515897124
-0.27969999999999995,-43.27601866287147
-0.28070000000000006,-43.48822535785123
-0.28169999999999995,-43.75702050482558
-0.28270000000000006,-44.138992555789144
-0.28369999999999995,-44.619994397743255
-0.28470000000000006,-45.05855490070142
-0.28569999999999995,-45.497115403659585
-0.28670000000000007,-45.75176343763528
-0.28769999999999996,-46.02055858460964
-0.28870000000000007,-46.3176479575813
-0.28969999999999996,-46.79864979953541
-0.29070000000000007,-47.32209298048547
-0.29169999999999996,-47.84553616143554
-0.29270000000000007,-48.24165532539775
-0.29369999999999996,-48.59533315036401
-0.2947000000000001,-48.89242252333566
-0.29569999999999996,-49.33098302629383
-0.2967000000000001,-49.89686754623985
-0.29769999999999996,-50.60422319617236
-0.2987000000000001,-51.127666377122424
-0.29969999999999997,-51.594521106077885
-0.3007000000000001,-51.990640270040096
-0.30169999999999997,-52.42920077299826
-0.3027000000000001,-53.03752663194023
-0.30369999999999997,-53.64585249088219
-0.3047000000000001,-54.31076680181876
-0.30569999999999997,-54.834209982768826
-0.3067000000000001,-55.25862337272834
-0.3077,-55.612301197694585
-0.3087000000000001,-56.093303039648696
-0.3097,-56.74407023758662
-0.3107000000000001,-57.45142588751914
-0.3117,-58.10219308545706
-0.3127000000000001,-58.71051894439902
-0.3137,-59.19152078635314
-0.3147000000000001,-59.7149639673032
-0.3157,-60.28084848724921
-0.3167000000000001,-60.974057024183075
-0.3177,-61.7662953521075
-0.3187000000000001,-62.459503889041365
-0.3197,-63.02538840898739
-0.3207000000000001,-63.54883158993744
-0.3217,-64.11471610988345
-0.3227000000000001,-64.86451309881193
-0.3237,-65.64260431373769
-0.3247000000000001,-66.43484264166212
-0.3257,-67.21293385658788
-0.3267000000000001,-67.86370105452582
-0.3277,-68.44373268747047
-0.3287000000000001,-69.13694122440434
-0.3297,-70.01406223032066
-0.3307000000000001,-70.87703612323833
-0.3317,-71.75415712915466
-0.3327000000000001,-72.53224834408043
-0.3337,-73.197162655017
-0.3347000000000001,-73.93281253094682
-0.3357,-74.72505085887124
-0.3367000000000001,-75.6729074297808
-0.3377,-76.71979379168094
-0.3387000000000001,-77.63935613659322
-0.3397,-78.43159446451764
-0.3407000000000001,-79.20968567944341
-0.3417,-80.00192400736783
-0.3427000000000001,-80.9497805782774
-0.3437,-81.99666694017753
-0.3447000000000001,-83.08599464107361
-0.3457,-84.09043966397778
-0.3467000000000001,-84.96756066989411
-0.3477,-85.84468167581042
-0.3487000000000001,-86.80668535971866
-0.3497,-87.85357172161878
-0.3507000000000001,-88.9853407615108
-0.3517,-90.03222712341093
-0.3527000000000001,-90.99423080731917
-0.3537,-91.85720470023682
-0.3547000000000001,-92.6918843671572
-0.3557,-93.69632939006138
-0.35670000000000013,-94.78565709095746
-0.3577,-95.95986746984543
-0.35870000000000013,-97.04919517074151
-0.3597,-98.01119885464975
-0.36070000000000013,-98.93076119956201
-0.3617,-99.93520622246619
-0.3626999999999999,-101.02453392336226
-0.3637,-102.19874430225026
-0.3646999999999999,-103.41539602013418
-0.3657,-104.58960639902216
-0.3666999999999999,-105.63649276092228
-0.3677,-106.64093778382647
-0.3686999999999999,-107.78685393671715
-0.36970000000000003,-109.00350565460108
-0.3706999999999999,-110.26259871148096
-0.37170000000000003,-111.5358388813595
-0.3726999999999999,-112.62516658225556
-0.37370000000000003,-113.67205294415571
-0.3746999999999999,-114.71893930605583
-0.37570000000000003,-115.85070834594785
-0.3766999999999999,-117.15224274182368
-0.37770000000000004,-118.51036558969413
-0.3786999999999999,-119.81189998556997
-0.37970000000000004,-121.00025747745659
-0.3806999999999999,-122.08958517835266
-0.38170000000000004,-123.2213542182447
-0.38269999999999993,-124.48044727512458
-0.38370000000000004,-125.83857012299501
-0.38469999999999993,-127.23913430986138
-0.38570000000000004,-128.54066870573723
-0.38669999999999993,-127.88990150779931
-0.38570000000000004,-124.09847522416102
-0.38469999999999993,-120.9153747994647
-0.38370000000000004,-118.24157044271978
-0.38269999999999993,-115.8931496849438
-0.38170000000000004,-113.67205294415571
-0.3806999999999999,-111.4509562033676
-0.37970000000000004,-109.25815368857677
-0.3786999999999999,-107.30585209476303
-0.37770000000000004,-105.42428606594254
-0.3766999999999999,-103.7266325061045
-0.37570000000000003,-102.07142028526239
-0.3746999999999999,-100.35961961242569
-0.37370000000000003,-98.57708337459576
-0.3726999999999999,-96.83698847576176
-0.37170000000000003,-95.04030512493317
-0.3706999999999999,-93.42753424308701
-0.36970000000000003,-91.89964603923279
-0.3686999999999999,-90.32931649638259
-0.3677,-88.8438696315243
-0.3666999999999999,-87.18865741068221
-0.3657,-85.49100385084417
-0.3646999999999999,-83.96311564698992
-0.3637,-82.52011012112759
-0.3626999999999999,-81.13369304725985
-0.3617,-79.73312886039348
-0.36070000000000013,-78.24768199553519
-0.3597,-76.67735245268499
-0.35870000000000013,-75.14946424883075
-0.3577,-73.72060583596706
-0.35670000000000013,-72.40492432709259
-0.3557,-71.10338993121674
-0.3547000000000001,-69.78770842234226
-0.3537,-68.34470289647993
-0.3527000000000001,-66.81681469262568
-0.3517,-65.43039761875795
-0.3507000000000001,-64.11471610988345
-0.3497,-62.94050573099548
-0.3487000000000001,-61.851178030099405
-0.3477,-60.67696765121143
-0.3467000000000001,-59.36128614233694
-0.3457,-57.93242772947325
-0.3447000000000001,-56.65918755959472
-0.3437,-55.527418519702685
-0.3427000000000001,-54.43809081880661
-0.3417,-53.30632177891458
-0.3407000000000001,-52.033081609036046
-0.3397,-50.68910587416426
-0.3387000000000001,-49.373424365289786
-0.3377,-48.156772647405845
-0.3367000000000001,-47.02500360751382
-0.3357,-46.02055858460964
-0.3347000000000001,-44.88878954471762
-0.3337,-43.61554937483908
-0.3327000000000001,-42.3564563179592
-0.3317,-41.139804600075266
-0.3307000000000001,-40.03632978618054
-0.3297,-39.08847321527096
-0.3287000000000001,-38.12646953136274
-0.3277,-37.122024508458566
-0.3267000000000001,-35.99025546856653
-0.3257,-34.8018979766799
-0.3247000000000001,-33.755011614779775
-0.3237,-32.84959638286615
-0.3227000000000001,-31.930034037953877
-0.3217,-31.052913032037555
-0.3207000000000001,-30.00602667013743
-0.3197,-28.8742576302454
-0.3187000000000001,-27.78492992934932
-0.3177,-26.780484906445146
-0.3167000000000001,-25.86092256153287
-0.3157,-25.0828313466071
-0.3147000000000001,-24.20571034069078
-0.3137,-23.15882397879065
-0.3127000000000001,-22.069496277894572
-0.3117,-21.065051254990397
-0.3107000000000001,-20.202077362072725
-0.3097,-19.452280373144255
-0.3087000000000001,-18.674189158218486
-0.3077,-17.839509491298113
-0.3067000000000001,-16.919947146385837
-0.30569999999999997,-15.91550212348166
-0.3047000000000001,-15.01008689156804
-0.30369999999999997,-14.26028990263957
-0.3027000000000001,-13.610937416001518
-0.30169999999999997,-12.913484745168056
-0.3007000000000001,-12.084463923447142
-0.29969999999999997,-11.1677310011346
-0.2987000000000001,-10.296268840417738
-0.29769999999999996,-9.511104068992642
-0.2967000000000001,-8.85609273715513
-0.29569999999999996,-8.246352166913299
-0.2947000000000001,-7.5474847847799715
-0.29369999999999996,-6.719878674358924
-0.29270000000000007,-5.890857852638012
-0.29169999999999996,-5.0618370309171015
-0.29070000000000007,-4.406825699079589
-0.28969999999999996,-3.840941179133574
-0.28870000000000007,-3.273641947887695
-0.28769999999999996,-2.662486666345999
-0.28670000000000007,-1.8773218949209036
-0.28569999999999995,-1.0925815368857679
-0.28470000000000006,-0.3947044526623452
-0.28369999999999995,0.17231183632356148
-0.28270000000000006,0.6520404381077953
-0.28169999999999995,1.175483619057859
-0.28070000000000006,1.8292217107254924
-0.27969999999999995,2.5280890928588207
-0.27870000000000006,3.225541763692284
-0.27769999999999995,3.8366970452339793
-0.27670000000000006,4.272428125592412
-0.27569999999999995,4.708159205950842
-0.27470000000000006,5.18774633660509
-0.27369999999999994,5.8427576684426015
-0.27270000000000005,6.496354288980249
-0.27169999999999994,7.107509570521944
-0.27070000000000005,7.587096701176192
-0.26969999999999994,7.980386442538672
-0.26870000000000005,8.372261472601286
-0.26769999999999994,8.80799255295972
-0.26670000000000005,9.463003884797232
-0.26569999999999994,10.07274445503906
