Sept. 2, 2024   04:01:29
Cyclic Voltammetry
File: c:/users/guazh/data/20240829_batch_215_500/2024-08-29-exp244\exp244-2024-09-02t03_36_14-h2koh\exp244_cv_sr_600mvs_efin_-1900mv.bin
Data Source:  Experiment
Instrument Model:  CHI760E
Header: CV ran at 600 mVs
Note: 

Init E (V) = -1
High E (V) = -1
Low E (V) = -1.9
Final E (V) = -1
Init P/N = N
Scan Rate (V/s) = 0.6
Segment = 3
Sample Interval (V) = 0.001
Quiet Time (sec) = 2
Sensitivity (A/V) = 0.01
Comp R (ohm) = 1.9

Results:

Channel 1:
Segment 1:

Segment 2:

Segment 3:

Potential/V, Current/A

-1.000, 1.559e-7
-1.001, 3.239e-6
-1.002, 3.239e-6
-1.003, 3.239e-6
-1.004, 3.239e-6
-1.005, 6.322e-6
-1.006, 6.322e-6
-1.007, 6.322e-6
-1.008, 6.322e-6
-1.009, 6.322e-6
-1.010, 6.322e-6
-1.011, 6.322e-6
-1.012, 9.405e-6
-1.013, 9.405e-6
-1.014, 9.405e-6
-1.015, 9.405e-6
-1.016, 9.405e-6
-1.017, 9.405e-6
-1.018, 9.405e-6
-1.019, 9.405e-6
-1.020, 9.405e-6
-1.021, 9.405e-6
-1.022, 1.249e-5
-1.023, 9.405e-6
-1.024, 9.405e-6
-1.025, 1.249e-5
-1.026, 9.405e-6
-1.027, 1.249e-5
-1.028, 1.249e-5
-1.029, 1.249e-5
-1.030, 1.249e-5
-1.031, 1.249e-5
-1.032, 1.249e-5
-1.033, 1.249e-5
-1.034, 1.249e-5
-1.035, 1.249e-5
-1.036, 1.249e-5
-1.037, 1.249e-5
-1.038, 1.249e-5
-1.039, 1.557e-5
-1.040, 1.249e-5
-1.041, 1.249e-5
-1.042, 1.557e-5
-1.043, 1.249e-5
-1.044, 1.557e-5
-1.045, 1.557e-5
-1.046, 1.557e-5
-1.047, 1.557e-5
-1.048, 1.557e-5
-1.049, 1.557e-5
-1.050, 1.557e-5
-1.051, 1.557e-5
-1.052, 1.557e-5
-1.053, 1.557e-5
-1.054, 1.557e-5
-1.055, 1.557e-5
-1.056, 1.557e-5
-1.057, 1.557e-5
-1.058, 1.557e-5
-1.059, 1.557e-5
-1.060, 1.557e-5
-1.061, 1.557e-5
-1.062, 1.557e-5
-1.063, 1.557e-5
-1.064, 1.557e-5
-1.065, 1.557e-5
-1.066, 1.557e-5
-1.067, 1.557e-5
-1.068, 1.557e-5
-1.069, 1.557e-5
-1.070, 1.557e-5
-1.071, 1.865e-5
-1.072, 1.557e-5
-1.073, 1.557e-5
-1.074, 1.557e-5
-1.075, 1.557e-5
-1.076, 1.865e-5
-1.077, 1.865e-5
-1.078, 1.865e-5
-1.079, 1.865e-5
-1.080, 1.865e-5
-1.081, 1.865e-5
-1.082, 1.865e-5
-1.083, 1.865e-5
-1.084, 1.865e-5
-1.085, 1.865e-5
-1.086, 1.865e-5
-1.087, 1.865e-5
-1.088, 1.557e-5
-1.089, 1.865e-5
-1.090, 1.865e-5
-1.091, 1.865e-5
-1.092, 1.865e-5
-1.093, 1.865e-5
-1.094, 1.865e-5
-1.095, 1.865e-5
-1.096, 1.865e-5
-1.097, 1.865e-5
-1.098, 1.865e-5
-1.099, 1.865e-5
-1.100, 1.865e-5
-1.101, 1.865e-5
-1.102, 1.865e-5
-1.103, 1.865e-5
-1.104, 1.865e-5
-1.105, 1.865e-5
-1.106, 1.865e-5
-1.107, 1.865e-5
-1.108, 1.865e-5
-1.109, 1.865e-5
-1.110, 1.865e-5
-1.111, 1.865e-5
-1.112, 1.865e-5
-1.113, 1.865e-5
-1.114, 1.865e-5
-1.115, 1.865e-5
-1.116, 1.865e-5
-1.117, 1.865e-5
-1.118, 1.865e-5
-1.119, 1.865e-5
-1.120, 1.865e-5
-1.121, 1.865e-5
-1.122, 1.865e-5
-1.123, 1.865e-5
-1.124, 1.865e-5
-1.125, 1.865e-5
-1.126, 1.865e-5
-1.127, 1.865e-5
-1.128, 1.865e-5
-1.129, 1.865e-5
-1.130, 1.865e-5
-1.131, 1.865e-5
-1.132, 1.865e-5
-1.133, 1.865e-5
-1.134, 1.865e-5
-1.135, 1.865e-5
-1.136, 1.865e-5
-1.137, 1.865e-5
-1.138, 1.865e-5
-1.139, 1.865e-5
-1.140, 1.865e-5
-1.141, 1.865e-5
-1.142, 1.865e-5
-1.143, 2.174e-5
-1.144, 1.865e-5
-1.145, 1.865e-5
-1.146, 1.865e-5
-1.147, 2.174e-5
-1.148, 1.865e-5
-1.149, 1.865e-5
-1.150, 1.865e-5
-1.151, 1.865e-5
-1.152, 1.865e-5
-1.153, 1.865e-5
-1.154, 1.865e-5
-1.155, 1.865e-5
-1.156, 1.865e-5
-1.157, 1.865e-5
-1.158, 1.865e-5
-1.159, 1.865e-5
-1.160, 2.174e-5
-1.161, 2.174e-5
-1.162, 1.865e-5
-1.163, 2.174e-5
-1.164, 1.865e-5
-1.165, 1.865e-5
-1.166, 2.174e-5
-1.167, 2.174e-5
-1.168, 1.865e-5
-1.169, 1.865e-5
-1.170, 1.865e-5
-1.171, 1.865e-5
-1.172, 1.865e-5
-1.173, 1.865e-5
-1.174, 1.865e-5
-1.175, 1.865e-5
-1.176, 1.865e-5
-1.177, 1.865e-5
-1.178, 1.865e-5
-1.179, 1.865e-5
-1.180, 1.865e-5
-1.181, 2.174e-5
-1.182, 2.174e-5
-1.183, 2.174e-5
-1.184, 2.174e-5
-1.185, 1.865e-5
-1.186, 2.174e-5
-1.187, 2.174e-5
-1.188, 2.174e-5
-1.189, 2.174e-5
-1.190, 2.174e-5
-1.191, 2.174e-5
-1.192, 2.174e-5
-1.193, 2.174e-5
-1.194, 2.174e-5
-1.195, 2.174e-5
-1.196, 2.174e-5
-1.197, 1.865e-5
-1.198, 2.174e-5
-1.199, 2.174e-5
-1.200, 2.174e-5
-1.201, 2.174e-5
-1.202, 2.174e-5
-1.203, 2.174e-5
-1.204, 2.174e-5
-1.205, 2.174e-5
-1.206, 2.174e-5
-1.207, 2.174e-5
-1.208, 2.174e-5
-1.209, 2.174e-5
-1.210, 2.174e-5
-1.211, 2.174e-5
-1.212, 2.174e-5
-1.213, 2.174e-5
-1.214, 2.174e-5
-1.215, 2.174e-5
-1.216, 2.174e-5
-1.217, 2.174e-5
-1.218, 2.174e-5
-1.219, 2.174e-5
-1.220, 2.174e-5
-1.221, 2.174e-5
-1.222, 2.174e-5
-1.223, 2.174e-5
-1.224, 2.174e-5
-1.225, 2.174e-5
-1.226, 2.174e-5
-1.227, 2.174e-5
-1.228, 2.174e-5
-1.229, 2.174e-5
-1.230, 2.174e-5
-1.231, 2.174e-5
-1.232, 2.174e-5
-1.233, 2.482e-5
-1.234, 2.174e-5
-1.235, 2.174e-5
-1.236, 2.482e-5
-1.237, 2.482e-5
-1.238, 2.174e-5
-1.239, 2.174e-5
-1.240, 2.174e-5
-1.241, 2.174e-5
-1.242, 2.482e-5
-1.243, 2.174e-5
-1.244, 2.174e-5
-1.245, 2.482e-5
-1.246, 2.174e-5
-1.247, 2.482e-5
-1.248, 2.174e-5
-1.249, 2.482e-5
-1.250, 2.482e-5
-1.251, 2.482e-5
-1.252, 2.482e-5
-1.253, 2.482e-5
-1.254, 2.482e-5
-1.255, 2.482e-5
-1.256, 2.482e-5
-1.257, 2.482e-5
-1.258, 2.482e-5
-1.259, 2.482e-5
-1.260, 2.482e-5
-1.261, 2.482e-5
-1.262, 2.482e-5
-1.263, 2.482e-5
-1.264, 2.482e-5
-1.265, 2.482e-5
-1.266, 2.482e-5
-1.267, 2.482e-5
-1.268, 2.482e-5
-1.269, 2.482e-5
-1.270, 2.482e-5
-1.271, 2.482e-5
-1.272, 2.482e-5
-1.273, 2.482e-5
-1.274, 2.482e-5
-1.275, 2.482e-5
-1.276, 2.482e-5
-1.277, 2.482e-5
-1.278, 2.482e-5
-1.279, 2.482e-5
-1.280, 2.482e-5
-1.281, 2.482e-5
-1.282, 2.482e-5
-1.283, 2.482e-5
-1.284, 2.482e-5
-1.285, 2.482e-5
-1.286, 2.482e-5
-1.287, 2.482e-5
-1.288, 2.482e-5
-1.289, 2.790e-5
-1.290, 2.482e-5
-1.291, 2.790e-5
-1.292, 2.482e-5
-1.293, 2.482e-5
-1.294, 2.790e-5
-1.295, 2.790e-5
-1.296, 2.790e-5
-1.297, 2.790e-5
-1.298, 2.482e-5
-1.299, 2.482e-5
-1.300, 2.790e-5
-1.301, 2.482e-5
-1.302, 2.790e-5
-1.303, 2.790e-5
-1.304, 2.790e-5
-1.305, 2.790e-5
-1.306, 2.790e-5
-1.307, 2.482e-5
-1.308, 2.790e-5
-1.309, 2.790e-5
-1.310, 2.790e-5
-1.311, 2.790e-5
-1.312, 2.790e-5
-1.313, 2.790e-5
-1.314, 2.790e-5
-1.315, 2.790e-5
-1.316, 2.790e-5
-1.317, 2.790e-5
-1.318, 2.790e-5
-1.319, 2.790e-5
-1.320, 2.790e-5
-1.321, 3.099e-5
-1.322, 2.790e-5
-1.323, 2.790e-5
-1.324, 2.790e-5
-1.325, 2.790e-5
-1.326, 2.790e-5
-1.327, 3.099e-5
-1.328, 2.790e-5
-1.329, 2.790e-5
-1.330, 2.790e-5
-1.331, 2.790e-5
-1.332, 3.099e-5
-1.333, 2.790e-5
-1.334, 3.099e-5
-1.335, 3.099e-5
-1.336, 3.099e-5
-1.337, 3.099e-5
-1.338, 3.099e-5
-1.339, 3.099e-5
-1.340, 3.099e-5
-1.341, 3.099e-5
-1.342, 3.099e-5
-1.343, 3.099e-5
-1.344, 3.099e-5
-1.345, 3.099e-5
-1.346, 3.099e-5
-1.347, 3.099e-5
-1.348, 3.099e-5
-1.349, 3.099e-5
-1.350, 3.099e-5
-1.351, 3.099e-5
-1.352, 3.099e-5
-1.353, 3.099e-5
-1.354, 3.099e-5
-1.355, 3.099e-5
-1.356, 3.099e-5
-1.357, 3.099e-5
-1.358, 3.099e-5
-1.359, 3.099e-5
-1.360, 3.099e-5
-1.361, 3.099e-5
-1.362, 3.099e-5
-1.363, 3.407e-5
-1.364, 3.407e-5
-1.365, 3.099e-5
-1.366, 3.407e-5
-1.367, 3.407e-5
-1.368, 3.407e-5
-1.369, 3.099e-5
-1.370, 3.407e-5
-1.371, 3.407e-5
-1.372, 3.407e-5
-1.373, 3.407e-5
-1.374, 3.407e-5
-1.375, 3.407e-5
-1.376, 3.407e-5
-1.377, 3.407e-5
-1.378, 3.407e-5
-1.379, 3.407e-5
-1.380, 3.407e-5
-1.381, 3.715e-5
-1.382, 3.407e-5
-1.383, 3.407e-5
-1.384, 3.407e-5
-1.385, 3.715e-5
-1.386, 3.407e-5
-1.387, 3.715e-5
-1.388, 3.407e-5
-1.389, 3.407e-5
-1.390, 3.715e-5
-1.391, 3.715e-5
-1.392, 3.715e-5
-1.393, 3.715e-5
-1.394, 3.715e-5
-1.395, 3.715e-5
-1.396, 3.715e-5
-1.397, 3.715e-5
-1.398, 3.715e-5
-1.399, 3.715e-5
-1.400, 3.715e-5
-1.401, 3.715e-5
-1.402, 3.715e-5
-1.403, 3.715e-5
-1.404, 4.024e-5
-1.405, 4.024e-5
-1.406, 3.715e-5
-1.407, 4.024e-5
-1.408, 3.715e-5
-1.409, 4.024e-5
-1.410, 4.024e-5
-1.411, 4.024e-5
-1.412, 4.024e-5
-1.413, 4.024e-5
-1.414, 4.024e-5
-1.415, 4.024e-5
-1.416, 4.024e-5
-1.417, 4.024e-5
-1.418, 4.024e-5
-1.419, 4.024e-5
-1.420, 4.024e-5
-1.421, 4.024e-5
-1.422, 4.024e-5
-1.423, 4.024e-5
-1.424, 4.332e-5
-1.425, 4.332e-5
-1.426, 4.332e-5
-1.427, 4.332e-5
-1.428, 4.332e-5
-1.429, 4.332e-5
-1.430, 4.332e-5
-1.431, 4.332e-5
-1.432, 4.332e-5
-1.433, 4.332e-5
-1.434, 4.332e-5
-1.435, 4.332e-5
-1.436, 4.332e-5
-1.437, 4.332e-5
-1.438, 4.332e-5
-1.439, 4.640e-5
-1.440, 4.640e-5
-1.441, 4.640e-5
-1.442, 4.640e-5
-1.443, 4.640e-5
-1.444, 4.640e-5
-1.445, 4.640e-5
-1.446, 4.640e-5
-1.447, 4.640e-5
-1.448, 4.640e-5
-1.449, 4.640e-5
-1.450, 4.640e-5
-1.451, 4.949e-5
-1.452, 4.949e-5
-1.453, 4.949e-5
-1.454, 4.949e-5
-1.455, 4.949e-5
-1.456, 4.949e-5
-1.457, 4.949e-5
-1.458, 4.949e-5
-1.459, 4.949e-5
-1.460, 4.949e-5
-1.461, 5.257e-5
-1.462, 5.257e-5
-1.463, 5.257e-5
-1.464, 5.257e-5
-1.465, 5.257e-5
-1.466, 5.257e-5
-1.467, 5.257e-5
-1.468, 5.257e-5
-1.469, 5.257e-5
-1.470, 5.257e-5
-1.471, 5.565e-5
-1.472, 5.565e-5
-1.473, 5.565e-5
-1.474, 5.565e-5
-1.475, 5.565e-5
-1.476, 5.565e-5
-1.477, 5.565e-5
-1.478, 5.565e-5
-1.479, 5.565e-5
-1.480, 5.873e-5
-1.481, 5.873e-5
-1.482, 5.873e-5
-1.483, 5.873e-5
-1.484, 5.873e-5
-1.485, 5.873e-5
-1.486, 6.182e-5
-1.487, 5.873e-5
-1.488, 6.182e-5
-1.489, 6.182e-5
-1.490, 6.182e-5
-1.491, 6.182e-5
-1.492, 6.182e-5
-1.493, 6.182e-5
-1.494, 6.182e-5
-1.495, 6.490e-5
-1.496, 6.490e-5
-1.497, 6.490e-5
-1.498, 6.490e-5
-1.499, 6.490e-5
-1.500, 6.490e-5
-1.501, 6.490e-5
-1.502, 6.798e-5
-1.503, 6.798e-5
-1.504, 6.798e-5
-1.505, 6.798e-5
-1.506, 6.798e-5
-1.507, 7.107e-5
-1.508, 6.798e-5
-1.509, 7.107e-5
-1.510, 7.107e-5
-1.511, 7.107e-5
-1.512, 7.415e-5
-1.513, 7.107e-5
-1.514, 7.107e-5
-1.515, 7.415e-5
-1.516, 7.415e-5
-1.517, 7.415e-5
-1.518, 7.415e-5
-1.519, 7.415e-5
-1.520, 7.415e-5
-1.521, 7.723e-5
-1.522, 7.723e-5
-1.523, 7.723e-5
-1.524, 7.723e-5
-1.525, 8.032e-5
-1.526, 8.032e-5
-1.527, 8.032e-5
-1.528, 8.032e-5
-1.529, 8.340e-5
-1.530, 8.340e-5
-1.531, 8.340e-5
-1.532, 8.340e-5
-1.533, 8.340e-5
-1.534, 8.648e-5
-1.535, 8.648e-5
-1.536, 8.648e-5
-1.537, 8.957e-5
-1.538, 8.957e-5
-1.539, 8.957e-5
-1.540, 8.957e-5
-1.541, 8.957e-5
-1.542, 9.265e-5
-1.543, 9.265e-5
-1.544, 9.265e-5
-1.545, 9.265e-5
-1.546, 9.573e-5
-1.547, 9.573e-5
-1.548, 9.573e-5
-1.549, 9.882e-5
-1.550, 9.882e-5
-1.551, 9.882e-5
-1.552, 9.882e-5
-1.553, 1.019e-4
-1.554, 1.019e-4
-1.555, 1.019e-4
-1.556, 1.050e-4
-1.557, 1.050e-4
-1.558, 1.050e-4
-1.559, 1.050e-4
-1.560, 1.081e-4
-1.561, 1.081e-4
-1.562, 1.081e-4
-1.563, 1.111e-4
-1.564, 1.111e-4
-1.565, 1.111e-4
-1.566, 1.142e-4
-1.567, 1.142e-4
-1.568, 1.173e-4
-1.569, 1.173e-4
-1.570, 1.204e-4
-1.571, 1.204e-4
-1.572, 1.204e-4
-1.573, 1.235e-4
-1.574, 1.235e-4
-1.575, 1.235e-4
-1.576, 1.266e-4
-1.577, 1.266e-4
-1.578, 1.296e-4
-1.579, 1.296e-4
-1.580, 1.296e-4
-1.581, 1.327e-4
-1.582, 1.358e-4
-1.583, 1.358e-4
-1.584, 1.358e-4
-1.585, 1.389e-4
-1.586, 1.389e-4
-1.587, 1.420e-4
-1.588, 1.451e-4
-1.589, 1.451e-4
-1.590, 1.451e-4
-1.591, 1.481e-4
-1.592, 1.481e-4
-1.593, 1.512e-4
-1.594, 1.512e-4
-1.595, 1.543e-4
-1.596, 1.574e-4
-1.597, 1.574e-4
-1.598, 1.605e-4
-1.599, 1.605e-4
-1.600, 1.636e-4
-1.601, 1.666e-4
-1.602, 1.666e-4
-1.603, 1.666e-4
-1.604, 1.697e-4
-1.605, 1.728e-4
-1.606, 1.728e-4
-1.607, 1.759e-4
-1.608, 1.790e-4
-1.609, 1.790e-4
-1.610, 1.851e-4
-1.611, 1.851e-4
-1.612, 1.882e-4
-1.613, 1.913e-4
-1.614, 1.944e-4
-1.615, 1.944e-4
-1.616, 1.975e-4
-1.617, 2.006e-4
-1.618, 2.006e-4
-1.619, 2.036e-4
-1.620, 2.067e-4
-1.621, 2.098e-4
-1.622, 2.129e-4
-1.623, 2.160e-4
-1.624, 2.191e-4
-1.625, 2.221e-4
-1.626, 2.252e-4
-1.627, 2.252e-4
-1.628, 2.283e-4
-1.629, 2.314e-4
-1.630, 2.345e-4
-1.631, 2.376e-4
-1.632, 2.406e-4
-1.633, 2.437e-4
-1.634, 2.468e-4
-1.635, 2.499e-4
-1.636, 2.530e-4
-1.637, 2.591e-4
-1.638, 2.622e-4
-1.639, 2.653e-4
-1.640, 2.684e-4
-1.641, 2.715e-4
-1.642, 2.746e-4
-1.643, 2.807e-4
-1.644, 2.838e-4
-1.645, 2.869e-4
-1.646, 2.900e-4
-1.647, 2.961e-4
-1.648, 2.992e-4
-1.649, 3.023e-4
-1.650, 3.054e-4
-1.651, 3.115e-4
-1.652, 3.146e-4
-1.653, 3.208e-4
-1.654, 3.239e-4
-1.655, 3.300e-4
-1.656, 3.331e-4
-1.657, 3.393e-4
-1.658, 3.424e-4
-1.659, 3.485e-4
-1.660, 3.547e-4
-1.661, 3.578e-4
-1.662, 3.640e-4
-1.663, 3.701e-4
-1.664, 3.732e-4
-1.665, 3.794e-4
-1.666, 3.855e-4
-1.667, 3.917e-4
-1.668, 3.979e-4
-1.669, 4.010e-4
-1.670, 4.071e-4
-1.671, 4.133e-4
-1.672, 4.195e-4
-1.673, 4.256e-4
-1.674, 4.318e-4
-1.675, 4.380e-4
-1.676, 4.472e-4
-1.677, 4.534e-4
-1.678, 4.595e-4
-1.679, 4.657e-4
-1.680, 4.719e-4
-1.681, 4.811e-4
-1.682, 4.873e-4
-1.683, 4.965e-4
-1.684, 5.027e-4
-1.685, 5.089e-4
-1.686, 5.181e-4
-1.687, 5.243e-4
-1.688, 5.335e-4
-1.689, 5.428e-4
-1.690, 5.489e-4
-1.691, 5.582e-4
-1.692, 5.674e-4
-1.693, 5.736e-4
-1.694, 5.829e-4
-1.695, 5.921e-4
-1.696, 6.014e-4
-1.697, 6.137e-4
-1.698, 6.229e-4
-1.699, 6.322e-4
-1.700, 6.414e-4
-1.701, 6.507e-4
-1.702, 6.630e-4
-1.703, 6.723e-4
-1.704, 6.815e-4
-1.705, 6.908e-4
-1.706, 7.031e-4
-1.707, 7.124e-4
-1.708, 7.247e-4
-1.709, 7.370e-4
-1.710, 7.463e-4
-1.711, 7.586e-4
-1.712, 7.709e-4
-1.713, 7.833e-4
-1.714, 7.956e-4
-1.715, 8.079e-4
-1.716, 8.203e-4
-1.717, 8.357e-4
-1.718, 8.480e-4
-1.719, 8.603e-4
-1.720, 8.758e-4
-1.721, 8.881e-4
-1.722, 9.004e-4
-1.723, 9.158e-4
-1.724, 9.343e-4
-1.725, 9.467e-4
-1.726, 9.652e-4
-1.727, 9.806e-4
-1.728, 9.929e-4
-1.729, 1.011e-3
-1.730, 1.027e-3
-1.731, 1.042e-3
-1.732, 1.061e-3
-1.733, 1.079e-3
-1.734, 1.095e-3
-1.735, 1.113e-3
-1.736, 1.132e-3
-1.737, 1.150e-3
-1.738, 1.169e-3
-1.739, 1.187e-3
-1.740, 1.206e-3
-1.741, 1.224e-3
-1.742, 1.246e-3
-1.743, 1.264e-3
-1.744, 1.286e-3
-1.745, 1.304e-3
-1.746, 1.326e-3
-1.747, 1.347e-3
-1.748, 1.366e-3
-1.749, 1.391e-3
-1.750, 1.412e-3
-1.751, 1.434e-3
-1.752, 1.458e-3
-1.753, 1.480e-3
-1.754, 1.505e-3
-1.755, 1.526e-3
-1.756, 1.554e-3
-1.757, 1.576e-3
-1.758, 1.603e-3
-1.759, 1.628e-3
-1.760, 1.656e-3
-1.761, 1.680e-3
-1.762, 1.708e-3
-1.763, 1.736e-3
-1.764, 1.767e-3
-1.765, 1.791e-3
-1.766, 1.819e-3
-1.767, 1.850e-3
-1.768, 1.878e-3
-1.769, 1.909e-3
-1.770, 1.936e-3
-1.771, 1.964e-3
-1.772, 1.998e-3
-1.773, 2.029e-3
-1.774, 2.057e-3
-1.775, 2.091e-3
-1.776, 2.124e-3
-1.777, 2.155e-3
-1.778, 2.186e-3
-1.779, 2.220e-3
-1.780, 2.251e-3
-1.781, 2.288e-3
-1.782, 2.322e-3
-1.783, 2.356e-3
-1.784, 2.390e-3
-1.785, 2.423e-3
-1.786, 2.460e-3
-1.787, 2.497e-3
-1.788, 2.534e-3
-1.789, 2.571e-3
-1.790, 2.608e-3
-1.791, 2.645e-3
-1.792, 2.686e-3
-1.793, 2.726e-3
-1.794, 2.772e-3
-1.795, 2.809e-3
-1.796, 2.849e-3
-1.797, 2.889e-3
-1.798, 2.929e-3
-1.799, 2.975e-3
-1.800, 3.019e-3
-1.801, 3.068e-3
-1.802, 3.114e-3
-1.803, 3.157e-3
-1.804, 3.207e-3
-1.805, 3.256e-3
-1.806, 3.305e-3
-1.807, 3.358e-3
-1.808, 3.407e-3
-1.809, 3.447e-3
-1.810, 3.499e-3
-1.811, 3.546e-3
-1.812, 3.598e-3
-1.813, 3.647e-3
-1.814, 3.700e-3
-1.815, 3.758e-3
-1.816, 3.814e-3
-1.817, 3.876e-3
-1.818, 3.934e-3
-1.819, 3.990e-3
-1.820, 4.045e-3
-1.821, 4.104e-3
-1.822, 4.162e-3
-1.823, 4.224e-3
-1.824, 4.283e-3
-1.825, 4.338e-3
-1.826, 4.394e-3
-1.827, 4.455e-3
-1.828, 4.523e-3
-1.829, 4.582e-3
-1.830, 4.646e-3
-1.831, 4.708e-3
-1.832, 4.773e-3
-1.833, 4.834e-3
-1.834, 4.905e-3
-1.835, 4.970e-3
-1.836, 5.041e-3
-1.837, 5.112e-3
-1.838, 5.183e-3
-1.839, 5.257e-3
-1.840, 5.331e-3
-1.841, 5.405e-3
-1.842, 5.479e-3
-1.843, 5.556e-3
-1.844, 5.630e-3
-1.845, 5.716e-3
-1.846, 5.799e-3
-1.847, 5.886e-3
-1.848, 5.960e-3
-1.849, 6.040e-3
-1.850, 6.117e-3
-1.851, 6.191e-3
-1.852, 6.268e-3
-1.853, 6.348e-3
-1.854, 6.425e-3
-1.855, 6.506e-3
-1.856, 6.580e-3
-1.857, 6.660e-3
-1.858, 6.737e-3
-1.859, 6.814e-3
-1.860, 6.894e-3
-1.861, 6.980e-3
-1.862, 7.057e-3
-1.863, 7.134e-3
-1.864, 7.221e-3
-1.865, 7.298e-3
-1.866, 7.378e-3
-1.867, 7.464e-3
-1.868, 7.560e-3
-1.869, 7.643e-3
-1.870, 7.720e-3
-1.871, 7.804e-3
-1.872, 7.881e-3
-1.873, 7.964e-3
-1.874, 8.041e-3
-1.875, 8.124e-3
-1.876, 8.195e-3
-1.877, 8.275e-3
-1.878, 8.355e-3
-1.879, 8.432e-3
-1.880, 8.510e-3
-1.881, 8.577e-3
-1.882, 8.654e-3
-1.883, 8.738e-3
-1.884, 8.830e-3
-1.885, 8.932e-3
-1.886, 9.046e-3
-1.887, 9.154e-3
-1.888, 9.271e-3
-1.889, 9.379e-3
-1.890, 9.487e-3
-1.891, 9.604e-3
-1.892, 9.715e-3
-1.893, 9.829e-3
-1.894, 9.937e-3
-1.895, 1.004e-2
-1.896, 1.014e-2
-1.897, 1.022e-2
-1.898, 1.030e-2
-1.899, 1.039e-2
-1.900, 1.043e-2
-1.899, 1.037e-2
-1.898, 1.031e-2
-1.897, 1.025e-2
-1.896, 1.017e-2
-1.895, 1.009e-2
-1.894, 1.002e-2
-1.893, 9.937e-3
-1.892, 9.851e-3
-1.891, 9.771e-3
-1.890, 9.697e-3
-1.889, 9.607e-3
-1.888, 9.533e-3
-1.887, 9.450e-3
-1.886, 9.364e-3
-1.885, 9.290e-3
-1.884, 9.225e-3
-1.883, 9.148e-3
-1.882, 9.083e-3
-1.881, 9.015e-3
-1.880, 8.941e-3
-1.879, 8.867e-3
-1.878, 8.781e-3
-1.877, 8.698e-3
-1.876, 8.611e-3
-1.875, 8.534e-3
-1.874, 8.457e-3
-1.873, 8.358e-3
-1.872, 8.275e-3
-1.871, 8.183e-3
-1.870, 8.103e-3
-1.869, 8.029e-3
-1.868, 7.927e-3
-1.867, 7.841e-3
-1.866, 7.751e-3
-1.865, 7.668e-3
-1.864, 7.585e-3
-1.863, 7.498e-3
-1.862, 7.415e-3
-1.861, 7.341e-3
-1.860, 7.264e-3
-1.859, 7.190e-3
-1.858, 7.113e-3
-1.857, 7.045e-3
-1.856, 6.977e-3
-1.855, 6.906e-3
-1.854, 6.845e-3
-1.853, 6.786e-3
-1.852, 6.724e-3
-1.851, 6.675e-3
-1.850, 6.620e-3
-1.849, 6.567e-3
-1.848, 6.512e-3
-1.847, 6.453e-3
-1.846, 6.391e-3
-1.845, 6.339e-3
-1.844, 6.290e-3
-1.843, 6.237e-3
-1.842, 6.182e-3
-1.841, 6.136e-3
-1.840, 6.086e-3
-1.839, 6.031e-3
-1.838, 5.972e-3
-1.837, 5.929e-3
-1.836, 5.877e-3
-1.835, 5.821e-3
-1.834, 5.762e-3
-1.833, 5.710e-3
-1.832, 5.661e-3
-1.831, 5.608e-3
-1.830, 5.547e-3
-1.829, 5.491e-3
-1.828, 5.436e-3
-1.827, 5.377e-3
-1.826, 5.331e-3
-1.825, 5.275e-3
-1.824, 5.217e-3
-1.823, 5.161e-3
-1.822, 5.112e-3
-1.821, 5.063e-3
-1.820, 5.001e-3
-1.819, 4.949e-3
-1.818, 4.896e-3
-1.817, 4.844e-3
-1.816, 4.797e-3
-1.815, 4.742e-3
-1.814, 4.686e-3
-1.813, 4.643e-3
-1.812, 4.588e-3
-1.811, 4.532e-3
-1.810, 4.483e-3
-1.809, 4.437e-3
-1.808, 4.384e-3
-1.807, 4.338e-3
-1.806, 4.286e-3
-1.805, 4.236e-3
-1.804, 4.184e-3
-1.803, 4.141e-3
-1.802, 4.091e-3
-1.801, 4.042e-3
-1.800, 3.996e-3
-1.799, 3.943e-3
-1.798, 3.894e-3
-1.797, 3.848e-3
-1.796, 3.805e-3
-1.795, 3.758e-3
-1.794, 3.709e-3
-1.793, 3.660e-3
-1.792, 3.614e-3
-1.791, 3.567e-3
-1.790, 3.524e-3
-1.789, 3.478e-3
-1.788, 3.435e-3
-1.787, 3.395e-3
-1.786, 3.351e-3
-1.785, 3.311e-3
-1.784, 3.271e-3
-1.783, 3.237e-3
-1.782, 3.194e-3
-1.781, 3.160e-3
-1.780, 3.111e-3
-1.779, 3.074e-3
-1.778, 3.040e-3
-1.777, 3.000e-3
-1.776, 2.966e-3
-1.775, 2.929e-3
-1.774, 2.898e-3
-1.773, 2.855e-3
-1.772, 2.821e-3
-1.771, 2.784e-3
-1.770, 2.750e-3
-1.769, 2.713e-3
-1.768, 2.676e-3
-1.767, 2.642e-3
-1.766, 2.608e-3
-1.765, 2.578e-3
-1.764, 2.541e-3
-1.763, 2.507e-3
-1.762, 2.476e-3
-1.761, 2.448e-3
-1.760, 2.417e-3
-1.759, 2.383e-3
-1.758, 2.349e-3
-1.757, 2.322e-3
-1.756, 2.291e-3
-1.755, 2.260e-3
-1.754, 2.232e-3
-1.753, 2.201e-3
-1.752, 2.171e-3
-1.751, 2.143e-3
-1.750, 2.115e-3
-1.749, 2.081e-3
-1.748, 2.054e-3
-1.747, 2.026e-3
-1.746, 1.998e-3
-1.745, 1.970e-3
-1.744, 1.939e-3
-1.743, 1.912e-3
-1.742, 1.887e-3
-1.741, 1.859e-3
-1.740, 1.835e-3
-1.739, 1.804e-3
-1.738, 1.779e-3
-1.737, 1.751e-3
-1.736, 1.730e-3
-1.735, 1.705e-3
-1.734, 1.680e-3
-1.733, 1.656e-3
-1.732, 1.628e-3
-1.731, 1.606e-3
-1.730, 1.585e-3
-1.729, 1.566e-3
-1.728, 1.539e-3
-1.727, 1.514e-3
-1.726, 1.495e-3
-1.725, 1.474e-3
-1.724, 1.455e-3
-1.723, 1.428e-3
-1.722, 1.406e-3
-1.721, 1.388e-3
-1.720, 1.369e-3
-1.719, 1.347e-3
-1.718, 1.329e-3
-1.717, 1.307e-3
-1.716, 1.289e-3
-1.715, 1.270e-3
-1.714, 1.252e-3
-1.713, 1.233e-3
-1.712, 1.215e-3
-1.711, 1.199e-3
-1.710, 1.181e-3
-1.709, 1.166e-3
-1.708, 1.144e-3
-1.707, 1.129e-3
-1.706, 1.113e-3
-1.705, 1.095e-3
-1.704, 1.082e-3
-1.703, 1.064e-3
-1.702, 1.048e-3
-1.701, 1.033e-3
-1.700, 1.018e-3
-1.699, 1.005e-3
-1.698, 9.868e-4
-1.697, 9.744e-4
-1.696, 9.590e-4
-1.695, 9.467e-4
-1.694, 9.343e-4
-1.693, 9.189e-4
-1.692, 9.066e-4
-1.691, 8.943e-4
-1.690, 8.788e-4
-1.689, 8.665e-4
-1.688, 8.542e-4
-1.687, 8.418e-4
-1.686, 8.295e-4
-1.685, 8.141e-4
-1.684, 8.048e-4
-1.683, 7.925e-4
-1.682, 7.802e-4
-1.681, 7.679e-4
-1.680, 7.586e-4
-1.679, 7.463e-4
-1.678, 7.339e-4
-1.677, 7.216e-4
-1.676, 7.093e-4
-1.675, 7.000e-4
-1.674, 6.908e-4
-1.673, 6.815e-4
-1.672, 6.692e-4
-1.671, 6.599e-4
-1.670, 6.476e-4
-1.669, 6.384e-4
-1.668, 6.291e-4
-1.667, 6.199e-4
-1.666, 6.106e-4
-1.665, 6.014e-4
-1.664, 5.921e-4
-1.663, 5.829e-4
-1.662, 5.736e-4
-1.661, 5.644e-4
-1.660, 5.551e-4
-1.659, 5.459e-4
-1.658, 5.366e-4
-1.657, 5.274e-4
-1.656, 5.212e-4
-1.655, 5.120e-4
-1.654, 5.027e-4
-1.653, 4.965e-4
-1.652, 4.904e-4
-1.651, 4.811e-4
-1.650, 4.750e-4
-1.649, 4.657e-4
-1.648, 4.595e-4
-1.647, 4.503e-4
-1.646, 4.441e-4
-1.645, 4.349e-4
-1.644, 4.287e-4
-1.643, 4.225e-4
-1.642, 4.164e-4
-1.641, 4.102e-4
-1.640, 4.040e-4
-1.639, 3.979e-4
-1.638, 3.886e-4
-1.637, 3.855e-4
-1.636, 3.794e-4
-1.635, 3.732e-4
-1.634, 3.670e-4
-1.633, 3.609e-4
-1.632, 3.516e-4
-1.631, 3.485e-4
-1.630, 3.424e-4
-1.629, 3.362e-4
-1.628, 3.300e-4
-1.627, 3.270e-4
-1.626, 3.208e-4
-1.625, 3.146e-4
-1.624, 3.115e-4
-1.623, 3.054e-4
-1.622, 2.992e-4
-1.621, 2.961e-4
-1.620, 2.900e-4
-1.619, 2.869e-4
-1.618, 2.807e-4
-1.617, 2.746e-4
-1.616, 2.715e-4
-1.615, 2.653e-4
-1.614, 2.622e-4
-1.613, 2.561e-4
-1.612, 2.530e-4
-1.611, 2.499e-4
-1.610, 2.468e-4
-1.609, 2.406e-4
-1.608, 2.376e-4
-1.607, 2.345e-4
-1.606, 2.283e-4
-1.605, 2.252e-4
-1.604, 2.221e-4
-1.603, 2.160e-4
-1.602, 2.129e-4
-1.601, 2.098e-4
-1.600, 2.067e-4
-1.599, 2.036e-4
-1.598, 2.006e-4
-1.597, 1.944e-4
-1.596, 1.913e-4
-1.595, 1.882e-4
-1.594, 1.882e-4
-1.593, 1.821e-4
-1.592, 1.790e-4
-1.591, 1.759e-4
-1.590, 1.728e-4
-1.589, 1.697e-4
-1.588, 1.666e-4
-1.587, 1.636e-4
-1.586, 1.636e-4
-1.585, 1.574e-4
-1.584, 1.574e-4
-1.583, 1.543e-4
-1.582, 1.512e-4
-1.581, 1.481e-4
-1.580, 1.451e-4
-1.579, 1.420e-4
-1.578, 1.420e-4
-1.577, 1.358e-4
-1.576, 1.327e-4
-1.575, 1.327e-4
-1.574, 1.296e-4
-1.573, 1.266e-4
-1.572, 1.266e-4
-1.571, 1.235e-4
-1.570, 1.204e-4
-1.569, 1.204e-4
-1.568, 1.173e-4
-1.567, 1.142e-4
-1.566, 1.142e-4
-1.565, 1.111e-4
-1.564, 1.081e-4
-1.563, 1.081e-4
-1.562, 1.050e-4
-1.561, 1.019e-4
-1.560, 9.882e-5
-1.559, 9.882e-5
-1.558, 9.573e-5
-1.557, 9.265e-5
-1.556, 9.265e-5
-1.555, 8.957e-5
-1.554, 8.957e-5
-1.553, 8.648e-5
-1.552, 8.648e-5
-1.551, 8.340e-5
-1.550, 8.032e-5
-1.549, 8.032e-5
-1.548, 8.032e-5
-1.547, 7.723e-5
-1.546, 7.723e-5
-1.545, 7.415e-5
-1.544, 7.415e-5
-1.543, 7.107e-5
-1.542, 7.107e-5
-1.541, 7.107e-5
-1.540, 6.798e-5
-1.539, 6.798e-5
-1.538, 6.490e-5
-1.537, 6.490e-5
-1.536, 6.182e-5
-1.535, 6.182e-5
-1.534, 5.873e-5
-1.533, 5.873e-5
-1.532, 5.565e-5
-1.531, 5.565e-5
-1.530, 5.565e-5
-1.529, 5.257e-5
-1.528, 5.257e-5
-1.527, 5.257e-5
-1.526, 4.949e-5
-1.525, 4.949e-5
-1.524, 4.949e-5
-1.523, 4.640e-5
-1.522, 4.640e-5
-1.521, 4.640e-5
-1.520, 4.640e-5
-1.519, 4.332e-5
-1.518, 4.332e-5
-1.517, 4.332e-5
-1.516, 4.024e-5
-1.515, 4.024e-5
-1.514, 4.024e-5
-1.513, 3.715e-5
-1.512, 3.715e-5
-1.511, 3.715e-5
-1.510, 3.407e-5
-1.509, 3.407e-5
-1.508, 3.407e-5
-1.507, 3.099e-5
-1.506, 3.099e-5
-1.505, 3.099e-5
-1.504, 3.099e-5
-1.503, 3.099e-5
-1.502, 3.099e-5
-1.501, 2.790e-5
-1.500, 2.790e-5
-1.499, 2.790e-5
-1.498, 2.790e-5
-1.497, 2.482e-5
-1.496, 2.482e-5
-1.495, 2.482e-5
-1.494, 2.482e-5
-1.493, 2.174e-5
-1.492, 2.174e-5
-1.491, 2.174e-5
-1.490, 2.174e-5
-1.489, 2.174e-5
-1.488, 1.865e-5
-1.487, 1.865e-5
-1.486, 1.865e-5
-1.485, 1.865e-5
-1.484, 1.865e-5
-1.483, 1.557e-5
-1.482, 1.865e-5
-1.481, 1.557e-5
-1.480, 1.557e-5
-1.479, 1.557e-5
-1.478, 1.557e-5
-1.477, 1.249e-5
-1.476, 1.557e-5
-1.475, 1.557e-5
-1.474, 1.249e-5
-1.473, 1.249e-5
-1.472, 1.249e-5
-1.471, 9.405e-6
-1.470, 1.249e-5
-1.469, 9.405e-6
-1.468, 9.405e-6
-1.467, 9.405e-6
-1.466, 9.405e-6
-1.465, 9.405e-6
-1.464, 9.405e-6
-1.463, 6.322e-6
-1.462, 6.322e-6
-1.461, 6.322e-6
-1.460, 6.322e-6
-1.459, 6.322e-6
-1.458, 6.322e-6
-1.457, 6.322e-6
-1.456, 6.322e-6
-1.455, 6.322e-6
-1.454, 6.322e-6
-1.453, 3.239e-6
-1.452, 3.239e-6
-1.451, 3.239e-6
-1.450, 3.239e-6
-1.449, 3.239e-6
-1.448, 3.239e-6
-1.447, 3.239e-6
-1.446, 3.239e-6
-1.445, 1.559e-7
-1.444, 3.239e-6
-1.443, 1.559e-7
-1.442, 3.239e-6
-1.441, 3.239e-6
-1.440, 1.559e-7
-1.439, 1.559e-7
-1.438, 1.559e-7
-1.437, 1.559e-7
-1.436, 1.559e-7
-1.435, 1.559e-7
-1.434, 1.559e-7
-1.433, 1.559e-7
-1.432, 1.559e-7
-1.431, 1.559e-7
-1.430, 1.559e-7
-1.429, 1.559e-7
-1.428, -2.927e-6
-1.427, -2.927e-6
-1.426, -2.927e-6
-1.425, -2.927e-6
-1.424, -2.927e-6
-1.423, -2.927e-6
-1.422, -2.927e-6
-1.421, -2.927e-6
-1.420, -2.927e-6
-1.419, -2.927e-6
-1.418, -2.927e-6
-1.417, -2.927e-6
-1.416, -2.927e-6
-1.415, -2.927e-6
-1.414, -2.927e-6
-1.413, -2.927e-6
-1.412, -2.927e-6
-1.411, -6.010e-6
-1.410, -6.010e-6
-1.409, -6.010e-6
-1.408, -6.010e-6
-1.407, -6.010e-6
-1.406, -6.010e-6
-1.405, -6.010e-6
-1.404, -6.010e-6
-1.403, -6.010e-6
-1.402, -6.010e-6
-1.401, -6.010e-6
-1.400, -6.010e-6
-1.399, -6.010e-6
-1.398, -6.010e-6
-1.397, -6.010e-6
-1.396, -9.093e-6
-1.395, -9.093e-6
-1.394, -6.010e-6
-1.393, -6.010e-6
-1.392, -9.093e-6
-1.391, -6.010e-6
-1.390, -6.010e-6
-1.389, -6.010e-6
-1.388, -6.010e-6
-1.387, -9.093e-6
-1.386, -9.093e-6
-1.385, -9.093e-6
-1.384, -9.093e-6
-1.383, -9.093e-6
-1.382, -9.093e-6
-1.381, -9.093e-6
-1.380, -9.093e-6
-1.379, -9.093e-6
-1.378, -9.093e-6
-1.377, -9.093e-6
-1.376, -9.093e-6
-1.375, -9.093e-6
-1.374, -9.093e-6
-1.373, -9.093e-6
-1.372, -9.093e-6
-1.371, -9.093e-6
-1.370, -9.093e-6
-1.369, -9.093e-6
-1.368, -9.093e-6
-1.367, -9.093e-6
-1.366, -9.093e-6
-1.365, -9.093e-6
-1.364, -9.093e-6
-1.363, -9.093e-6
-1.362, -9.093e-6
-1.361, -9.093e-6
-1.360, -9.093e-6
-1.359, -1.218e-5
-1.358, -9.093e-6
-1.357, -9.093e-6
-1.356, -9.093e-6
-1.355, -1.218e-5
-1.354, -1.218e-5
-1.353, -1.218e-5
-1.352, -1.218e-5
-1.351, -1.218e-5
-1.350, -1.218e-5
-1.349, -9.093e-6
-1.348, -9.093e-6
-1.347, -1.218e-5
-1.346, -1.218e-5
-1.345, -1.218e-5
-1.344, -1.218e-5
-1.343, -1.218e-5
-1.342, -1.218e-5
-1.341, -1.218e-5
-1.340, -1.218e-5
-1.339, -1.218e-5
-1.338, -1.218e-5
-1.337, -1.218e-5
-1.336, -1.218e-5
-1.335, -1.218e-5
-1.334, -1.218e-5
-1.333, -1.218e-5
-1.332, -1.218e-5
-1.331, -1.218e-5
-1.330, -1.218e-5
-1.329, -1.218e-5
-1.328, -1.218e-5
-1.327, -1.218e-5
-1.326, -1.218e-5
-1.325, -1.218e-5
-1.324, -1.218e-5
-1.323, -1.218e-5
-1.322, -1.218e-5
-1.321, -1.218e-5
-1.320, -1.218e-5
-1.319, -1.218e-5
-1.318, -1.218e-5
-1.317, -1.218e-5
-1.316, -1.526e-5
-1.315, -1.526e-5
-1.314, -1.218e-5
-1.313, -1.218e-5
-1.312, -1.218e-5
-1.311, -1.218e-5
-1.310, -1.218e-5
-1.309, -1.526e-5
-1.308, -1.218e-5
-1.307, -1.218e-5
-1.306, -1.526e-5
-1.305, -1.218e-5
-1.304, -1.526e-5
-1.303, -1.526e-5
-1.302, -1.218e-5
-1.301, -1.526e-5
-1.300, -1.526e-5
-1.299, -1.526e-5
-1.298, -1.526e-5
-1.297, -1.526e-5
-1.296, -1.526e-5
-1.295, -1.526e-5
-1.294, -1.526e-5
-1.293, -1.526e-5
-1.292, -1.526e-5
-1.291, -1.526e-5
-1.290, -1.526e-5
-1.289, -1.526e-5
-1.288, -1.526e-5
-1.287, -1.526e-5
-1.286, -1.526e-5
-1.285, -1.526e-5
-1.284, -1.526e-5
-1.283, -1.526e-5
-1.282, -1.526e-5
-1.281, -1.526e-5
-1.280, -1.526e-5
-1.279, -1.526e-5
-1.278, -1.526e-5
-1.277, -1.526e-5
-1.276, -1.526e-5
-1.275, -1.526e-5
-1.274, -1.526e-5
-1.273, -1.526e-5
-1.272, -1.526e-5
-1.271, -1.526e-5
-1.270, -1.526e-5
-1.269, -1.526e-5
-1.268, -1.526e-5
-1.267, -1.526e-5
-1.266, -1.526e-5
-1.265, -1.526e-5
-1.264, -1.526e-5
-1.263, -1.526e-5
-1.262, -1.526e-5
-1.261, -1.526e-5
-1.260, -1.834e-5
-1.259, -1.526e-5
-1.258, -1.526e-5
-1.257, -1.834e-5
-1.256, -1.834e-5
-1.255, -1.526e-5
-1.254, -1.834e-5
-1.253, -1.526e-5
-1.252, -1.526e-5
-1.251, -1.834e-5
-1.250, -1.526e-5
-1.249, -1.526e-5
-1.248, -1.526e-5
-1.247, -1.526e-5
-1.246, -1.834e-5
-1.245, -1.526e-5
-1.244, -1.526e-5
-1.243, -1.526e-5
-1.242, -1.834e-5
-1.241, -1.834e-5
-1.240, -1.834e-5
-1.239, -1.834e-5
-1.238, -1.834e-5
-1.237, -1.834e-5
-1.236, -1.834e-5
-1.235, -1.834e-5
-1.234, -1.834e-5
-1.233, -1.834e-5
-1.232, -1.834e-5
-1.231, -1.834e-5
-1.230, -1.834e-5
-1.229, -1.834e-5
-1.228, -1.834e-5
-1.227, -1.834e-5
-1.226, -1.834e-5
-1.225, -1.834e-5
-1.224, -1.834e-5
-1.223, -1.834e-5
-1.222, -1.834e-5
-1.221, -1.834e-5
-1.220, -1.834e-5
-1.219, -1.834e-5
-1.218, -1.834e-5
-1.217, -1.834e-5
-1.216, -1.834e-5
-1.215, -1.834e-5
-1.214, -1.834e-5
-1.213, -1.834e-5
-1.212, -2.143e-5
-1.211, -1.834e-5
-1.210, -2.143e-5
-1.209, -1.834e-5
-1.208, -2.143e-5
-1.207, -2.143e-5
-1.206, -1.834e-5
-1.205, -2.143e-5
-1.204, -2.143e-5
-1.203, -2.143e-5
-1.202, -2.143e-5
-1.201, -2.143e-5
-1.200, -2.143e-5
-1.199, -2.143e-5
-1.198, -2.143e-5
-1.197, -2.143e-5
-1.196, -2.143e-5
-1.195, -2.143e-5
-1.194, -2.143e-5
-1.193, -2.143e-5
-1.192, -2.143e-5
-1.191, -2.143e-5
-1.190, -2.143e-5
-1.189, -2.143e-5
-1.188, -2.143e-5
-1.187, -2.451e-5
-1.186, -2.143e-5
-1.185, -2.143e-5
-1.184, -2.143e-5
-1.183, -2.143e-5
-1.182, -2.143e-5
-1.181, -2.143e-5
-1.180, -2.143e-5
-1.179, -2.143e-5
-1.178, -2.143e-5
-1.177, -2.143e-5
-1.176, -2.143e-5
-1.175, -2.143e-5
-1.174, -2.143e-5
-1.173, -2.143e-5
-1.172, -2.451e-5
-1.171, -2.451e-5
-1.170, -2.451e-5
-1.169, -2.451e-5
-1.168, -2.143e-5
-1.167, -2.451e-5
-1.166, -2.451e-5
-1.165, -2.451e-5
-1.164, -2.451e-5
-1.163, -2.451e-5
-1.162, -2.451e-5
-1.161, -2.451e-5
-1.160, -2.451e-5
-1.159, -2.451e-5
-1.158, -2.451e-5
-1.157, -2.451e-5
-1.156, -2.451e-5
-1.155, -2.451e-5
-1.154, -2.451e-5
-1.153, -2.451e-5
-1.152, -2.451e-5
-1.151, -2.451e-5
-1.150, -2.451e-5
-1.149, -2.451e-5
-1.148, -2.451e-5
-1.147, -2.451e-5
-1.146, -2.759e-5
-1.145, -2.451e-5
-1.144, -2.451e-5
-1.143, -2.759e-5
-1.142, -2.451e-5
-1.141, -2.759e-5
-1.140, -2.759e-5
-1.139, -2.451e-5
-1.138, -2.759e-5
-1.137, -2.759e-5
-1.136, -2.451e-5
-1.135, -2.759e-5
-1.134, -2.451e-5
-1.133, -2.759e-5
-1.132, -2.759e-5
-1.131, -2.759e-5
-1.130, -2.759e-5
-1.129, -2.759e-5
-1.128, -2.759e-5
-1.127, -2.759e-5
-1.126, -2.759e-5
-1.125, -2.759e-5
-1.124, -2.759e-5
-1.123, -2.759e-5
-1.122, -2.759e-5
-1.121, -2.759e-5
-1.120, -2.759e-5
-1.119, -2.759e-5
-1.118, -2.759e-5
-1.117, -2.759e-5
-1.116, -3.068e-5
-1.115, -2.759e-5
-1.114, -2.759e-5
-1.113, -2.759e-5
-1.112, -3.068e-5
-1.111, -3.068e-5
-1.110, -2.759e-5
-1.109, -3.068e-5
-1.108, -3.068e-5
-1.107, -3.068e-5
-1.106, -3.068e-5
-1.105, -3.068e-5
-1.104, -3.068e-5
-1.103, -3.068e-5
-1.102, -3.068e-5
-1.101, -3.068e-5
-1.100, -3.068e-5
-1.099, -3.068e-5
-1.098, -3.068e-5
-1.097, -3.068e-5
-1.096, -3.068e-5
-1.095, -3.068e-5
-1.094, -3.068e-5
-1.093, -3.068e-5
-1.092, -3.376e-5
-1.091, -3.068e-5
-1.090, -3.376e-5
-1.089, -3.068e-5
-1.088, -3.376e-5
-1.087, -3.376e-5
-1.086, -3.376e-5
-1.085, -3.376e-5
-1.084, -3.376e-5
-1.083, -3.376e-5
-1.082, -3.376e-5
-1.081, -3.376e-5
-1.080, -3.376e-5
-1.079, -3.376e-5
-1.078, -3.684e-5
-1.077, -3.684e-5
-1.076, -3.684e-5
-1.075, -3.684e-5
-1.074, -3.684e-5
-1.073, -3.684e-5
-1.072, -3.684e-5
-1.071, -3.684e-5
-1.070, -3.684e-5
-1.069, -3.684e-5
-1.068, -3.684e-5
-1.067, -3.684e-5
-1.066, -3.684e-5
-1.065, -3.992e-5
-1.064, -3.684e-5
-1.063, -3.992e-5
-1.062, -3.992e-5
-1.061, -3.992e-5
-1.060, -3.992e-5
-1.059, -3.992e-5
-1.058, -3.992e-5
-1.057, -3.992e-5
-1.056, -3.992e-5
-1.055, -4.301e-5
-1.054, -3.992e-5
-1.053, -4.301e-5
-1.052, -4.301e-5
-1.051, -4.301e-5
-1.050, -4.301e-5
-1.049, -4.301e-5
-1.048, -4.301e-5
-1.047, -4.301e-5
-1.046, -4.301e-5
-1.045, -4.609e-5
-1.044, -4.609e-5
-1.043, -4.609e-5
-1.042, -4.609e-5
-1.041, -4.609e-5
-1.040, -4.609e-5
-1.039, -4.609e-5
-1.038, -4.609e-5
-1.037, -4.609e-5
-1.036, -4.917e-5
-1.035, -4.917e-5
-1.034, -4.917e-5
-1.033, -4.917e-5
-1.032, -4.917e-5
-1.031, -4.917e-5
-1.030, -4.917e-5
-1.029, -4.917e-5
-1.028, -4.917e-5
-1.027, -5.226e-5
-1.026, -5.226e-5
-1.025, -5.226e-5
-1.024, -5.226e-5
-1.023, -5.226e-5
-1.022, -5.534e-5
-1.021, -5.534e-5
-1.020, -5.534e-5
-1.019, -5.534e-5
-1.018, -5.534e-5
-1.017, -5.534e-5
-1.016, -5.534e-5
-1.015, -5.534e-5
-1.014, -5.534e-5
-1.013, -5.842e-5
-1.012, -5.842e-5
-1.011, -5.842e-5
-1.010, -5.842e-5
-1.009, -5.842e-5
-1.008, -5.842e-5
-1.007, -6.151e-5
-1.006, -6.151e-5
-1.005, -6.151e-5
-1.004, -6.151e-5
-1.003, -6.151e-5
-1.002, -6.459e-5
-1.001, -6.459e-5
