Potential V vs RHE, Current mA cm-2
0.013299999999999867,-7.461187395488204
0.012299999999999978,-9.641257508580225
0.011299999999999866,-11.42945259160963
0.010299999999999976,-12.99978213445982
0.009299999999999864,-14.345172580631472
0.008299999999999974,-15.575971411514052
0.007299999999999862,-16.665299112410132
0.006299999999999972,-17.627302796318357
0.00529999999999986,-18.49027668923603
0.0042999999999999705,-19.3249563561564
0.0032999999999998586,-20.01816489309027
0.0022999999999999687,-20.626490752032236
0.0012999999999998568,-21.248963723972853
0.00029999999999996696,-21.772406904922917
-0.000700000000000145,-22.253408746877028
-0.0017000000000000348,-22.67782213683654
-0.0027000000000001467,-23.1163826397947
-0.0037000000000000366,-23.55494314275286
-0.0047000000000001485,-23.908620967719123
-0.005700000000000038,-24.290593018682678
-0.00670000000000015,-24.686712182644893
-0.00770000000000004,-25.04039000761115
-0.008700000000000152,-25.43650917157336
-0.009700000000000042,-25.73359854454502
-0.010700000000000154,-26.087276369511276
-0.011700000000000044,-26.38436574248293
-0.012700000000000156,-26.65316088945729
-0.013700000000000045,-26.86536758443705
-0.014700000000000157,-27.134162731411404
-0.015700000000000047,-27.34636942639116
-0.01670000000000016,-27.572723234369565
-0.01770000000000005,-27.78492992934932
-0.01870000000000016,-28.011283737327723
-0.01970000000000005,-28.265931771303435
-0.020700000000000163,-28.478138466283188
-0.021700000000000053,-28.746933613257543
-0.022700000000000164,-29.001581647233255
-0.023700000000000054,-29.22793545521166
-0.024700000000000166,-29.482583489187363
-0.025700000000000056,-29.708937297165768
-0.026700000000000168,-29.921143992145527
-0.027700000000000058,-30.10505646112798
-0.02870000000000017,-30.232380478115836
-0.02970000000000006,-30.402145834099635
-0.03070000000000017,-30.529469851087494
-0.03170000000000006,-30.670940981073993
-0.03270000000000017,-30.88314767605375
-0.03370000000000006,-31.052913032037555
-0.034700000000000175,-31.23682550102001
-0.035700000000000065,-31.49147353499572
-0.03670000000000018,-31.717827342974125
-0.03770000000000007,-31.930034037953877
-0.03870000000000018,-32.14224073293363
-0.03970000000000007,-32.368594540912035
-0.04070000000000018,-32.58080123589179
-0.04170000000000007,-32.807155043870196
-0.04270000000000018,-32.97692039985401
-0.04370000000000007,-33.14668575583781
-0.044700000000000184,-33.288156885824314
-0.045700000000000074,-33.41548090281216
-0.046700000000000186,-33.58524625879597
-0.047700000000000076,-33.670128936787876
-0.04870000000000019,-33.89648274476628
-0.04970000000000008,-34.06624810075008
-0.05070000000000019,-34.193572117737936
-0.05170000000000008,-34.462367264712285
-0.05270000000000019,-34.632132620696105
-0.05370000000000008,-34.85848642867451
-0.05470000000000019,-35.11313446265021
-0.05570000000000008,-35.282899818634014
-0.056700000000000195,-35.50925362661242
-0.057700000000000085,-35.679018982596226
-0.058700000000000196,-35.806342999584075
-0.059700000000000086,-35.99025546856653
-0.0607000000000002,-36.11757948555439
-0.06170000000000009,-36.28734484153819
-0.0627000000000002,-36.5136986495166
-0.06370000000000009,-36.64102266650445
-0.0647000000000002,-36.8532293614842
-0.06570000000000009,-37.037141830466666
-0.0667000000000002,-37.249348525446415
-0.0677000000000001,-37.47570233342482
-0.0687000000000002,-37.687909028404576
-0.0697000000000001,-37.90011572338433
-0.07070000000000021,-38.08402819236679
-0.0717000000000001,-38.253793548350586
-0.07270000000000021,-38.42355890433439
-0.0737000000000001,-38.5650300343209
-0.07470000000000021,-38.734795390304704
-0.0757000000000001,-38.90456074628851
-0.07670000000000021,-39.046031876275016
-0.0777000000000001,-39.21579723225882
-0.07870000000000021,-39.42800392723857
-0.0797000000000001,-39.56947505722508
-0.08070000000000022,-39.78168175220483
-0.0817000000000001,-39.99388844718459
-0.08270000000000022,-40.30512493315489
-0.08370000000000011,-40.51733162813464
-0.08470000000000022,-40.78612677510901
-0.08570000000000011,-40.95589213109281
-0.08670000000000022,-41.182245939071215
-0.08770000000000011,-41.352011295055014
-0.08870000000000022,-41.52177665103883
-0.08970000000000011,-41.70568912002128
-0.09070000000000022,-41.83301313700913
-0.09170000000000011,-42.00277849299294
-0.09270000000000023,-42.130102509980794
-0.09370000000000012,-42.31401497896325
-0.09470000000000023,-42.483780334947056
-0.09570000000000012,-42.71013414292546
-0.09670000000000023,-42.96478217690117
-0.09770000000000012,-43.17698887188092
-0.09870000000000023,-43.40334267985933
-0.09970000000000012,-43.657990713835034
-0.10070000000000023,-43.84190318281749
-0.10170000000000012,-44.054109877797245
-0.10270000000000024,-44.28046368577565
-0.10370000000000013,-44.4077877027635
-0.10470000000000024,-44.619994397743255
-0.10570000000000013,-44.74731841473111
-0.10670000000000024,-44.93123088371356
-0.10770000000000013,-45.10099623969737
-0.10870000000000024,-45.32735004767578
-0.10970000000000013,-45.497115403659585
-0.11070000000000024,-45.70932209863933
-0.11170000000000013,-45.93567590661774
-0.11270000000000002,-46.19032394059345
-0.11370000000000013,-46.41667774857186
-0.11470000000000002,-46.67132578254756
-0.11570000000000014,-46.88353247752732
-0.11670000000000003,-47.067444946509774
-0.11770000000000014,-47.23721030249357
-0.11870000000000003,-47.40697565847737
-0.11970000000000014,-47.590888127459834
-0.12070000000000003,-47.76065348344364
-0.12170000000000014,-47.8879775004315
-0.12270000000000003,-48.114331308409895
-0.12370000000000014,-48.32653800338966
-0.12470000000000003,-48.55289181136806
-0.12570000000000014,-48.76509850634781
-0.12670000000000003,-49.03389365332217
-0.12770000000000015,-49.28854168729788
-0.12870000000000004,-49.50074838227763
-0.12970000000000015,-49.81198486824794
-0.13070000000000004,-50.024191563227696
-0.13170000000000015,-50.2505453712061
-0.13270000000000004,-50.42031072718991
-0.13370000000000015,-50.64666453516831
-0.13470000000000004,-50.85887123014807
-0.13570000000000015,-50.98619524713592
-0.13670000000000004,-51.17010771611838
-0.13770000000000016,-51.33987307210218
-0.13870000000000005,-51.509638428085985
-0.13970000000000016,-51.69355089706845
-0.14070000000000005,-51.948198931044146
-0.14170000000000016,-52.2169940780185
-0.14270000000000005,-52.42920077299826
-0.14370000000000016,-52.69799591997262
-0.14470000000000005,-52.95264395394832
-0.14570000000000016,-53.22143910092268
-0.14670000000000005,-53.433645795902436
-0.14770000000000016,-53.64585249088219
-0.14870000000000005,-53.82976495986464
-0.14970000000000017,-53.999530315848446
-0.15070000000000006,-54.2117370108282
-0.15170000000000017,-54.39564947981066
-0.15270000000000006,-54.56541483579447
-0.15370000000000017,-54.834209982768826
-0.15470000000000006,-55.003975338752625
-0.15570000000000017,-55.25862337272834
-0.15670000000000006,-55.527418519702685
-0.15770000000000017,-55.7820665536784
-0.15870000000000006,-56.05086170065276
-0.15970000000000018,-56.30550973462846
-0.16070000000000007,-56.57430488160282
-0.16170000000000018,-56.82895291557852
-0.16270000000000007,-57.05530672355693
-0.16370000000000018,-57.26751341853669
-0.16470000000000007,-57.493867226515086
-0.16570000000000018,-57.66363258249889
-0.16670000000000007,-57.87583927747865
-0.16770000000000018,-58.10219308545706
-0.16870000000000007,-58.35684111943277
-0.16970000000000018,-58.583194927411164
-0.17070000000000007,-58.79540162239092
-0.17170000000000019,-59.10663810836124
-0.17270000000000008,-59.36128614233694
-0.1737000000000002,-59.6300812893113
-0.17470000000000008,-59.92717066228296
-0.1757000000000002,-60.15352447026136
-0.17670000000000008,-60.40817250423707
-0.1777000000000002,-60.63452631221547
-0.17870000000000008,-60.84673300719523
-0.1797000000000002,-61.07308681517363
-0.18070000000000008,-61.28529351015339
-0.1817000000000002,-61.455058866137186
-0.18270000000000008,-61.72385401311155
-0.1837000000000002,-61.936060708091304
-0.1847000000000001,-62.20485585506566
-0.1857000000000002,-62.501945228037314
-0.1867000000000001,-62.81318171400764
-0.1877000000000002,-63.11027108697928
-0.1887000000000001,-63.37906623395363
-0.1897000000000002,-63.732744058919906
-0.1907000000000001,-63.98739209289561
-0.1917000000000001,-64.25618723986996
-0.19269999999999998,-64.51083527384567
-0.1937000000000001,-64.72304196882543
-0.19469999999999998,-64.94939577680383
-0.1957000000000001,-65.16160247178358
-0.19669999999999999,-65.43039761875795
-0.1977000000000001,-65.64260431373769
-0.1987,-65.95384079970802
-0.1997000000000001,-66.16604749468777
-0.2007,-66.47728398065809
-0.2017000000000001,-66.77437335362974
-0.2027,-67.08560983960004
-0.2037000000000001,-67.43928766456631
-0.2047,-67.73637703753796
-0.2057000000000001,-68.0051721845123
-0.2067,-68.30226155748396
-0.2077000000000001,-68.57105670445833
-0.2087,-68.82570473843404
-0.2097000000000001,-69.0944998854084
-0.2107,-69.30670658038814
-0.2117000000000001,-69.57550172736251
-0.2127,-69.8301497613382
-0.2137000000000001,-70.18382758630447
-0.2147,-70.43847562028017
-0.2157000000000001,-70.79215344524643
-0.2167,-71.1458312702127
-0.21770000000000012,-71.44292064318435
-0.2187,-71.75415712915466
-0.21970000000000012,-72.15027629311687
-0.2207,-72.44736566608852
-0.22170000000000012,-72.71616081306288
-0.2227,-72.97080884703858
-0.22370000000000012,-73.23960399401295
-0.2247,-73.53669336698461
-0.22570000000000012,-73.80548851395896
-0.2267,-74.0176952089387
-0.22770000000000012,-74.32893169490903
-0.22870000000000001,-74.62602106788069
-0.22970000000000013,-74.93725755385098
-0.23070000000000002,-75.2484940398213
-0.23170000000000013,-75.54558341279296
-0.23270000000000002,-75.98414391575112
-0.23370000000000013,-76.29538040172143
-0.23470000000000002,-76.63491111368903
-0.23570000000000013,-76.94614759965934
-0.23670000000000002,-77.243236972631
-0.2376999999999999,-77.59691479759726
-0.23870000000000002,-77.86570994457162
-0.2396999999999999,-78.16279931754329
-0.24070000000000003,-78.43159446451764
-0.24169999999999991,-78.72868383748929
-0.24270000000000003,-78.99747898446365
-0.24369999999999992,-79.2945683574353
-0.24470000000000003,-79.60580484340561
-0.24569999999999992,-79.90289421637728
-0.24670000000000003,-80.21413070234757
-0.24769999999999992,-80.61024986630979
-0.24870000000000003,-80.90733923928146
-0.24969999999999992,-81.26101706424771
-0.25070000000000003,-81.61469488921396
-0.2516999999999999,-81.91178426218562
-0.25270000000000004,-82.22302074815593
-0.2536999999999999,-82.52011012112759
-0.25470000000000004,-82.8313466070979
-0.2556999999999999,-83.08599464107361
-0.25670000000000004,-83.35478978804795
-0.25769999999999993,-83.66602627401826
-0.25870000000000004,-83.96311564698992
-0.25969999999999993,-84.27435213296022
-0.26070000000000004,-84.61388284492786
-0.26169999999999993,-84.96756066989411
-0.26270000000000004,-85.36367983385631
-0.26369999999999993,-85.66076920682796
-0.26470000000000005,-86.05688837079018
-0.26569999999999994,-86.41056619575643
-0.26670000000000005,-86.7076555687281
-0.26769999999999994,-87.06133339369435
-0.26870000000000005,-87.27354008867411
-0.26969999999999994,-87.58477657464444
-0.27070000000000005,-87.85357172161878
-0.27169999999999994,-88.15066109459043
-0.27270000000000005,-88.46189758056073
-0.27369999999999994,-88.7589869535324
-0.27470000000000006,-89.07022343950271
-0.27569999999999995,-89.42390126446898
-0.27670000000000006,-89.76343197643658
-0.27769999999999995,-90.11710980140283
-0.27870000000000006,-90.51322896536506
-0.27969999999999995,-90.85275967733266
-0.28070000000000006,-91.20643750229891
-0.28169999999999995,-91.51767398826922
-0.28270000000000006,-91.81476336124088
-0.28369999999999995,-92.12599984721119
-0.28470000000000006,-92.3806478811869
-0.28569999999999995,-92.64944302816124
-0.28670000000000007,-92.90409106213696
-0.28769999999999996,-93.21532754810727
-0.28870000000000007,-93.51241692107894
-0.28969999999999996,-93.78121206805329
-0.29070000000000007,-94.13488989301955
-0.29169999999999996,-94.47442060498715
-0.29270000000000007,-94.78565709095746
-0.29369999999999996,-95.12518780292505
-0.2947000000000001,-95.47886562789132
-0.29569999999999996,-95.83254345285758
-0.2967000000000001,-96.12963282582925
-0.29769999999999996,-96.44086931179956
-0.2987000000000001,-96.73795868477121
-0.29969999999999997,-97.04919517074151
-0.3007000000000001,-97.31799031771587
-0.30169999999999997,-97.57263835169158
-0.3027000000000001,-97.92631617665783
-0.30369999999999997,-98.2234055496295
-0.3047000000000001,-98.49220069660386
-0.30569999999999997,-98.83173140857146
-0.3067000000000001,-99.14296789454177
-0.3077,-99.49664571950804
-0.3087000000000001,-99.7937350924797
-0.3097,-100.14741291744595
-0.3107000000000001,-100.5010907424122
-0.3117,-100.75573877638791
-0.3127000000000001,-101.10941660135417
-0.3137,-101.40650597432582
-0.3147000000000001,-101.6753011213002
-0.3157,-101.97239049427183
-0.3167000000000001,-102.24118564124619
-0.3177,-102.59486346621246
-0.3187000000000001,-102.89195283918411
-0.3197,-103.20318932515443
-0.3207000000000001,-103.54272003712204
-0.3217,-103.89639786208829
-0.3227000000000001,-104.25007568705455
-0.3237,-104.58960639902216
-0.3247000000000001,-104.98572556298437
-0.3257,-105.33940338795064
-0.3267000000000001,-105.73552255191284
-0.3277,-106.0326119248845
-0.3287000000000001,-106.38628974985076
-0.3297,-106.68337912282242
-0.3307000000000001,-107.03705694778867
-0.3317,-107.30585209476303
-0.3327000000000001,-107.64538280673065
-0.3337,-107.99906063169689
-0.3347000000000001,-108.35273845666316
-0.3357,-108.69226916863077
-0.3367000000000001,-109.13082967158894
-0.3377,-109.52694883555114
-0.3387000000000001,-109.92306799951335
-0.3397,-110.40406984146746
-0.3407000000000001,-110.78604189243102
-0.3417,-111.22460239538917
-0.3427000000000001,-111.66316289834735
-0.3437,-112.10172340130552
-0.3447000000000001,-112.54028390426367
-0.3457,-112.87981461623129
-0.3467000000000001,-113.31837511918944
-0.3477,-113.71449428315165
-0.3487000000000001,-114.19549612510575
-0.3497,-114.63405662806393
-0.3507000000000001,-115.10091135701937
-0.3517,-115.62435453796945
-0.3527000000000001,-116.06291504092759
-0.3537,-116.58635822187767
-0.3547000000000001,-117.10980140282774
-0.3557,-117.59080324478184
-0.35670000000000013,-118.11424642573192
-0.3577,-118.59524826768603
-0.35870000000000013,-119.1186914486361
-0.3597,-119.5996932905902
-0.36070000000000013,-120.12313647154028
-0.3617,-120.60413831349437
-0.3626999999999999,-121.12758149444444
-0.3637,-121.69346601439047
-0.3646999999999999,-122.21690919534053
-0.3657,-122.78279371528653
-0.3666999999999999,-123.43356091322445
-0.3677,-124.09847522416102
-0.3686999999999999,-124.70680108310299
-0.36970000000000003,-125.35756828104091
-0.3706999999999999,-125.96589413998288
-0.37170000000000003,-126.61666133792076
-0.3726999999999999,-127.19669297086547
-0.37370000000000003,-127.80501882980741
-0.3746999999999999,-128.41334468874936
-0.37570000000000003,-128.9792292086954
-0.3766999999999999,-129.5451137286414
-0.37770000000000004,-130.19588092657932
-0.3786999999999999,-130.84664812451723
-0.37970000000000004,-131.5115624354538
-0.3806999999999999,-132.20477097238768
-0.38170000000000004,-132.99700930031207
-0.38269999999999993,-133.69021783724597
-0.38370000000000004,-134.42586771317576
-0.38469999999999993,-135.2181060411002
-0.38570000000000004,-135.95375591703004
-0.38669999999999993,-134.82198687713802
-0.38570000000000004,-130.98811925450374
-0.38469999999999993,-127.80501882980741
-0.38370000000000004,-125.00389045607463
-0.38269999999999993,-122.48570434231489
-0.38170000000000004,-120.08069513254432
-0.3806999999999999,-117.90203973075215
-0.37970000000000004,-115.85070834594785
-0.3786999999999999,-113.88425963913545
-0.37770000000000004,-112.10172340130552
-0.3766999999999999,-110.34748138947285
-0.37570000000000003,-108.60738649063886
-0.3746999999999999,-106.78240891381296
-0.37370000000000003,-105.11304957997223
-0.3726999999999999,-103.50027869812607
-0.37170000000000003,-102.02897894626645
-0.3706999999999999,-100.5010907424122
-0.36970000000000003,-98.93076119956201
-0.3686999999999999,-97.31799031771587
-0.3677,-95.79010211386164
-0.3666999999999999,-94.30465524900335
-0.3657,-92.86164972314101
-0.3646999999999999,-91.46108553627462
-0.3637,-90.03222712341093
-0.3626999999999999,-88.6741042755405
-0.3617,-87.41501121866061
-0.36070000000000013,-86.14177104878208
-0.3597,-84.92511933089816
-0.35870000000000013,-83.70846761301424
-0.3577,-82.39278610413973
-0.35670000000000013,-81.1761343862558
-0.3557,-79.90289421637728
-0.3547000000000001,-78.64380115949739
-0.3537,-77.38470810261751
-0.3527000000000001,-76.06902659374302
-0.3517,-74.8523748758591
-0.3507000000000001,-73.62157604497652
-0.3497,-72.53224834408043
-0.3487000000000001,-71.31559662619651
-0.3477,-70.22626892530042
-0.3467000000000001,-69.13694122440434
-0.3457,-68.04761352350828
-0.3447000000000001,-66.9582858226122
-0.3437,-65.95384079970802
-0.3427000000000001,-64.86451309881193
-0.3417,-63.81762673691181
-0.3407000000000001,-62.77074037501168
-0.3397,-61.7662953521075
-0.3387000000000001,-60.80429166819927
-0.3377,-59.7998466452951
-0.3367000000000001,-58.79540162239092
-0.3357,-57.8333979384827
-0.3347000000000001,-56.88554136757313
-0.3337,-55.96597902266086
-0.3327000000000001,-55.046416677748574
-0.3317,-54.16929567183226
-0.3307000000000001,-53.30632177891458
-0.3297,-52.471642111994214
-0.3287000000000001,-51.65110955807249
-0.3277,-50.81642989115212
-0.3267000000000001,-49.98175022423175
-0.3257,-49.16121767031002
-0.3247000000000001,-48.32653800338966
-0.3237,-47.506005449467935
-0.3227000000000001,-46.628884443551605
-0.3217,-45.85079322862584
-0.3207000000000001,-44.97367222270952
-0.3197,-44.223875233781044
-0.3187000000000001,-43.40334267985933
-0.3177,-42.71013414292546
-0.3167000000000001,-41.96033715399699
-0.3157,-41.267128617063115
-0.3147000000000001,-40.51733162813464
-0.3137,-39.82412309120078
-0.3127000000000001,-39.173355893262865
-0.3117,-38.46600024333035
-0.3107000000000001,-37.687909028404576
-0.3097,-36.99470049147071
-0.3087000000000001,-36.244903502542236
-0.3077,-35.55169496560837
-0.3067000000000001,-34.75945663768395
-0.30569999999999997,-34.06624810075008
-0.3047000000000001,-33.330598224820264
-0.30369999999999997,-32.62324257488775
-0.3027000000000001,-31.972475376949827
-0.30169999999999997,-31.36414951800786
-0.3007000000000001,-30.7558236590659
-0.29969999999999997,-30.10505646112798
-0.2987000000000001,-29.581613280177915
-0.29769999999999996,-28.91669896924135
-0.2967000000000001,-28.308373110299385
-0.29569999999999996,-27.742488590353368
-0.2947000000000001,-27.049280053419505
-0.29369999999999996,-26.440954194477534
-0.29270000000000007,-25.77603988354097
-0.29169999999999996,-25.167714024599
-0.29070000000000007,-24.559388165657033
-0.28969999999999996,-23.951062306715073
-0.28870000000000007,-23.385177786769056
-0.28769999999999996,-22.861734605818995
-0.28670000000000007,-22.33829142486893
-0.28569999999999995,-21.814848243918867
-0.28470000000000006,-21.333846401964752
-0.28369999999999995,-20.85284456001064
-0.28270000000000006,-20.371842718056527
-0.28169999999999995,-19.848399537106463
-0.28070000000000006,-19.367397695152352
-0.27969999999999995,-18.88639585319824
-0.27870000000000006,-18.362952672248177
-0.27769999999999995,-17.797068152302163
-0.27670000000000006,-17.316066310348052
-0.27569999999999995,-16.792623129397985
-0.27470000000000006,-16.354062626439823
-0.27369999999999994,-15.87306078448571
-0.27270000000000005,-15.448647394526201
-0.27169999999999994,-15.01008689156804
-0.27070000000000005,-14.61396772760583
-0.26969999999999994,-14.175407224647667
-0.26870000000000005,-13.784946905884919
-0.26769999999999994,-13.349215825526485
-0.26670000000000005,-12.913484745168056
-0.26569999999999994,-12.476338953509758
