Aug. 21, 2024   00:04:57
Cyclic Voltammetry
File: c:/users/guazh/data/20240813_batch_94_500/2024-08-15-exp145\exp145-2024-08-20t23_47_24-h2koh\exp145_cv_sr_50mvs_efin_-1800mv.bin
Data Source:  Experiment
Instrument Model:  CHI760E
Header: CV ran at 50 mVs
Note: 

Init E (V) = -1
High E (V) = -1
Low E (V) = -1.8
Final E (V) = -1
Init P/N = N
Scan Rate (V/s) = 0.05
Segment = 3
Sample Interval (V) = 0.001
Quiet Time (sec) = 2
Sensitivity (A/V) = 0.01
Comp R (ohm) = 1.7

Results:

Channel 1:
Segment 1:

Segment 2:

Segment 3:

Potential/V, Current/A

-1.000, 1.981e-6
-1.001, 2.050e-6
-1.002, 2.277e-6
-1.003, 2.149e-6
-1.004, 2.238e-6
-1.005, 2.218e-6
-1.006, 2.198e-6
-1.007, 2.317e-6
-1.008, 2.366e-6
-1.009, 2.317e-6
-1.010, 2.366e-6
-1.011, 2.395e-6
-1.012, 2.395e-6
-1.013, 2.445e-6
-1.014, 2.395e-6
-1.015, 2.395e-6
-1.016, 2.405e-6
-1.017, 2.465e-6
-1.018, 2.524e-6
-1.019, 2.514e-6
-1.020, 2.405e-6
-1.021, 2.425e-6
-1.022, 2.484e-6
-1.023, 2.415e-6
-1.024, 2.504e-6
-1.025, 2.583e-6
-1.026, 2.543e-6
-1.027, 2.613e-6
-1.028, 2.603e-6
-1.029, 2.583e-6
-1.030, 2.691e-6
-1.031, 2.593e-6
-1.032, 2.613e-6
-1.033, 2.622e-6
-1.034, 2.613e-6
-1.035, 2.622e-6
-1.036, 2.573e-6
-1.037, 2.731e-6
-1.038, 2.662e-6
-1.039, 2.682e-6
-1.040, 2.711e-6
-1.041, 2.662e-6
-1.042, 2.662e-6
-1.043, 2.711e-6
-1.044, 2.751e-6
-1.045, 2.731e-6
-1.046, 2.701e-6
-1.047, 2.790e-6
-1.048, 2.741e-6
-1.049, 2.770e-6
-1.050, 2.790e-6
-1.051, 2.869e-6
-1.052, 2.889e-6
-1.053, 2.938e-6
-1.054, 2.948e-6
-1.055, 2.820e-6
-1.056, 2.908e-6
-1.057, 2.889e-6
-1.058, 2.800e-6
-1.059, 3.047e-6
-1.060, 2.889e-6
-1.061, 2.800e-6
-1.062, 2.948e-6
-1.063, 2.859e-6
-1.064, 2.948e-6
-1.065, 3.007e-6
-1.066, 2.918e-6
-1.067, 2.968e-6
-1.068, 2.918e-6
-1.069, 3.017e-6
-1.070, 2.978e-6
-1.071, 2.987e-6
-1.072, 3.007e-6
-1.073, 2.918e-6
-1.074, 3.007e-6
-1.075, 3.076e-6
-1.076, 3.106e-6
-1.077, 3.056e-6
-1.078, 3.116e-6
-1.079, 3.037e-6
-1.080, 3.106e-6
-1.081, 3.066e-6
-1.082, 3.185e-6
-1.083, 3.135e-6
-1.084, 3.135e-6
-1.085, 3.135e-6
-1.086, 3.155e-6
-1.087, 3.155e-6
-1.088, 3.195e-6
-1.089, 3.165e-6
-1.090, 3.145e-6
-1.091, 3.126e-6
-1.092, 3.274e-6
-1.093, 3.185e-6
-1.094, 3.126e-6
-1.095, 3.185e-6
-1.096, 3.214e-6
-1.097, 3.175e-6
-1.098, 3.234e-6
-1.099, 3.234e-6
-1.100, 3.185e-6
-1.101, 3.165e-6
-1.102, 3.352e-6
-1.103, 3.264e-6
-1.104, 3.283e-6
-1.105, 3.392e-6
-1.106, 3.244e-6
-1.107, 3.362e-6
-1.108, 3.293e-6
-1.109, 3.313e-6
-1.110, 3.343e-6
-1.111, 3.352e-6
-1.112, 3.412e-6
-1.113, 3.372e-6
-1.114, 3.412e-6
-1.115, 3.372e-6
-1.116, 3.323e-6
-1.117, 3.491e-6
-1.118, 3.372e-6
-1.119, 3.392e-6
-1.120, 3.382e-6
-1.121, 3.303e-6
-1.122, 3.500e-6
-1.123, 3.441e-6
-1.124, 3.422e-6
-1.125, 3.481e-6
-1.126, 3.471e-6
-1.127, 3.520e-6
-1.128, 3.372e-6
-1.129, 3.422e-6
-1.130, 3.500e-6
-1.131, 3.422e-6
-1.132, 3.481e-6
-1.133, 3.481e-6
-1.134, 3.589e-6
-1.135, 3.540e-6
-1.136, 3.461e-6
-1.137, 3.471e-6
-1.138, 3.471e-6
-1.139, 3.560e-6
-1.140, 3.648e-6
-1.141, 3.540e-6
-1.142, 3.550e-6
-1.143, 3.491e-6
-1.144, 3.589e-6
-1.145, 3.520e-6
-1.146, 3.619e-6
-1.147, 3.579e-6
-1.148, 3.579e-6
-1.149, 3.668e-6
-1.150, 3.540e-6
-1.151, 3.500e-6
-1.152, 3.708e-6
-1.153, 3.688e-6
-1.154, 3.737e-6
-1.155, 3.648e-6
-1.156, 3.639e-6
-1.157, 3.609e-6
-1.158, 3.727e-6
-1.159, 3.737e-6
-1.160, 3.717e-6
-1.161, 3.708e-6
-1.162, 3.796e-6
-1.163, 3.658e-6
-1.164, 3.658e-6
-1.165, 3.767e-6
-1.166, 3.717e-6
-1.167, 3.757e-6
-1.168, 3.688e-6
-1.169, 3.698e-6
-1.170, 3.796e-6
-1.171, 3.639e-6
-1.172, 3.806e-6
-1.173, 3.836e-6
-1.174, 3.865e-6
-1.175, 3.796e-6
-1.176, 3.727e-6
-1.177, 3.787e-6
-1.178, 3.895e-6
-1.179, 3.925e-6
-1.180, 3.925e-6
-1.181, 3.856e-6
-1.182, 4.013e-6
-1.183, 3.915e-6
-1.184, 4.053e-6
-1.185, 3.865e-6
-1.186, 3.935e-6
-1.187, 4.023e-6
-1.188, 4.013e-6
-1.189, 3.944e-6
-1.190, 3.994e-6
-1.191, 4.161e-6
-1.192, 4.102e-6
-1.193, 4.033e-6
-1.194, 4.083e-6
-1.195, 4.043e-6
-1.196, 3.935e-6
-1.197, 4.142e-6
-1.198, 4.053e-6
-1.199, 4.260e-6
-1.200, 4.142e-6
-1.201, 4.152e-6
-1.202, 4.181e-6
-1.203, 4.171e-6
-1.204, 4.309e-6
-1.205, 4.270e-6
-1.206, 4.280e-6
-1.207, 4.201e-6
-1.208, 4.112e-6
-1.209, 4.171e-6
-1.210, 4.270e-6
-1.211, 4.270e-6
-1.212, 4.250e-6
-1.213, 4.300e-6
-1.214, 4.280e-6
-1.215, 4.240e-6
-1.216, 4.280e-6
-1.217, 4.339e-6
-1.218, 4.309e-6
-1.219, 4.457e-6
-1.220, 4.319e-6
-1.221, 4.379e-6
-1.222, 4.369e-6
-1.223, 4.408e-6
-1.224, 4.369e-6
-1.225, 4.329e-6
-1.226, 4.487e-6
-1.227, 4.408e-6
-1.228, 4.408e-6
-1.229, 4.566e-6
-1.230, 4.546e-6
-1.231, 4.625e-6
-1.232, 4.566e-6
-1.233, 4.507e-6
-1.234, 4.546e-6
-1.235, 4.586e-6
-1.236, 4.645e-6
-1.237, 4.694e-6
-1.238, 4.615e-6
-1.239, 4.674e-6
-1.240, 4.605e-6
-1.241, 4.665e-6
-1.242, 4.734e-6
-1.243, 4.596e-6
-1.244, 4.822e-6
-1.245, 4.793e-6
-1.246, 4.862e-6
-1.247, 4.744e-6
-1.248, 4.822e-6
-1.249, 4.852e-6
-1.250, 4.842e-6
-1.251, 4.901e-6
-1.252, 4.970e-6
-1.253, 4.862e-6
-1.254, 4.970e-6
-1.255, 5.010e-6
-1.256, 4.990e-6
-1.257, 4.961e-6
-1.258, 4.970e-6
-1.259, 5.020e-6
-1.260, 5.040e-6
-1.261, 5.010e-6
-1.262, 5.040e-6
-1.263, 5.059e-6
-1.264, 5.079e-6
-1.265, 5.020e-6
-1.266, 5.178e-6
-1.267, 5.276e-6
-1.268, 5.237e-6
-1.269, 5.286e-6
-1.270, 5.217e-6
-1.271, 5.414e-6
-1.272, 5.464e-6
-1.273, 5.454e-6
-1.274, 5.424e-6
-1.275, 5.474e-6
-1.276, 5.503e-6
-1.277, 5.483e-6
-1.278, 5.483e-6
-1.279, 5.612e-6
-1.280, 5.809e-6
-1.281, 5.908e-6
-1.282, 5.770e-6
-1.283, 5.701e-6
-1.284, 5.799e-6
-1.285, 5.750e-6
-1.286, 5.868e-6
-1.287, 5.839e-6
-1.288, 5.858e-6
-1.289, 5.977e-6
-1.290, 5.957e-6
-1.291, 6.026e-6
-1.292, 5.987e-6
-1.293, 6.085e-6
-1.294, 6.036e-6
-1.295, 6.046e-6
-1.296, 6.105e-6
-1.297, 6.223e-6
-1.298, 6.115e-6
-1.299, 6.263e-6
-1.300, 6.204e-6
-1.301, 6.204e-6
-1.302, 6.263e-6
-1.303, 6.283e-6
-1.304, 6.352e-6
-1.305, 6.342e-6
-1.306, 6.421e-6
-1.307, 6.431e-6
-1.308, 6.470e-6
-1.309, 6.608e-6
-1.310, 6.539e-6
-1.311, 6.549e-6
-1.312, 6.569e-6
-1.313, 6.569e-6
-1.314, 6.697e-6
-1.315, 6.658e-6
-1.316, 6.727e-6
-1.317, 6.756e-6
-1.318, 6.786e-6
-1.319, 6.944e-6
-1.320, 6.855e-6
-1.321, 6.746e-6
-1.322, 6.727e-6
-1.323, 6.914e-6
-1.324, 6.904e-6
-1.325, 6.875e-6
-1.326, 6.954e-6
-1.327, 6.993e-6
-1.328, 6.963e-6
-1.329, 7.417e-6
-1.330, 7.161e-6
-1.331, 7.072e-6
-1.332, 7.210e-6
-1.333, 7.220e-6
-1.334, 7.299e-6
-1.335, 7.250e-6
-1.336, 7.230e-6
-1.337, 7.279e-6
-1.338, 7.279e-6
-1.339, 7.407e-6
-1.340, 7.417e-6
-1.341, 7.565e-6
-1.342, 7.516e-6
-1.343, 7.378e-6
-1.344, 7.615e-6
-1.345, 7.772e-6
-1.346, 7.713e-6
-1.347, 7.743e-6
-1.348, 7.812e-6
-1.349, 8.009e-6
-1.350, 8.522e-6
-1.351, 8.384e-6
-1.352, 8.167e-6
-1.353, 8.098e-6
-1.354, 8.098e-6
-1.355, 8.049e-6
-1.356, 8.029e-6
-1.357, 8.246e-6
-1.358, 8.384e-6
-1.359, 8.276e-6
-1.360, 8.325e-6
-1.361, 8.305e-6
-1.362, 8.463e-6
-1.363, 8.354e-6
-1.364, 8.512e-6
-1.365, 8.473e-6
-1.366, 8.690e-6
-1.367, 8.591e-6
-1.368, 8.552e-6
-1.369, 8.798e-6
-1.370, 8.838e-6
-1.371, 8.877e-6
-1.372, 8.798e-6
-1.373, 8.779e-6
-1.374, 8.937e-6
-1.375, 9.094e-6
-1.376, 9.233e-6
-1.377, 9.272e-6
-1.378, 9.262e-6
-1.379, 9.331e-6
-1.380, 9.548e-6
-1.381, 9.390e-6
-1.382, 9.459e-6
-1.383, 9.627e-6
-1.384, 9.617e-6
-1.385, 9.588e-6
-1.386, 1.001e-5
-1.387, 1.026e-5
-1.388, 9.963e-6
-1.389, 9.874e-6
-1.390, 9.923e-6
-1.391, 1.000e-5
-1.392, 1.000e-5
-1.393, 1.001e-5
-1.394, 1.013e-5
-1.395, 1.028e-5
-1.396, 1.031e-5
-1.397, 1.034e-5
-1.398, 1.042e-5
-1.399, 1.052e-5
-1.400, 1.051e-5
-1.401, 1.064e-5
-1.402, 1.075e-5
-1.403, 1.069e-5
-1.404, 1.083e-5
-1.405, 1.091e-5
-1.406, 1.099e-5
-1.407, 1.106e-5
-1.408, 1.119e-5
-1.409, 1.129e-5
-1.410, 1.123e-5
-1.411, 1.131e-5
-1.412, 1.131e-5
-1.413, 1.139e-5
-1.414, 1.148e-5
-1.415, 1.163e-5
-1.416, 1.176e-5
-1.417, 1.175e-5
-1.418, 1.174e-5
-1.419, 1.175e-5
-1.420, 1.190e-5
-1.421, 1.202e-5
-1.422, 1.199e-5
-1.423, 1.212e-5
-1.424, 1.220e-5
-1.425, 1.220e-5
-1.426, 1.230e-5
-1.427, 1.241e-5
-1.428, 1.241e-5
-1.429, 1.246e-5
-1.430, 1.262e-5
-1.431, 1.273e-5
-1.432, 1.271e-5
-1.433, 1.282e-5
-1.434, 1.302e-5
-1.435, 1.319e-5
-1.436, 1.314e-5
-1.437, 1.326e-5
-1.438, 1.325e-5
-1.439, 1.331e-5
-1.440, 1.345e-5
-1.441, 1.358e-5
-1.442, 1.366e-5
-1.443, 1.371e-5
-1.444, 1.384e-5
-1.445, 1.383e-5
-1.446, 1.395e-5
-1.447, 1.400e-5
-1.448, 1.404e-5
-1.449, 1.419e-5
-1.450, 1.440e-5
-1.451, 1.448e-5
-1.452, 1.448e-5
-1.453, 1.459e-5
-1.454, 1.459e-5
-1.455, 1.470e-5
-1.456, 1.487e-5
-1.457, 1.482e-5
-1.458, 1.500e-5
-1.459, 1.516e-5
-1.460, 1.524e-5
-1.461, 1.535e-5
-1.462, 1.532e-5
-1.463, 1.546e-5
-1.464, 1.559e-5
-1.465, 1.556e-5
-1.466, 1.574e-5
-1.467, 1.591e-5
-1.468, 1.587e-5
-1.469, 1.606e-5
-1.470, 1.607e-5
-1.471, 1.620e-5
-1.472, 1.633e-5
-1.473, 1.639e-5
-1.474, 1.650e-5
-1.475, 1.650e-5
-1.476, 1.666e-5
-1.477, 1.675e-5
-1.478, 1.698e-5
-1.479, 1.694e-5
-1.480, 1.697e-5
-1.481, 1.711e-5
-1.482, 1.723e-5
-1.483, 1.727e-5
-1.484, 1.736e-5
-1.485, 1.756e-5
-1.486, 1.766e-5
-1.487, 1.779e-5
-1.488, 1.780e-5
-1.489, 1.803e-5
-1.490, 1.802e-5
-1.491, 1.820e-5
-1.492, 1.825e-5
-1.493, 1.821e-5
-1.494, 1.856e-5
-1.495, 1.851e-5
-1.496, 1.874e-5
-1.497, 1.878e-5
-1.498, 1.892e-5
-1.499, 1.901e-5
-1.500, 1.911e-5
-1.501, 1.923e-5
-1.502, 1.927e-5
-1.503, 1.943e-5
-1.504, 1.960e-5
-1.505, 1.958e-5
-1.506, 1.977e-5
-1.507, 1.983e-5
-1.508, 1.986e-5
-1.509, 1.999e-5
-1.510, 2.008e-5
-1.511, 2.038e-5
-1.512, 2.045e-5
-1.513, 2.052e-5
-1.514, 2.069e-5
-1.515, 2.081e-5
-1.516, 2.089e-5
-1.517, 2.101e-5
-1.518, 2.110e-5
-1.519, 2.112e-5
-1.520, 2.113e-5
-1.521, 2.122e-5
-1.522, 2.142e-5
-1.523, 2.159e-5
-1.524, 2.181e-5
-1.525, 2.172e-5
-1.526, 2.185e-5
-1.527, 2.200e-5
-1.528, 2.247e-5
-1.529, 2.231e-5
-1.530, 2.244e-5
-1.531, 2.264e-5
-1.532, 2.304e-5
-1.533, 2.396e-5
-1.534, 2.336e-5
-1.535, 2.296e-5
-1.536, 2.321e-5
-1.537, 2.326e-5
-1.538, 2.345e-5
-1.539, 2.388e-5
-1.540, 2.398e-5
-1.541, 2.408e-5
-1.542, 2.415e-5
-1.543, 2.414e-5
-1.544, 2.415e-5
-1.545, 2.424e-5
-1.546, 2.455e-5
-1.547, 2.467e-5
-1.548, 2.476e-5
-1.549, 2.503e-5
-1.550, 2.507e-5
-1.551, 2.523e-5
-1.552, 2.522e-5
-1.553, 2.535e-5
-1.554, 2.556e-5
-1.555, 2.577e-5
-1.556, 2.614e-5
-1.557, 2.608e-5
-1.558, 2.616e-5
-1.559, 2.644e-5
-1.560, 2.634e-5
-1.561, 2.665e-5
-1.562, 2.676e-5
-1.563, 2.713e-5
-1.564, 2.723e-5
-1.565, 2.739e-5
-1.566, 2.766e-5
-1.567, 2.775e-5
-1.568, 2.805e-5
-1.569, 2.820e-5
-1.570, 2.832e-5
-1.571, 2.868e-5
-1.572, 2.887e-5
-1.573, 2.908e-5
-1.574, 2.934e-5
-1.575, 2.966e-5
-1.576, 2.991e-5
-1.577, 3.021e-5
-1.578, 3.048e-5
-1.579, 3.073e-5
-1.580, 3.097e-5
-1.581, 3.129e-5
-1.582, 3.155e-5
-1.583, 3.202e-5
-1.584, 3.221e-5
-1.585, 3.260e-5
-1.586, 3.292e-5
-1.587, 3.346e-5
-1.588, 3.391e-5
-1.589, 3.459e-5
-1.590, 3.490e-5
-1.591, 3.534e-5
-1.592, 3.561e-5
-1.593, 3.610e-5
-1.594, 3.662e-5
-1.595, 3.702e-5
-1.596, 3.769e-5
-1.597, 3.824e-5
-1.598, 3.901e-5
-1.599, 3.954e-5
-1.600, 4.017e-5
-1.601, 4.083e-5
-1.602, 4.142e-5
-1.603, 4.219e-5
-1.604, 4.294e-5
-1.605, 4.381e-5
-1.606, 4.456e-5
-1.607, 4.531e-5
-1.608, 4.633e-5
-1.609, 4.733e-5
-1.610, 4.831e-5
-1.611, 4.932e-5
-1.612, 5.030e-5
-1.613, 5.145e-5
-1.614, 5.252e-5
-1.615, 5.360e-5
-1.616, 5.493e-5
-1.617, 5.632e-5
-1.618, 5.774e-5
-1.619, 5.931e-5
-1.620, 6.059e-5
-1.621, 6.203e-5
-1.622, 6.370e-5
-1.623, 6.527e-5
-1.624, 6.703e-5
-1.625, 6.888e-5
-1.626, 7.066e-5
-1.627, 7.265e-5
-1.628, 7.475e-5
-1.629, 7.680e-5
-1.630, 7.896e-5
-1.631, 8.150e-5
-1.632, 8.376e-5
-1.633, 8.619e-5
-1.634, 8.885e-5
-1.635, 9.157e-5
-1.636, 9.448e-5
-1.637, 9.737e-5
-1.638, 1.005e-4
-1.639, 1.038e-4
-1.640, 1.071e-4
-1.641, 1.107e-4
-1.642, 1.143e-4
-1.643, 1.182e-4
-1.644, 1.223e-4
-1.645, 1.267e-4
-1.646, 1.314e-4
-1.647, 1.361e-4
-1.648, 1.414e-4
-1.649, 1.467e-4
-1.650, 1.523e-4
-1.651, 1.584e-4
-1.652, 1.647e-4
-1.653, 1.715e-4
-1.654, 1.786e-4
-1.655, 1.859e-4
-1.656, 1.937e-4
-1.657, 2.023e-4
-1.658, 2.106e-4
-1.659, 2.196e-4
-1.660, 2.291e-4
-1.661, 2.391e-4
-1.662, 2.495e-4
-1.663, 2.606e-4
-1.664, 2.724e-4
-1.665, 2.847e-4
-1.666, 2.977e-4
-1.667, 3.114e-4
-1.668, 3.257e-4
-1.669, 3.407e-4
-1.670, 3.565e-4
-1.671, 3.728e-4
-1.672, 3.902e-4
-1.673, 4.081e-4
-1.674, 4.269e-4
-1.675, 4.462e-4
-1.676, 4.669e-4
-1.677, 4.884e-4
-1.678, 5.114e-4
-1.679, 5.352e-4
-1.680, 5.602e-4
-1.681, 5.861e-4
-1.682, 6.135e-4
-1.683, 6.418e-4
-1.684, 6.720e-4
-1.685, 7.021e-4
-1.686, 7.331e-4
-1.687, 7.662e-4
-1.688, 8.023e-4
-1.689, 8.378e-4
-1.690, 8.768e-4
-1.691, 9.166e-4
-1.692, 9.567e-4
-1.693, 9.987e-4
-1.694, 1.042e-3
-1.695, 1.088e-3
-1.696, 1.135e-3
-1.697, 1.184e-3
-1.698, 1.232e-3
-1.699, 1.284e-3
-1.700, 1.337e-3
-1.701, 1.393e-3
-1.702, 1.449e-3
-1.703, 1.511e-3
-1.704, 1.571e-3
-1.705, 1.635e-3
-1.706, 1.698e-3
-1.707, 1.765e-3
-1.708, 1.831e-3
-1.709, 1.903e-3
-1.710, 1.973e-3
-1.711, 2.049e-3
-1.712, 2.122e-3
-1.713, 2.198e-3
-1.714, 2.274e-3
-1.715, 2.354e-3
-1.716, 2.435e-3
-1.717, 2.521e-3
-1.718, 2.602e-3
-1.719, 2.691e-3
-1.720, 2.775e-3
-1.721, 2.867e-3
-1.722, 2.952e-3
-1.723, 3.046e-3
-1.724, 3.132e-3
-1.725, 3.227e-3
-1.726, 3.316e-3
-1.727, 3.408e-3
-1.728, 3.506e-3
-1.729, 3.599e-3
-1.730, 3.701e-3
-1.731, 3.795e-3
-1.732, 3.900e-3
-1.733, 3.996e-3
-1.734, 4.108e-3
-1.735, 4.207e-3
-1.736, 4.320e-3
-1.737, 4.411e-3
-1.738, 4.514e-3
-1.739, 4.608e-3
-1.740, 4.720e-3
-1.741, 4.824e-3
-1.742, 4.946e-3
-1.743, 5.052e-3
-1.744, 5.180e-3
-1.745, 5.284e-3
-1.746, 5.380e-3
-1.747, 5.477e-3
-1.748, 5.575e-3
-1.749, 5.700e-3
-1.750, 5.805e-3
-1.751, 5.915e-3
-1.752, 6.033e-3
-1.753, 6.146e-3
-1.754, 6.253e-3
-1.755, 6.376e-3
-1.756, 6.494e-3
-1.757, 6.603e-3
-1.758, 6.715e-3
-1.759, 6.823e-3
-1.760, 6.942e-3
-1.761, 7.052e-3
-1.762, 7.171e-3
-1.763, 7.257e-3
-1.764, 7.378e-3
-1.765, 7.489e-3
-1.766, 7.622e-3
-1.767, 7.707e-3
-1.768, 7.836e-3
-1.769, 7.940e-3
-1.770, 8.078e-3
-1.771, 8.219e-3
-1.772, 8.355e-3
-1.773, 8.466e-3
-1.774, 8.604e-3
-1.775, 8.671e-3
-1.776, 8.784e-3
-1.777, 8.911e-3
-1.778, 9.029e-3
-1.779, 9.127e-3
-1.780, 9.228e-3
-1.781, 9.332e-3
-1.782, 9.425e-3
-1.783, 9.560e-3
-1.784, 9.656e-3
-1.785, 9.799e-3
-1.786, 9.896e-3
-1.787, 1.002e-2
-1.788, 1.011e-2
-1.789, 1.024e-2
-1.790, 1.034e-2
-1.791, 1.046e-2
-1.792, 1.054e-2
-1.793, 1.068e-2
-1.794, 1.077e-2
-1.795, 1.090e-2
-1.796, 1.098e-2
-1.797, 1.111e-2
-1.798, 1.120e-2
-1.799, 1.131e-2
-1.800, 1.136e-2
-1.799, 1.124e-2
-1.798, 1.118e-2
-1.797, 1.108e-2
-1.796, 1.102e-2
-1.795, 1.095e-2
-1.794, 1.091e-2
-1.793, 1.084e-2
-1.792, 1.075e-2
-1.791, 1.068e-2
-1.790, 1.059e-2
-1.789, 1.052e-2
-1.788, 1.043e-2
-1.787, 1.037e-2
-1.786, 1.030e-2
-1.785, 1.021e-2
-1.784, 1.012e-2
-1.783, 1.003e-2
-1.782, 9.970e-3
-1.781, 9.886e-3
-1.780, 9.835e-3
-1.779, 9.726e-3
-1.778, 9.599e-3
-1.777, 9.558e-3
-1.776, 9.470e-3
-1.775, 9.420e-3
-1.774, 9.324e-3
-1.773, 9.243e-3
-1.772, 9.228e-3
-1.771, 9.193e-3
-1.770, 9.142e-3
-1.769, 9.026e-3
-1.768, 8.861e-3
-1.767, 8.784e-3
-1.766, 8.697e-3
-1.765, 8.595e-3
-1.764, 8.529e-3
-1.763, 8.458e-3
-1.762, 8.409e-3
-1.761, 8.341e-3
-1.760, 8.276e-3
-1.759, 8.172e-3
-1.758, 8.092e-3
-1.757, 7.985e-3
-1.756, 7.982e-3
-1.755, 7.891e-3
-1.754, 7.853e-3
-1.753, 7.779e-3
-1.752, 7.697e-3
-1.751, 7.627e-3
-1.750, 7.533e-3
-1.749, 7.448e-3
-1.748, 7.363e-3
-1.747, 7.262e-3
-1.746, 7.162e-3
-1.745, 7.105e-3
-1.744, 7.061e-3
-1.743, 7.050e-3
-1.742, 6.988e-3
-1.741, 6.916e-3
-1.740, 6.816e-3
-1.739, 6.731e-3
-1.738, 6.647e-3
-1.737, 6.564e-3
-1.736, 6.488e-3
-1.735, 6.391e-3
-1.734, 6.301e-3
-1.733, 6.239e-3
-1.732, 6.181e-3
-1.731, 6.083e-3
-1.730, 6.004e-3
-1.729, 5.920e-3
-1.728, 5.836e-3
-1.727, 5.766e-3
-1.726, 5.702e-3
-1.725, 5.637e-3
-1.724, 5.552e-3
-1.723, 5.489e-3
-1.722, 5.407e-3
-1.721, 5.343e-3
-1.720, 5.258e-3
-1.719, 5.181e-3
-1.718, 5.109e-3
-1.717, 5.042e-3
-1.716, 4.991e-3
-1.715, 4.932e-3
-1.714, 4.845e-3
-1.713, 4.779e-3
-1.712, 4.698e-3
-1.711, 4.619e-3
-1.710, 4.546e-3
-1.709, 4.483e-3
-1.708, 4.418e-3
-1.707, 4.342e-3
-1.706, 4.259e-3
-1.705, 4.191e-3
-1.704, 4.121e-3
-1.703, 4.048e-3
-1.702, 3.989e-3
-1.701, 3.922e-3
-1.700, 3.853e-3
-1.699, 3.801e-3
-1.698, 3.740e-3
-1.697, 3.675e-3
-1.696, 3.615e-3
-1.695, 3.556e-3
-1.694, 3.496e-3
-1.693, 3.452e-3
-1.692, 3.401e-3
-1.691, 3.322e-3
-1.690, 3.260e-3
-1.689, 3.219e-3
-1.688, 3.170e-3
-1.687, 3.117e-3
-1.686, 3.057e-3
-1.685, 2.998e-3
-1.684, 2.944e-3
-1.683, 2.887e-3
-1.682, 2.832e-3
-1.681, 2.773e-3
-1.680, 2.712e-3
-1.679, 2.656e-3
-1.678, 2.598e-3
-1.677, 2.545e-3
-1.676, 2.496e-3
-1.675, 2.445e-3
-1.674, 2.393e-3
-1.673, 2.334e-3
-1.672, 2.281e-3
-1.671, 2.230e-3
-1.670, 2.177e-3
-1.669, 2.127e-3
-1.668, 2.081e-3
-1.667, 2.035e-3
-1.666, 1.989e-3
-1.665, 1.948e-3
-1.664, 1.902e-3
-1.663, 1.858e-3
-1.662, 1.814e-3
-1.661, 1.767e-3
-1.660, 1.723e-3
-1.659, 1.683e-3
-1.658, 1.642e-3
-1.657, 1.602e-3
-1.656, 1.562e-3
-1.655, 1.524e-3
-1.654, 1.486e-3
-1.653, 1.448e-3
-1.652, 1.410e-3
-1.651, 1.374e-3
-1.650, 1.339e-3
-1.649, 1.304e-3
-1.648, 1.269e-3
-1.647, 1.236e-3
-1.646, 1.202e-3
-1.645, 1.169e-3
-1.644, 1.138e-3
-1.643, 1.106e-3
-1.642, 1.075e-3
-1.641, 1.043e-3
-1.640, 1.014e-3
-1.639, 9.837e-4
-1.638, 9.560e-4
-1.637, 9.280e-4
-1.636, 9.011e-4
-1.635, 8.757e-4
-1.634, 8.497e-4
-1.633, 8.231e-4
-1.632, 7.983e-4
-1.631, 7.742e-4
-1.630, 7.508e-4
-1.629, 7.281e-4
-1.628, 7.072e-4
-1.627, 6.857e-4
-1.626, 6.645e-4
-1.625, 6.429e-4
-1.624, 6.233e-4
-1.623, 6.043e-4
-1.622, 5.857e-4
-1.621, 5.675e-4
-1.620, 5.494e-4
-1.619, 5.314e-4
-1.618, 5.150e-4
-1.617, 4.989e-4
-1.616, 4.830e-4
-1.615, 4.677e-4
-1.614, 4.528e-4
-1.613, 4.389e-4
-1.612, 4.243e-4
-1.611, 4.107e-4
-1.610, 3.975e-4
-1.609, 3.864e-4
-1.608, 3.728e-4
-1.607, 3.612e-4
-1.606, 3.495e-4
-1.605, 3.381e-4
-1.604, 3.278e-4
-1.603, 3.172e-4
-1.602, 3.068e-4
-1.601, 2.969e-4
-1.600, 2.871e-4
-1.599, 2.779e-4
-1.598, 2.685e-4
-1.597, 2.599e-4
-1.596, 2.514e-4
-1.595, 2.438e-4
-1.594, 2.359e-4
-1.593, 2.280e-4
-1.592, 2.209e-4
-1.591, 2.140e-4
-1.590, 2.075e-4
-1.589, 2.013e-4
-1.588, 1.949e-4
-1.587, 1.884e-4
-1.586, 1.827e-4
-1.585, 1.766e-4
-1.584, 1.709e-4
-1.583, 1.655e-4
-1.582, 1.628e-4
-1.581, 1.579e-4
-1.580, 1.530e-4
-1.579, 1.487e-4
-1.578, 1.441e-4
-1.577, 1.396e-4
-1.576, 1.354e-4
-1.575, 1.314e-4
-1.574, 1.285e-4
-1.573, 1.246e-4
-1.572, 1.210e-4
-1.571, 1.173e-4
-1.570, 1.140e-4
-1.569, 1.106e-4
-1.568, 1.075e-4
-1.567, 1.045e-4
-1.566, 1.017e-4
-1.565, 9.734e-5
-1.564, 9.456e-5
-1.563, 9.188e-5
-1.562, 8.894e-5
-1.561, 8.739e-5
-1.560, 8.525e-5
-1.559, 8.216e-5
-1.558, 8.009e-5
-1.557, 7.759e-5
-1.556, 7.575e-5
-1.555, 7.350e-5
-1.554, 7.160e-5
-1.553, 6.975e-5
-1.552, 6.790e-5
-1.551, 6.645e-5
-1.550, 6.511e-5
-1.549, 6.377e-5
-1.548, 6.275e-5
-1.547, 6.149e-5
-1.546, 5.917e-5
-1.545, 5.689e-5
-1.544, 5.536e-5
-1.543, 5.390e-5
-1.542, 5.282e-5
-1.541, 5.164e-5
-1.540, 5.045e-5
-1.539, 4.960e-5
-1.538, 4.714e-5
-1.537, 4.664e-5
-1.536, 4.574e-5
-1.535, 4.461e-5
-1.534, 4.351e-5
-1.533, 4.271e-5
-1.532, 4.151e-5
-1.531, 4.009e-5
-1.530, 3.942e-5
-1.529, 3.851e-5
-1.528, 3.803e-5
-1.527, 3.716e-5
-1.526, 3.612e-5
-1.525, 3.525e-5
-1.524, 3.462e-5
-1.523, 3.420e-5
-1.522, 3.443e-5
-1.521, 3.560e-5
-1.520, 3.458e-5
-1.519, 3.332e-5
-1.518, 3.172e-5
-1.517, 3.096e-5
-1.516, 3.108e-5
-1.515, 3.100e-5
-1.514, 2.895e-5
-1.513, 2.810e-5
-1.512, 2.747e-5
-1.511, 2.700e-5
-1.510, 2.660e-5
-1.509, 2.626e-5
-1.508, 2.572e-5
-1.507, 2.531e-5
-1.506, 2.512e-5
-1.505, 2.458e-5
-1.504, 2.430e-5
-1.503, 2.385e-5
-1.502, 2.316e-5
-1.501, 2.308e-5
-1.500, 2.302e-5
-1.499, 2.221e-5
-1.498, 2.230e-5
-1.497, 2.252e-5
-1.496, 2.341e-5
-1.495, 2.388e-5
-1.494, 2.330e-5
-1.493, 2.304e-5
-1.492, 2.290e-5
-1.491, 2.266e-5
-1.490, 2.093e-5
-1.489, 1.831e-5
-1.488, 1.865e-5
-1.487, 1.879e-5
-1.486, 1.837e-5
-1.485, 1.806e-5
-1.484, 1.772e-5
-1.483, 1.757e-5
-1.482, 1.727e-5
-1.481, 1.718e-5
-1.480, 1.698e-5
-1.479, 1.663e-5
-1.478, 1.648e-5
-1.477, 1.641e-5
-1.476, 1.579e-5
-1.475, 1.542e-5
-1.474, 1.634e-5
-1.473, 1.662e-5
-1.472, 1.654e-5
-1.471, 1.625e-5
-1.470, 1.622e-5
-1.469, 1.588e-5
-1.468, 1.581e-5
-1.467, 1.568e-5
-1.466, 1.525e-5
-1.465, 1.489e-5
-1.464, 1.418e-5
-1.463, 1.404e-5
-1.462, 1.367e-5
-1.461, 1.315e-5
-1.460, 1.372e-5
-1.459, 1.353e-5
-1.458, 1.346e-5
-1.457, 1.315e-5
-1.456, 1.308e-5
-1.455, 1.300e-5
-1.454, 1.287e-5
-1.453, 1.285e-5
-1.452, 1.266e-5
-1.451, 1.250e-5
-1.450, 1.254e-5
-1.449, 1.231e-5
-1.448, 1.207e-5
-1.447, 1.106e-5
-1.446, 1.087e-5
-1.445, 1.141e-5
-1.444, 1.069e-5
-1.443, 1.064e-5
-1.442, 1.052e-5
-1.441, 1.050e-5
-1.440, 1.055e-5
-1.439, 1.027e-5
-1.438, 1.021e-5
-1.437, 1.018e-5
-1.436, 1.006e-5
-1.435, 9.992e-6
-1.434, 9.716e-6
-1.433, 9.617e-6
-1.432, 9.598e-6
-1.431, 9.519e-6
-1.430, 9.627e-6
-1.429, 9.400e-6
-1.428, 9.627e-6
-1.427, 9.351e-6
-1.426, 9.371e-6
-1.425, 9.341e-6
-1.424, 9.252e-6
-1.423, 9.193e-6
-1.422, 9.144e-6
-1.421, 9.016e-6
-1.420, 8.937e-6
-1.419, 8.828e-6
-1.418, 8.601e-6
-1.417, 8.581e-6
-1.416, 8.601e-6
-1.415, 8.552e-6
-1.414, 8.256e-6
-1.413, 8.088e-6
-1.412, 8.049e-6
-1.411, 8.108e-6
-1.410, 8.049e-6
-1.409, 7.891e-6
-1.408, 7.891e-6
-1.407, 7.832e-6
-1.406, 7.684e-6
-1.405, 7.763e-6
-1.404, 7.703e-6
-1.403, 7.654e-6
-1.402, 7.427e-6
-1.401, 7.407e-6
-1.400, 7.595e-6
-1.399, 7.634e-6
-1.398, 7.743e-6
-1.397, 7.841e-6
-1.396, 7.634e-6
-1.395, 7.575e-6
-1.394, 7.486e-6
-1.393, 7.526e-6
-1.392, 7.388e-6
-1.391, 7.220e-6
-1.390, 7.240e-6
-1.389, 7.240e-6
-1.388, 7.161e-6
-1.387, 7.161e-6
-1.386, 7.052e-6
-1.385, 6.855e-6
-1.384, 6.855e-6
-1.383, 6.914e-6
-1.382, 6.717e-6
-1.381, 6.697e-6
-1.380, 6.579e-6
-1.379, 6.510e-6
-1.378, 6.539e-6
-1.377, 6.460e-6
-1.376, 6.352e-6
-1.375, 6.460e-6
-1.374, 6.322e-6
-1.373, 6.293e-6
-1.372, 6.194e-6
-1.371, 6.164e-6
-1.370, 6.115e-6
-1.369, 6.026e-6
-1.368, 5.987e-6
-1.367, 5.918e-6
-1.366, 5.918e-6
-1.365, 5.918e-6
-1.364, 5.888e-6
-1.363, 5.858e-6
-1.362, 5.740e-6
-1.361, 5.750e-6
-1.360, 5.720e-6
-1.359, 5.740e-6
-1.358, 5.750e-6
-1.357, 5.750e-6
-1.356, 5.779e-6
-1.355, 5.720e-6
-1.354, 5.730e-6
-1.353, 5.641e-6
-1.352, 5.651e-6
-1.351, 5.553e-6
-1.350, 5.483e-6
-1.349, 5.405e-6
-1.348, 5.503e-6
-1.347, 5.513e-6
-1.346, 5.395e-6
-1.345, 5.424e-6
-1.344, 5.336e-6
-1.343, 5.296e-6
-1.342, 5.326e-6
-1.341, 5.266e-6
-1.340, 5.257e-6
-1.339, 5.345e-6
-1.338, 5.168e-6
-1.337, 5.168e-6
-1.336, 5.089e-6
-1.335, 5.138e-6
-1.334, 5.089e-6
-1.333, 5.059e-6
-1.332, 5.109e-6
-1.331, 4.921e-6
-1.330, 4.931e-6
-1.329, 4.882e-6
-1.328, 4.941e-6
-1.327, 4.783e-6
-1.326, 4.822e-6
-1.325, 4.822e-6
-1.324, 4.813e-6
-1.323, 4.793e-6
-1.322, 4.724e-6
-1.321, 4.655e-6
-1.320, 4.694e-6
-1.319, 4.645e-6
-1.318, 4.763e-6
-1.317, 4.586e-6
-1.316, 4.566e-6
-1.315, 4.536e-6
-1.314, 4.576e-6
-1.313, 4.526e-6
-1.312, 4.536e-6
-1.311, 4.467e-6
-1.310, 4.418e-6
-1.309, 4.379e-6
-1.308, 4.349e-6
-1.307, 4.349e-6
-1.306, 4.152e-6
-1.305, 4.240e-6
-1.304, 4.201e-6
-1.303, 4.181e-6
-1.302, 4.132e-6
-1.301, 4.122e-6
-1.300, 4.280e-6
-1.299, 4.073e-6
-1.298, 3.994e-6
-1.297, 3.964e-6
-1.296, 4.013e-6
-1.295, 4.023e-6
-1.294, 3.954e-6
-1.293, 4.004e-6
-1.292, 3.895e-6
-1.291, 3.885e-6
-1.290, 3.816e-6
-1.289, 3.974e-6
-1.288, 3.875e-6
-1.287, 3.895e-6
-1.286, 3.806e-6
-1.285, 3.915e-6
-1.284, 3.806e-6
-1.283, 3.935e-6
-1.282, 3.826e-6
-1.281, 3.757e-6
-1.280, 3.629e-6
-1.279, 3.678e-6
-1.278, 3.688e-6
-1.277, 3.698e-6
-1.276, 3.688e-6
-1.275, 3.668e-6
-1.274, 3.639e-6
-1.273, 3.658e-6
-1.272, 3.589e-6
-1.271, 3.540e-6
-1.270, 3.658e-6
-1.269, 3.579e-6
-1.268, 3.609e-6
-1.267, 3.510e-6
-1.266, 3.461e-6
-1.265, 3.520e-6
-1.264, 3.510e-6
-1.263, 3.540e-6
-1.262, 3.431e-6
-1.261, 3.402e-6
-1.260, 3.530e-6
-1.259, 3.382e-6
-1.258, 3.461e-6
-1.257, 3.343e-6
-1.256, 3.422e-6
-1.255, 3.362e-6
-1.254, 3.234e-6
-1.253, 3.323e-6
-1.252, 3.244e-6
-1.251, 3.264e-6
-1.250, 3.224e-6
-1.249, 3.283e-6
-1.248, 3.313e-6
-1.247, 3.204e-6
-1.246, 3.145e-6
-1.245, 3.323e-6
-1.244, 3.165e-6
-1.243, 3.234e-6
-1.242, 3.165e-6
-1.241, 3.096e-6
-1.240, 3.145e-6
-1.239, 3.145e-6
-1.238, 3.126e-6
-1.237, 3.234e-6
-1.236, 3.145e-6
-1.235, 3.066e-6
-1.234, 3.056e-6
-1.233, 3.185e-6
-1.232, 3.047e-6
-1.231, 3.066e-6
-1.230, 3.076e-6
-1.229, 3.017e-6
-1.228, 2.948e-6
-1.227, 2.928e-6
-1.226, 2.889e-6
-1.225, 2.968e-6
-1.224, 2.849e-6
-1.223, 2.958e-6
-1.222, 2.830e-6
-1.221, 2.790e-6
-1.220, 2.908e-6
-1.219, 2.859e-6
-1.218, 2.859e-6
-1.217, 2.800e-6
-1.216, 2.751e-6
-1.215, 2.879e-6
-1.214, 2.830e-6
-1.213, 2.820e-6
-1.212, 2.721e-6
-1.211, 2.731e-6
-1.210, 2.918e-6
-1.209, 2.741e-6
-1.208, 2.770e-6
-1.207, 2.701e-6
-1.206, 2.652e-6
-1.205, 2.662e-6
-1.204, 2.632e-6
-1.203, 2.672e-6
-1.202, 2.543e-6
-1.201, 2.514e-6
-1.200, 2.553e-6
-1.199, 2.603e-6
-1.198, 2.573e-6
-1.197, 2.494e-6
-1.196, 2.484e-6
-1.195, 2.504e-6
-1.194, 2.494e-6
-1.193, 2.583e-6
-1.192, 2.514e-6
-1.191, 2.563e-6
-1.190, 2.543e-6
-1.189, 2.504e-6
-1.188, 2.494e-6
-1.187, 2.455e-6
-1.186, 2.455e-6
-1.185, 2.534e-6
-1.184, 2.465e-6
-1.183, 2.405e-6
-1.182, 2.356e-6
-1.181, 2.395e-6
-1.180, 2.455e-6
-1.179, 2.425e-6
-1.178, 2.376e-6
-1.177, 2.326e-6
-1.176, 2.336e-6
-1.175, 2.395e-6
-1.174, 2.267e-6
-1.173, 2.415e-6
-1.172, 2.277e-6
-1.171, 2.307e-6
-1.170, 2.277e-6
-1.169, 2.415e-6
-1.168, 2.336e-6
-1.167, 2.218e-6
-1.166, 2.415e-6
-1.165, 2.366e-6
-1.164, 2.208e-6
-1.163, 2.247e-6
-1.162, 2.228e-6
-1.161, 2.139e-6
-1.160, 2.257e-6
-1.159, 2.208e-6
-1.158, 2.247e-6
-1.157, 2.169e-6
-1.156, 2.178e-6
-1.155, 2.218e-6
-1.154, 2.218e-6
-1.153, 2.228e-6
-1.152, 2.080e-6
-1.151, 2.099e-6
-1.150, 2.109e-6
-1.149, 2.109e-6
-1.148, 2.129e-6
-1.147, 2.070e-6
-1.146, 2.080e-6
-1.145, 2.040e-6
-1.144, 2.040e-6
-1.143, 2.050e-6
-1.142, 2.070e-6
-1.141, 2.080e-6
-1.140, 2.050e-6
-1.139, 1.912e-6
-1.138, 1.932e-6
-1.137, 1.922e-6
-1.136, 2.001e-6
-1.135, 2.070e-6
-1.134, 2.030e-6
-1.133, 1.961e-6
-1.132, 1.961e-6
-1.131, 2.040e-6
-1.130, 1.942e-6
-1.129, 1.882e-6
-1.128, 1.961e-6
-1.127, 1.873e-6
-1.126, 1.813e-6
-1.125, 1.803e-6
-1.124, 1.803e-6
-1.123, 1.863e-6
-1.122, 1.813e-6
-1.121, 1.705e-6
-1.120, 1.784e-6
-1.119, 1.665e-6
-1.118, 1.764e-6
-1.117, 1.725e-6
-1.116, 1.675e-6
-1.115, 1.764e-6
-1.114, 1.764e-6
-1.113, 1.685e-6
-1.112, 1.646e-6
-1.111, 1.596e-6
-1.110, 1.665e-6
-1.109, 1.734e-6
-1.108, 1.695e-6
-1.107, 1.636e-6
-1.106, 1.665e-6
-1.105, 1.665e-6
-1.104, 1.596e-6
-1.103, 1.646e-6
-1.102, 1.626e-6
-1.101, 1.557e-6
-1.100, 1.527e-6
-1.099, 1.488e-6
-1.098, 1.567e-6
-1.097, 1.468e-6
-1.096, 1.498e-6
-1.095, 1.537e-6
-1.094, 1.468e-6
-1.093, 1.478e-6
-1.092, 1.438e-6
-1.091, 1.429e-6
-1.090, 1.517e-6
-1.089, 1.468e-6
-1.088, 1.389e-6
-1.087, 1.369e-6
-1.086, 1.320e-6
-1.085, 1.389e-6
-1.084, 1.310e-6
-1.083, 1.419e-6
-1.082, 1.320e-6
-1.081, 1.310e-6
-1.080, 1.478e-6
-1.079, 1.360e-6
-1.078, 1.340e-6
-1.077, 1.330e-6
-1.076, 1.310e-6
-1.075, 1.379e-6
-1.074, 1.369e-6
-1.073, 1.360e-6
-1.072, 1.271e-6
-1.071, 1.340e-6
-1.070, 1.409e-6
-1.069, 1.300e-6
-1.068, 1.330e-6
-1.067, 1.251e-6
-1.066, 1.310e-6
-1.065, 1.360e-6
-1.064, 1.261e-6
-1.063, 1.281e-6
-1.062, 1.192e-6
-1.061, 1.261e-6
-1.060, 1.221e-6
-1.059, 1.152e-6
-1.058, 1.300e-6
-1.057, 1.172e-6
-1.056, 1.162e-6
-1.055, 1.212e-6
-1.054, 1.212e-6
-1.053, 1.241e-6
-1.052, 1.113e-6
-1.051, 1.152e-6
-1.050, 1.133e-6
-1.049, 1.024e-6
-1.048, 1.152e-6
-1.047, 1.044e-6
-1.046, 1.054e-6
-1.045, 1.113e-6
-1.044, 1.093e-6
-1.043, 9.945e-7
-1.042, 9.945e-7
-1.041, 9.353e-7
-1.040, 9.846e-7
-1.039, 9.846e-7
-1.038, 9.748e-7
-1.037, 9.156e-7
-1.036, 8.564e-7
-1.035, 8.860e-7
-1.034, 9.254e-7
-1.033, 9.452e-7
-1.032, 8.465e-7
-1.031, 8.860e-7
-1.030, 8.366e-7
-1.029, 8.465e-7
-1.028, 8.564e-7
-1.027, 6.788e-7
-1.026, 8.268e-7
-1.025, 8.761e-7
-1.024, 6.294e-7
-1.023, 6.689e-7
-1.022, 6.492e-7
-1.021, 6.393e-7
-1.020, 7.380e-7
-1.019, 6.985e-7
-1.018, 6.689e-7
-1.017, 4.420e-7
-1.016, 4.716e-7
-1.015, 4.913e-7
-1.014, 4.815e-7
-1.013, 5.209e-7
-1.012, 3.828e-7
-1.011, 3.927e-7
-1.010, 5.604e-7
-1.009, 4.815e-7
-1.008, 4.815e-7
-1.007, 4.420e-7
-1.006, 4.124e-7
-1.005, 4.420e-7
-1.004, 3.927e-7
-1.003, 3.433e-7
-1.002, 3.335e-7
-1.001, 4.025e-7
