Dec. 13, 2024   06:53:10
Linear Sweep Voltammetry
File: c:/users/guazh/data/banditlqround7_x0exp59_r20/2024-12-09-exp645\1acid_1ac-2024-12-13t06_49_58-lsvinphos\1acid_1ac_lsv_50mvs_efin_-2100mv.bin
Data Source:  Experiment
Instrument Model:  CHI760E
Header: LSV ran at 50 mVs with Efin at -2100mV
Note: 

Init E (V) = -0.6
Final E (V) = -2.1
Scan Rate (V/s) = 0.05
Sample Interval (V) = 0.001
Quiet Time (sec) = 2
Sensitivity (A/V) = 1e-4
Comp R (ohm) = 8.3

Results:

Channel 1:
Ep = -1.814V
ip = 8.003e-4A
Ah = 1.137e-3C

Potential/V, Current/A

-0.600, 3.519e-6
-0.601, 3.662e-6
-0.602, 3.715e-6
-0.603, 3.751e-6
-0.604, 3.786e-6
-0.605, 3.822e-6
-0.606, 3.861e-6
-0.607, 3.894e-6
-0.608, 3.925e-6
-0.609, 3.956e-6
-0.610, 3.990e-6
-0.611, 4.027e-6
-0.612, 4.059e-6
-0.613, 4.087e-6
-0.614, 4.120e-6
-0.615, 4.154e-6
-0.616, 4.186e-6
-0.617, 4.219e-6
-0.618, 4.245e-6
-0.619, 4.276e-6
-0.620, 4.309e-6
-0.621, 4.342e-6
-0.622, 4.374e-6
-0.623, 4.403e-6
-0.624, 4.432e-6
-0.625, 4.465e-6
-0.626, 4.502e-6
-0.627, 4.533e-6
-0.628, 4.562e-6
-0.629, 4.592e-6
-0.630, 4.622e-6
-0.631, 4.657e-6
-0.632, 4.687e-6
-0.633, 4.716e-6
-0.634, 4.744e-6
-0.635, 4.775e-6
-0.636, 4.809e-6
-0.637, 4.839e-6
-0.638, 4.866e-6
-0.639, 4.893e-6
-0.640, 4.924e-6
-0.641, 4.958e-6
-0.642, 4.987e-6
-0.643, 5.014e-6
-0.644, 5.042e-6
-0.645, 5.072e-6
-0.646, 5.105e-6
-0.647, 5.132e-6
-0.648, 5.157e-6
-0.649, 5.185e-6
-0.650, 5.213e-6
-0.651, 5.244e-6
-0.652, 5.274e-6
-0.653, 5.297e-6
-0.654, 5.323e-6
-0.655, 5.351e-6
-0.656, 5.381e-6
-0.657, 5.408e-6
-0.658, 5.428e-6
-0.659, 5.456e-6
-0.660, 5.482e-6
-0.661, 5.510e-6
-0.662, 5.537e-6
-0.663, 5.559e-6
-0.664, 5.583e-6
-0.665, 5.608e-6
-0.666, 5.638e-6
-0.667, 5.660e-6
-0.668, 5.681e-6
-0.669, 5.702e-6
-0.670, 5.727e-6
-0.671, 5.753e-6
-0.672, 5.776e-6
-0.673, 5.797e-6
-0.674, 5.816e-6
-0.675, 5.840e-6
-0.676, 5.864e-6
-0.677, 5.884e-6
-0.678, 5.901e-6
-0.679, 5.920e-6
-0.680, 5.938e-6
-0.681, 5.961e-6
-0.682, 5.981e-6
-0.683, 5.997e-6
-0.684, 6.015e-6
-0.685, 6.034e-6
-0.686, 6.056e-6
-0.687, 6.072e-6
-0.688, 6.087e-6
-0.689, 6.104e-6
-0.690, 6.121e-6
-0.691, 6.140e-6
-0.692, 6.157e-6
-0.693, 6.169e-6
-0.694, 6.183e-6
-0.695, 6.196e-6
-0.696, 6.213e-6
-0.697, 6.228e-6
-0.698, 6.237e-6
-0.699, 6.249e-6
-0.700, 6.264e-6
-0.701, 6.279e-6
-0.702, 6.291e-6
-0.703, 6.301e-6
-0.704, 6.310e-6
-0.705, 6.323e-6
-0.706, 6.337e-6
-0.707, 6.348e-6
-0.708, 6.356e-6
-0.709, 6.363e-6
-0.710, 6.373e-6
-0.711, 6.387e-6
-0.712, 6.396e-6
-0.713, 6.402e-6
-0.714, 6.407e-6
-0.715, 6.416e-6
-0.716, 6.427e-6
-0.717, 6.434e-6
-0.718, 6.438e-6
-0.719, 6.442e-6
-0.720, 6.448e-6
-0.721, 6.458e-6
-0.722, 6.462e-6
-0.723, 6.465e-6
-0.724, 6.468e-6
-0.725, 6.471e-6
-0.726, 6.479e-6
-0.727, 6.482e-6
-0.728, 6.482e-6
-0.729, 6.485e-6
-0.730, 6.487e-6
-0.731, 6.491e-6
-0.732, 6.496e-6
-0.733, 6.493e-6
-0.734, 6.494e-6
-0.735, 6.494e-6
-0.736, 6.498e-6
-0.737, 6.501e-6
-0.738, 6.496e-6
-0.739, 6.494e-6
-0.740, 6.494e-6
-0.741, 6.496e-6
-0.742, 6.497e-6
-0.743, 6.493e-6
-0.744, 6.489e-6
-0.745, 6.489e-6
-0.746, 6.488e-6
-0.747, 6.487e-6
-0.748, 6.481e-6
-0.749, 6.477e-6
-0.750, 6.475e-6
-0.751, 6.474e-6
-0.752, 6.472e-6
-0.753, 6.466e-6
-0.754, 6.458e-6
-0.755, 6.455e-6
-0.756, 6.454e-6
-0.757, 6.450e-6
-0.758, 6.443e-6
-0.759, 6.436e-6
-0.760, 6.431e-6
-0.761, 6.430e-6
-0.762, 6.425e-6
-0.763, 6.416e-6
-0.764, 6.407e-6
-0.765, 6.402e-6
-0.766, 6.398e-6
-0.767, 6.394e-6
-0.768, 6.387e-6
-0.769, 6.378e-6
-0.770, 6.368e-6
-0.771, 6.366e-6
-0.772, 6.361e-6
-0.773, 6.350e-6
-0.774, 6.342e-6
-0.775, 6.333e-6
-0.776, 6.330e-6
-0.777, 6.323e-6
-0.778, 6.313e-6
-0.779, 6.303e-6
-0.780, 6.294e-6
-0.781, 6.290e-6
-0.782, 6.284e-6
-0.783, 6.273e-6
-0.784, 6.262e-6
-0.785, 6.254e-6
-0.786, 6.248e-6
-0.787, 6.242e-6
-0.788, 6.233e-6
-0.789, 6.221e-6
-0.790, 6.213e-6
-0.791, 6.208e-6
-0.792, 6.201e-6
-0.793, 6.192e-6
-0.794, 6.181e-6
-0.795, 6.173e-6
-0.796, 6.167e-6
-0.797, 6.159e-6
-0.798, 6.150e-6
-0.799, 6.137e-6
-0.800, 6.130e-6
-0.801, 6.124e-6
-0.802, 6.115e-6
-0.803, 6.105e-6
-0.804, 6.093e-6
-0.805, 6.083e-6
-0.806, 6.079e-6
-0.807, 6.070e-6
-0.808, 6.060e-6
-0.809, 6.048e-6
-0.810, 6.039e-6
-0.811, 6.033e-6
-0.812, 6.026e-6
-0.813, 6.015e-6
-0.814, 6.004e-6
-0.815, 5.993e-6
-0.816, 5.988e-6
-0.817, 5.980e-6
-0.818, 5.969e-6
-0.819, 5.962e-6
-0.820, 5.954e-6
-0.821, 5.946e-6
-0.822, 5.940e-6
-0.823, 5.927e-6
-0.824, 5.917e-6
-0.825, 5.909e-6
-0.826, 5.905e-6
-0.827, 5.898e-6
-0.828, 5.888e-6
-0.829, 5.877e-6
-0.830, 5.868e-6
-0.831, 5.862e-6
-0.832, 5.857e-6
-0.833, 5.848e-6
-0.834, 5.836e-6
-0.835, 5.826e-6
-0.836, 5.820e-6
-0.837, 5.814e-6
-0.838, 5.805e-6
-0.839, 5.794e-6
-0.840, 5.784e-6
-0.841, 5.780e-6
-0.842, 5.773e-6
-0.843, 5.763e-6
-0.844, 5.754e-6
-0.845, 5.746e-6
-0.846, 5.741e-6
-0.847, 5.734e-6
-0.848, 5.724e-6
-0.849, 5.715e-6
-0.850, 5.705e-6
-0.851, 5.700e-6
-0.852, 5.696e-6
-0.853, 5.686e-6
-0.854, 5.677e-6
-0.855, 5.668e-6
-0.856, 5.663e-6
-0.857, 5.660e-6
-0.858, 5.650e-6
-0.859, 5.642e-6
-0.860, 5.634e-6
-0.861, 5.630e-6
-0.862, 5.627e-6
-0.863, 5.617e-6
-0.864, 5.608e-6
-0.865, 5.601e-6
-0.866, 5.597e-6
-0.867, 5.593e-6
-0.868, 5.584e-6
-0.869, 5.576e-6
-0.870, 5.569e-6
-0.871, 5.567e-6
-0.872, 5.562e-6
-0.873, 5.555e-6
-0.874, 5.546e-6
-0.875, 5.540e-6
-0.876, 5.534e-6
-0.877, 5.533e-6
-0.878, 5.525e-6
-0.879, 5.515e-6
-0.880, 5.509e-6
-0.881, 5.507e-6
-0.882, 5.502e-6
-0.883, 5.496e-6
-0.884, 5.489e-6
-0.885, 5.482e-6
-0.886, 5.480e-6
-0.887, 5.477e-6
-0.888, 5.471e-6
-0.889, 5.464e-6
-0.890, 5.457e-6
-0.891, 5.455e-6
-0.892, 5.455e-6
-0.893, 5.447e-6
-0.894, 5.441e-6
-0.895, 5.436e-6
-0.896, 5.435e-6
-0.897, 5.434e-6
-0.898, 5.427e-6
-0.899, 5.421e-6
-0.900, 5.416e-6
-0.901, 5.415e-6
-0.902, 5.414e-6
-0.903, 5.408e-6
-0.904, 5.402e-6
-0.905, 5.399e-6
-0.906, 5.397e-6
-0.907, 5.397e-6
-0.908, 5.394e-6
-0.909, 5.386e-6
-0.910, 5.384e-6
-0.911, 5.384e-6
-0.912, 5.383e-6
-0.913, 5.379e-6
-0.914, 5.375e-6
-0.915, 5.372e-6
-0.916, 5.372e-6
-0.917, 5.372e-6
-0.918, 5.369e-6
-0.919, 5.364e-6
-0.920, 5.361e-6
-0.921, 5.363e-6
-0.922, 5.365e-6
-0.923, 5.360e-6
-0.924, 5.358e-6
-0.925, 5.354e-6
-0.926, 5.357e-6
-0.927, 5.358e-6
-0.928, 5.355e-6
-0.929, 5.352e-6
-0.930, 5.350e-6
-0.931, 5.353e-6
-0.932, 5.356e-6
-0.933, 5.353e-6
-0.934, 5.351e-6
-0.935, 5.350e-6
-0.936, 5.352e-6
-0.937, 5.356e-6
-0.938, 5.354e-6
-0.939, 5.353e-6
-0.940, 5.353e-6
-0.941, 5.356e-6
-0.942, 5.360e-6
-0.943, 5.359e-6
-0.944, 5.357e-6
-0.945, 5.358e-6
-0.946, 5.360e-6
-0.947, 5.364e-6
-0.948, 5.365e-6
-0.949, 5.363e-6
-0.950, 5.363e-6
-0.951, 5.366e-6
-0.952, 5.373e-6
-0.953, 5.375e-6
-0.954, 5.373e-6
-0.955, 5.374e-6
-0.956, 5.379e-6
-0.957, 5.384e-6
-0.958, 5.386e-6
-0.959, 5.386e-6
-0.960, 5.387e-6
-0.961, 5.393e-6
-0.962, 5.398e-6
-0.963, 5.401e-6
-0.964, 5.402e-6
-0.965, 5.403e-6
-0.966, 5.409e-6
-0.967, 5.416e-6
-0.968, 5.419e-6
-0.969, 5.422e-6
-0.970, 5.425e-6
-0.971, 5.431e-6
-0.972, 5.439e-6
-0.973, 5.446e-6
-0.974, 5.448e-6
-0.975, 5.451e-6
-0.976, 5.457e-6
-0.977, 5.468e-6
-0.978, 5.472e-6
-0.979, 5.475e-6
-0.980, 5.480e-6
-0.981, 5.487e-6
-0.982, 5.496e-6
-0.983, 5.500e-6
-0.984, 5.506e-6
-0.985, 5.514e-6
-0.986, 5.521e-6
-0.987, 5.533e-6
-0.988, 5.539e-6
-0.989, 5.543e-6
-0.990, 5.550e-6
-0.991, 5.560e-6
-0.992, 5.571e-6
-0.993, 5.579e-6
-0.994, 5.585e-6
-0.995, 5.594e-6
-0.996, 5.603e-6
-0.997, 5.614e-6
-0.998, 5.624e-6
-0.999, 5.629e-6
-1.000, 5.638e-6
-1.001, 5.650e-6
-1.002, 5.662e-6
-1.003, 5.672e-6
-1.004, 5.679e-6
-1.005, 5.687e-6
-1.006, 5.701e-6
-1.007, 5.715e-6
-1.008, 5.725e-6
-1.009, 5.734e-6
-1.010, 5.743e-6
-1.011, 5.757e-6
-1.012, 5.771e-6
-1.013, 5.784e-6
-1.014, 5.793e-6
-1.015, 5.803e-6
-1.016, 5.816e-6
-1.017, 5.833e-6
-1.018, 5.845e-6
-1.019, 5.855e-6
-1.020, 5.866e-6
-1.021, 5.879e-6
-1.022, 5.894e-6
-1.023, 5.904e-6
-1.024, 5.916e-6
-1.025, 5.927e-6
-1.026, 5.939e-6
-1.027, 5.954e-6
-1.028, 5.968e-6
-1.029, 5.977e-6
-1.030, 5.990e-6
-1.031, 6.004e-6
-1.032, 6.021e-6
-1.033, 6.034e-6
-1.034, 6.043e-6
-1.035, 6.054e-6
-1.036, 6.069e-6
-1.037, 6.085e-6
-1.038, 6.098e-6
-1.039, 6.108e-6
-1.040, 6.119e-6
-1.041, 6.133e-6
-1.042, 6.148e-6
-1.043, 6.160e-6
-1.044, 6.170e-6
-1.045, 6.180e-6
-1.046, 6.192e-6
-1.047, 6.207e-6
-1.048, 6.219e-6
-1.049, 6.230e-6
-1.050, 6.240e-6
-1.051, 6.254e-6
-1.052, 6.269e-6
-1.053, 6.280e-6
-1.054, 6.291e-6
-1.055, 6.302e-6
-1.056, 6.315e-6
-1.057, 6.331e-6
-1.058, 6.342e-6
-1.059, 6.351e-6
-1.060, 6.362e-6
-1.061, 6.374e-6
-1.062, 6.392e-6
-1.063, 6.402e-6
-1.064, 6.412e-6
-1.065, 6.424e-6
-1.066, 6.435e-6
-1.067, 6.451e-6
-1.068, 6.462e-6
-1.069, 6.472e-6
-1.070, 6.481e-6
-1.071, 6.493e-6
-1.072, 6.510e-6
-1.073, 6.521e-6
-1.074, 6.532e-6
-1.075, 6.544e-6
-1.076, 6.558e-6
-1.077, 6.572e-6
-1.078, 6.585e-6
-1.079, 6.595e-6
-1.080, 6.605e-6
-1.081, 6.619e-6
-1.082, 6.636e-6
-1.083, 6.649e-6
-1.084, 6.659e-6
-1.085, 6.670e-6
-1.086, 6.684e-6
-1.087, 6.698e-6
-1.088, 6.712e-6
-1.089, 6.724e-6
-1.090, 6.737e-6
-1.091, 6.752e-6
-1.092, 6.768e-6
-1.093, 6.782e-6
-1.094, 6.796e-6
-1.095, 6.810e-6
-1.096, 6.826e-6
-1.097, 6.844e-6
-1.098, 6.858e-6
-1.099, 6.870e-6
-1.100, 6.885e-6
-1.101, 6.901e-6
-1.102, 6.920e-6
-1.103, 6.935e-6
-1.104, 6.950e-6
-1.105, 6.968e-6
-1.106, 6.984e-6
-1.107, 7.005e-6
-1.108, 7.021e-6
-1.109, 7.037e-6
-1.110, 7.053e-6
-1.111, 7.074e-6
-1.112, 7.096e-6
-1.113, 7.120e-6
-1.114, 7.139e-6
-1.115, 7.161e-6
-1.116, 7.181e-6
-1.117, 7.202e-6
-1.118, 7.222e-6
-1.119, 7.237e-6
-1.120, 7.257e-6
-1.121, 7.279e-6
-1.122, 7.304e-6
-1.123, 7.329e-6
-1.124, 7.348e-6
-1.125, 7.366e-6
-1.126, 7.391e-6
-1.127, 7.418e-6
-1.128, 7.440e-6
-1.129, 7.462e-6
-1.130, 7.485e-6
-1.131, 7.512e-6
-1.132, 7.540e-6
-1.133, 7.564e-6
-1.134, 7.588e-6
-1.135, 7.611e-6
-1.136, 7.643e-6
-1.137, 7.679e-6
-1.138, 7.701e-6
-1.139, 7.724e-6
-1.140, 7.750e-6
-1.141, 7.776e-6
-1.142, 7.807e-6
-1.143, 7.835e-6
-1.144, 7.861e-6
-1.145, 7.892e-6
-1.146, 7.920e-6
-1.147, 7.955e-6
-1.148, 7.985e-6
-1.149, 8.011e-6
-1.150, 8.041e-6
-1.151, 8.073e-6
-1.152, 8.107e-6
-1.153, 8.139e-6
-1.154, 8.169e-6
-1.155, 8.203e-6
-1.156, 8.239e-6
-1.157, 8.277e-6
-1.158, 8.313e-6
-1.159, 8.345e-6
-1.160, 8.379e-6
-1.161, 8.414e-6
-1.162, 8.450e-6
-1.163, 8.488e-6
-1.164, 8.523e-6
-1.165, 8.558e-6
-1.166, 8.595e-6
-1.167, 8.633e-6
-1.168, 8.669e-6
-1.169, 8.706e-6
-1.170, 8.744e-6
-1.171, 8.785e-6
-1.172, 8.825e-6
-1.173, 8.862e-6
-1.174, 8.897e-6
-1.175, 8.933e-6
-1.176, 8.975e-6
-1.177, 9.022e-6
-1.178, 9.066e-6
-1.179, 9.104e-6
-1.180, 9.142e-6
-1.181, 9.184e-6
-1.182, 9.234e-6
-1.183, 9.278e-6
-1.184, 9.319e-6
-1.185, 9.362e-6
-1.186, 9.403e-6
-1.187, 9.449e-6
-1.188, 9.495e-6
-1.189, 9.538e-6
-1.190, 9.582e-6
-1.191, 9.625e-6
-1.192, 9.673e-6
-1.193, 9.721e-6
-1.194, 9.767e-6
-1.195, 9.812e-6
-1.196, 9.859e-6
-1.197, 9.908e-6
-1.198, 9.959e-6
-1.199, 1.000e-5
-1.200, 1.005e-5
-1.201, 1.010e-5
-1.202, 1.015e-5
-1.203, 1.020e-5
-1.204, 1.025e-5
-1.205, 1.029e-5
-1.206, 1.034e-5
-1.207, 1.039e-5
-1.208, 1.045e-5
-1.209, 1.050e-5
-1.210, 1.054e-5
-1.211, 1.059e-5
-1.212, 1.065e-5
-1.213, 1.070e-5
-1.214, 1.075e-5
-1.215, 1.080e-5
-1.216, 1.086e-5
-1.217, 1.091e-5
-1.218, 1.097e-5
-1.219, 1.102e-5
-1.220, 1.107e-5
-1.221, 1.112e-5
-1.222, 1.118e-5
-1.223, 1.124e-5
-1.224, 1.129e-5
-1.225, 1.135e-5
-1.226, 1.140e-5
-1.227, 1.146e-5
-1.228, 1.152e-5
-1.229, 1.158e-5
-1.230, 1.163e-5
-1.231, 1.169e-5
-1.232, 1.175e-5
-1.233, 1.181e-5
-1.234, 1.186e-5
-1.235, 1.192e-5
-1.236, 1.198e-5
-1.237, 1.203e-5
-1.238, 1.208e-5
-1.239, 1.213e-5
-1.240, 1.218e-5
-1.241, 1.224e-5
-1.242, 1.230e-5
-1.243, 1.236e-5
-1.244, 1.242e-5
-1.245, 1.247e-5
-1.246, 1.254e-5
-1.247, 1.260e-5
-1.248, 1.266e-5
-1.249, 1.271e-5
-1.250, 1.277e-5
-1.251, 1.283e-5
-1.252, 1.289e-5
-1.253, 1.295e-5
-1.254, 1.301e-5
-1.255, 1.307e-5
-1.256, 1.313e-5
-1.257, 1.319e-5
-1.258, 1.325e-5
-1.259, 1.331e-5
-1.260, 1.337e-5
-1.261, 1.343e-5
-1.262, 1.349e-5
-1.263, 1.355e-5
-1.264, 1.361e-5
-1.265, 1.367e-5
-1.266, 1.372e-5
-1.267, 1.379e-5
-1.268, 1.385e-5
-1.269, 1.391e-5
-1.270, 1.397e-5
-1.271, 1.403e-5
-1.272, 1.409e-5
-1.273, 1.415e-5
-1.274, 1.421e-5
-1.275, 1.427e-5
-1.276, 1.433e-5
-1.277, 1.439e-5
-1.278, 1.445e-5
-1.279, 1.451e-5
-1.280, 1.458e-5
-1.281, 1.464e-5
-1.282, 1.470e-5
-1.283, 1.477e-5
-1.284, 1.482e-5
-1.285, 1.488e-5
-1.286, 1.494e-5
-1.287, 1.501e-5
-1.288, 1.507e-5
-1.289, 1.514e-5
-1.290, 1.520e-5
-1.291, 1.526e-5
-1.292, 1.532e-5
-1.293, 1.539e-5
-1.294, 1.543e-5
-1.295, 1.549e-5
-1.296, 1.554e-5
-1.297, 1.561e-5
-1.298, 1.567e-5
-1.299, 1.574e-5
-1.300, 1.580e-5
-1.301, 1.585e-5
-1.302, 1.592e-5
-1.303, 1.598e-5
-1.304, 1.604e-5
-1.305, 1.609e-5
-1.306, 1.615e-5
-1.307, 1.622e-5
-1.308, 1.628e-5
-1.309, 1.635e-5
-1.310, 1.640e-5
-1.311, 1.646e-5
-1.312, 1.652e-5
-1.313, 1.658e-5
-1.314, 1.664e-5
-1.315, 1.670e-5
-1.316, 1.676e-5
-1.317, 1.682e-5
-1.318, 1.689e-5
-1.319, 1.695e-5
-1.320, 1.701e-5
-1.321, 1.707e-5
-1.322, 1.713e-5
-1.323, 1.720e-5
-1.324, 1.726e-5
-1.325, 1.732e-5
-1.326, 1.738e-5
-1.327, 1.744e-5
-1.328, 1.750e-5
-1.329, 1.756e-5
-1.330, 1.762e-5
-1.331, 1.768e-5
-1.332, 1.774e-5
-1.333, 1.780e-5
-1.334, 1.787e-5
-1.335, 1.792e-5
-1.336, 1.798e-5
-1.337, 1.805e-5
-1.338, 1.811e-5
-1.339, 1.817e-5
-1.340, 1.823e-5
-1.341, 1.829e-5
-1.342, 1.836e-5
-1.343, 1.841e-5
-1.344, 1.847e-5
-1.345, 1.853e-5
-1.346, 1.859e-5
-1.347, 1.865e-5
-1.348, 1.872e-5
-1.349, 1.877e-5
-1.350, 1.883e-5
-1.351, 1.889e-5
-1.352, 1.896e-5
-1.353, 1.903e-5
-1.354, 1.908e-5
-1.355, 1.914e-5
-1.356, 1.920e-5
-1.357, 1.926e-5
-1.358, 1.933e-5
-1.359, 1.939e-5
-1.360, 1.945e-5
-1.361, 1.951e-5
-1.362, 1.956e-5
-1.363, 1.963e-5
-1.364, 1.969e-5
-1.365, 1.975e-5
-1.366, 1.981e-5
-1.367, 1.988e-5
-1.368, 1.995e-5
-1.369, 2.001e-5
-1.370, 2.007e-5
-1.371, 2.013e-5
-1.372, 2.020e-5
-1.373, 2.026e-5
-1.374, 2.032e-5
-1.375, 2.038e-5
-1.376, 2.044e-5
-1.377, 2.051e-5
-1.378, 2.058e-5
-1.379, 2.065e-5
-1.380, 2.070e-5
-1.381, 2.077e-5
-1.382, 2.084e-5
-1.383, 2.091e-5
-1.384, 2.097e-5
-1.385, 2.104e-5
-1.386, 2.110e-5
-1.387, 2.117e-5
-1.388, 2.124e-5
-1.389, 2.130e-5
-1.390, 2.137e-5
-1.391, 2.144e-5
-1.392, 2.151e-5
-1.393, 2.158e-5
-1.394, 2.164e-5
-1.395, 2.171e-5
-1.396, 2.177e-5
-1.397, 2.184e-5
-1.398, 2.192e-5
-1.399, 2.198e-5
-1.400, 2.204e-5
-1.401, 2.212e-5
-1.402, 2.219e-5
-1.403, 2.226e-5
-1.404, 2.233e-5
-1.405, 2.240e-5
-1.406, 2.247e-5
-1.407, 2.254e-5
-1.408, 2.262e-5
-1.409, 2.269e-5
-1.410, 2.276e-5
-1.411, 2.283e-5
-1.412, 2.291e-5
-1.413, 2.299e-5
-1.414, 2.307e-5
-1.415, 2.314e-5
-1.416, 2.322e-5
-1.417, 2.330e-5
-1.418, 2.338e-5
-1.419, 2.345e-5
-1.420, 2.353e-5
-1.421, 2.360e-5
-1.422, 2.368e-5
-1.423, 2.377e-5
-1.424, 2.385e-5
-1.425, 2.393e-5
-1.426, 2.400e-5
-1.427, 2.409e-5
-1.428, 2.418e-5
-1.429, 2.426e-5
-1.430, 2.434e-5
-1.431, 2.442e-5
-1.432, 2.451e-5
-1.433, 2.460e-5
-1.434, 2.469e-5
-1.435, 2.478e-5
-1.436, 2.486e-5
-1.437, 2.495e-5
-1.438, 2.505e-5
-1.439, 2.514e-5
-1.440, 2.522e-5
-1.441, 2.531e-5
-1.442, 2.539e-5
-1.443, 2.549e-5
-1.444, 2.558e-5
-1.445, 2.568e-5
-1.446, 2.578e-5
-1.447, 2.589e-5
-1.448, 2.599e-5
-1.449, 2.609e-5
-1.450, 2.618e-5
-1.451, 2.627e-5
-1.452, 2.638e-5
-1.453, 2.649e-5
-1.454, 2.659e-5
-1.455, 2.669e-5
-1.456, 2.680e-5
-1.457, 2.690e-5
-1.458, 2.702e-5
-1.459, 2.713e-5
-1.460, 2.724e-5
-1.461, 2.734e-5
-1.462, 2.745e-5
-1.463, 2.757e-5
-1.464, 2.769e-5
-1.465, 2.780e-5
-1.466, 2.791e-5
-1.467, 2.803e-5
-1.468, 2.816e-5
-1.469, 2.828e-5
-1.470, 2.840e-5
-1.471, 2.853e-5
-1.472, 2.866e-5
-1.473, 2.879e-5
-1.474, 2.892e-5
-1.475, 2.906e-5
-1.476, 2.918e-5
-1.477, 2.932e-5
-1.478, 2.947e-5
-1.479, 2.961e-5
-1.480, 2.974e-5
-1.481, 2.988e-5
-1.482, 3.002e-5
-1.483, 3.017e-5
-1.484, 3.032e-5
-1.485, 3.047e-5
-1.486, 3.062e-5
-1.487, 3.077e-5
-1.488, 3.093e-5
-1.489, 3.108e-5
-1.490, 3.124e-5
-1.491, 3.140e-5
-1.492, 3.156e-5
-1.493, 3.173e-5
-1.494, 3.190e-5
-1.495, 3.207e-5
-1.496, 3.224e-5
-1.497, 3.242e-5
-1.498, 3.260e-5
-1.499, 3.277e-5
-1.500, 3.294e-5
-1.501, 3.313e-5
-1.502, 3.331e-5
-1.503, 3.350e-5
-1.504, 3.369e-5
-1.505, 3.388e-5
-1.506, 3.407e-5
-1.507, 3.427e-5
-1.508, 3.447e-5
-1.509, 3.467e-5
-1.510, 3.487e-5
-1.511, 3.507e-5
-1.512, 3.529e-5
-1.513, 3.551e-5
-1.514, 3.573e-5
-1.515, 3.594e-5
-1.516, 3.616e-5
-1.517, 3.639e-5
-1.518, 3.663e-5
-1.519, 3.686e-5
-1.520, 3.710e-5
-1.521, 3.734e-5
-1.522, 3.758e-5
-1.523, 3.783e-5
-1.524, 3.811e-5
-1.525, 3.837e-5
-1.526, 3.861e-5
-1.527, 3.885e-5
-1.528, 3.911e-5
-1.529, 3.938e-5
-1.530, 3.965e-5
-1.531, 3.993e-5
-1.532, 4.021e-5
-1.533, 4.050e-5
-1.534, 4.080e-5
-1.535, 4.108e-5
-1.536, 4.138e-5
-1.537, 4.168e-5
-1.538, 4.197e-5
-1.539, 4.228e-5
-1.540, 4.258e-5
-1.541, 4.289e-5
-1.542, 4.321e-5
-1.543, 4.354e-5
-1.544, 4.386e-5
-1.545, 4.420e-5
-1.546, 4.454e-5
-1.547, 4.489e-5
-1.548, 4.525e-5
-1.549, 4.560e-5
-1.550, 4.597e-5
-1.551, 4.633e-5
-1.552, 4.671e-5
-1.553, 4.709e-5
-1.554, 4.748e-5
-1.555, 4.788e-5
-1.556, 4.828e-5
-1.557, 4.868e-5
-1.558, 4.910e-5
-1.559, 4.952e-5
-1.560, 4.994e-5
-1.561, 5.038e-5
-1.562, 5.081e-5
-1.563, 5.127e-5
-1.564, 5.172e-5
-1.565, 5.218e-5
-1.566, 5.265e-5
-1.567, 5.313e-5
-1.568, 5.362e-5
-1.569, 5.412e-5
-1.570, 5.461e-5
-1.571, 5.511e-5
-1.572, 5.564e-5
-1.573, 5.618e-5
-1.574, 5.672e-5
-1.575, 5.726e-5
-1.576, 5.782e-5
-1.577, 5.839e-5
-1.578, 5.897e-5
-1.579, 5.956e-5
-1.580, 6.014e-5
-1.581, 6.074e-5
-1.582, 6.135e-5
-1.583, 6.198e-5
-1.584, 6.261e-5
-1.585, 6.326e-5
-1.586, 6.394e-5
-1.587, 6.462e-5
-1.588, 6.531e-5
-1.589, 6.601e-5
-1.590, 6.672e-5
-1.591, 6.744e-5
-1.592, 6.818e-5
-1.593, 6.894e-5
-1.594, 6.970e-5
-1.595, 7.048e-5
-1.596, 7.128e-5
-1.597, 7.209e-5
-1.598, 7.292e-5
-1.599, 7.375e-5
-1.600, 7.460e-5
-1.601, 7.545e-5
-1.602, 7.633e-5
-1.603, 7.723e-5
-1.604, 7.815e-5
-1.605, 7.908e-5
-1.606, 8.003e-5
-1.607, 8.100e-5
-1.608, 8.200e-5
-1.609, 8.301e-5
-1.610, 8.404e-5
-1.611, 8.508e-5
-1.612, 8.614e-5
-1.613, 8.724e-5
-1.614, 8.836e-5
-1.615, 8.948e-5
-1.616, 9.063e-5
-1.617, 9.179e-5
-1.618, 9.298e-5
-1.619, 9.420e-5
-1.620, 9.544e-5
-1.621, 9.675e-5
-1.622, 9.800e-5
-1.623, 9.926e-5
-1.624, 1.006e-4
-1.625, 1.019e-4
-1.626, 1.033e-4
-1.627, 1.047e-4
-1.628, 1.062e-4
-1.629, 1.076e-4
-1.630, 1.091e-4
-1.631, 1.106e-4
-1.632, 1.122e-4
-1.633, 1.137e-4
-1.634, 1.153e-4
-1.635, 1.170e-4
-1.636, 1.186e-4
-1.637, 1.203e-4
-1.638, 1.221e-4
-1.639, 1.239e-4
-1.640, 1.256e-4
-1.641, 1.274e-4
-1.642, 1.292e-4
-1.643, 1.311e-4
-1.644, 1.330e-4
-1.645, 1.349e-4
-1.646, 1.369e-4
-1.647, 1.389e-4
-1.648, 1.409e-4
-1.649, 1.430e-4
-1.650, 1.451e-4
-1.651, 1.472e-4
-1.652, 1.494e-4
-1.653, 1.516e-4
-1.654, 1.539e-4
-1.655, 1.561e-4
-1.656, 1.584e-4
-1.657, 1.608e-4
-1.658, 1.632e-4
-1.659, 1.656e-4
-1.660, 1.680e-4
-1.661, 1.705e-4
-1.662, 1.730e-4
-1.663, 1.756e-4
-1.664, 1.782e-4
-1.665, 1.809e-4
-1.666, 1.836e-4
-1.667, 1.863e-4
-1.668, 1.891e-4
-1.669, 1.919e-4
-1.670, 1.948e-4
-1.671, 1.977e-4
-1.672, 2.006e-4
-1.673, 2.035e-4
-1.674, 2.066e-4
-1.675, 2.096e-4
-1.676, 2.127e-4
-1.677, 2.159e-4
-1.678, 2.190e-4
-1.679, 2.223e-4
-1.680, 2.255e-4
-1.681, 2.288e-4
-1.682, 2.322e-4
-1.683, 2.356e-4
-1.684, 2.390e-4
-1.685, 2.425e-4
-1.686, 2.461e-4
-1.687, 2.497e-4
-1.688, 2.534e-4
-1.689, 2.571e-4
-1.690, 2.609e-4
-1.691, 2.647e-4
-1.692, 2.685e-4
-1.693, 2.723e-4
-1.694, 2.762e-4
-1.695, 2.801e-4
-1.696, 2.841e-4
-1.697, 2.881e-4
-1.698, 2.922e-4
-1.699, 2.963e-4
-1.700, 3.004e-4
-1.701, 3.046e-4
-1.702, 3.087e-4
-1.703, 3.129e-4
-1.704, 3.172e-4
-1.705, 3.214e-4
-1.706, 3.257e-4
-1.707, 3.301e-4
-1.708, 3.346e-4
-1.709, 3.391e-4
-1.710, 3.436e-4
-1.711, 3.482e-4
-1.712, 3.527e-4
-1.713, 3.573e-4
-1.714, 3.620e-4
-1.715, 3.667e-4
-1.716, 3.713e-4
-1.717, 3.760e-4
-1.718, 3.808e-4
-1.719, 3.857e-4
-1.720, 3.907e-4
-1.721, 3.956e-4
-1.722, 4.006e-4
-1.723, 4.057e-4
-1.724, 4.108e-4
-1.725, 4.159e-4
-1.726, 4.211e-4
-1.727, 4.263e-4
-1.728, 4.315e-4
-1.729, 4.368e-4
-1.730, 4.423e-4
-1.731, 4.477e-4
-1.732, 4.531e-4
-1.733, 4.587e-4
-1.734, 4.641e-4
-1.735, 4.696e-4
-1.736, 4.751e-4
-1.737, 4.807e-4
-1.738, 4.865e-4
-1.739, 4.922e-4
-1.740, 4.982e-4
-1.741, 5.040e-4
-1.742, 5.098e-4
-1.743, 5.155e-4
-1.744, 5.213e-4
-1.745, 5.270e-4
-1.746, 5.328e-4
-1.747, 5.387e-4
-1.748, 5.448e-4
-1.749, 5.509e-4
-1.750, 5.572e-4
-1.751, 5.636e-4
-1.752, 5.699e-4
-1.753, 5.762e-4
-1.754, 5.826e-4
-1.755, 5.889e-4
-1.756, 5.952e-4
-1.757, 6.015e-4
-1.758, 6.078e-4
-1.759, 6.147e-4
-1.760, 6.213e-4
-1.761, 6.277e-4
-1.762, 6.342e-4
-1.763, 6.406e-4
-1.764, 6.472e-4
-1.765, 6.539e-4
-1.766, 6.606e-4
-1.767, 6.675e-4
-1.768, 6.744e-4
-1.769, 6.810e-4
-1.770, 6.878e-4
-1.771, 6.946e-4
-1.772, 7.015e-4
-1.773, 7.085e-4
-1.774, 7.158e-4
-1.775, 7.231e-4
-1.776, 7.302e-4
-1.777, 7.372e-4
-1.778, 7.444e-4
-1.779, 7.515e-4
-1.780, 7.586e-4
-1.781, 7.658e-4
-1.782, 7.733e-4
-1.783, 7.805e-4
-1.784, 7.875e-4
-1.785, 7.948e-4
-1.786, 8.024e-4
-1.787, 8.098e-4
-1.788, 8.174e-4
-1.789, 8.248e-4
-1.790, 8.323e-4
-1.791, 8.402e-4
-1.792, 8.478e-4
-1.793, 8.553e-4
-1.794, 8.628e-4
-1.795, 8.702e-4
-1.796, 8.776e-4
-1.797, 8.854e-4
-1.798, 8.936e-4
-1.799, 9.016e-4
-1.800, 9.093e-4
-1.801, 9.168e-4
-1.802, 9.244e-4
-1.803, 9.321e-4
-1.804, 9.401e-4
-1.805, 9.482e-4
-1.806, 9.562e-4
-1.807, 9.643e-4
-1.808, 9.723e-4
-1.809, 9.803e-4
-1.810, 9.882e-4
-1.811, 9.962e-4
-1.812, 1.004e-3
-1.813, 1.010e-3
-1.814, 1.011e-3
-1.815, 1.011e-3
-1.816, 1.011e-3
-1.817, 1.011e-3
-1.818, 1.011e-3
-1.819, 1.011e-3
-1.820, 1.011e-3
-1.821, 1.011e-3
-1.822, 1.011e-3
-1.823, 1.011e-3
-1.824, 1.011e-3
-1.825, 1.011e-3
-1.826, 1.011e-3
-1.827, 1.011e-3
-1.828, 1.011e-3
-1.829, 1.011e-3
-1.830, 1.011e-3
-1.831, 1.011e-3
-1.832, 1.011e-3
-1.833, 1.011e-3
-1.834, 1.011e-3
-1.835, 1.011e-3
-1.836, 1.011e-3
-1.837, 1.011e-3
-1.838, 1.011e-3
-1.839, 1.011e-3
-1.840, 1.011e-3
-1.841, 1.011e-3
-1.842, 1.011e-3
-1.843, 1.011e-3
-1.844, 1.011e-3
-1.845, 1.011e-3
-1.846, 1.011e-3
-1.847, 1.011e-3
-1.848, 1.011e-3
-1.849, 1.011e-3
-1.850, 1.011e-3
-1.851, 1.011e-3
-1.852, 1.011e-3
-1.853, 1.011e-3
-1.854, 1.011e-3
-1.855, 1.011e-3
-1.856, 1.011e-3
-1.857, 1.011e-3
-1.858, 1.011e-3
-1.859, 1.011e-3
-1.860, 1.011e-3
-1.861, 1.011e-3
-1.862, 1.011e-3
-1.863, 1.011e-3
-1.864, 1.011e-3
-1.865, 1.011e-3
-1.866, 1.011e-3
-1.867, 1.011e-3
-1.868, 1.011e-3
-1.869, 1.011e-3
-1.870, 1.011e-3
-1.871, 1.011e-3
-1.872, 1.011e-3
-1.873, 1.011e-3
-1.874, 1.011e-3
-1.875, 1.011e-3
-1.876, 1.011e-3
-1.877, 1.011e-3
-1.878, 1.011e-3
-1.879, 1.011e-3
-1.880, 1.011e-3
-1.881, 1.011e-3
-1.882, 1.011e-3
-1.883, 1.011e-3
-1.884, 1.011e-3
-1.885, 1.011e-3
-1.886, 1.011e-3
-1.887, 1.011e-3
-1.888, 1.011e-3
-1.889, 1.011e-3
-1.890, 1.011e-3
-1.891, 1.011e-3
-1.892, 1.011e-3
-1.893, 1.011e-3
-1.894, 1.011e-3
-1.895, 1.011e-3
-1.896, 1.011e-3
-1.897, 1.011e-3
-1.898, 1.011e-3
-1.899, 1.011e-3
-1.900, 1.011e-3
-1.901, 1.011e-3
-1.902, 1.011e-3
-1.903, 1.011e-3
-1.904, 1.011e-3
-1.905, 1.011e-3
-1.906, 1.011e-3
-1.907, 1.011e-3
-1.908, 1.011e-3
-1.909, 1.011e-3
-1.910, 1.011e-3
-1.911, 1.011e-3
-1.912, 1.011e-3
-1.913, 1.011e-3
-1.914, 1.011e-3
-1.915, 1.011e-3
-1.916, 1.011e-3
-1.917, 1.011e-3
-1.918, 1.011e-3
-1.919, 1.011e-3
-1.920, 1.011e-3
-1.921, 1.011e-3
-1.922, 1.011e-3
-1.923, 1.011e-3
-1.924, 1.011e-3
-1.925, 1.011e-3
-1.926, 1.011e-3
-1.927, 1.011e-3
-1.928, 1.011e-3
-1.929, 1.011e-3
-1.930, 1.011e-3
-1.931, 1.011e-3
-1.932, 1.011e-3
-1.933, 1.011e-3
-1.934, 1.011e-3
-1.935, 1.011e-3
-1.936, 1.011e-3
-1.937, 1.011e-3
-1.938, 1.011e-3
-1.939, 1.011e-3
-1.940, 1.011e-3
-1.941, 1.011e-3
-1.942, 1.011e-3
-1.943, 1.011e-3
-1.944, 1.011e-3
-1.945, 1.011e-3
-1.946, 1.011e-3
-1.947, 1.011e-3
-1.948, 1.011e-3
-1.949, 1.011e-3
-1.950, 1.011e-3
-1.951, 1.011e-3
-1.952, 1.011e-3
-1.953, 1.011e-3
-1.954, 1.011e-3
-1.955, 1.011e-3
-1.956, 1.011e-3
-1.957, 1.011e-3
-1.958, 1.011e-3
-1.959, 1.011e-3
-1.960, 1.011e-3
-1.961, 1.011e-3
-1.962, 1.011e-3
-1.963, 1.011e-3
-1.964, 1.011e-3
-1.965, 1.011e-3
-1.966, 1.011e-3
-1.967, 1.011e-3
-1.968, 1.011e-3
-1.969, 1.011e-3
-1.970, 1.011e-3
-1.971, 1.011e-3
-1.972, 1.011e-3
-1.973, 1.011e-3
-1.974, 1.011e-3
-1.975, 1.011e-3
-1.976, 1.011e-3
-1.977, 1.011e-3
-1.978, 1.011e-3
-1.979, 1.011e-3
-1.980, 1.011e-3
-1.981, 1.011e-3
-1.982, 1.011e-3
-1.983, 1.011e-3
-1.984, 1.011e-3
-1.985, 1.011e-3
-1.986, 1.011e-3
-1.987, 1.011e-3
-1.988, 1.011e-3
-1.989, 1.011e-3
-1.990, 1.011e-3
-1.991, 1.011e-3
-1.992, 1.011e-3
-1.993, 1.011e-3
-1.994, 1.011e-3
-1.995, 1.011e-3
-1.996, 1.011e-3
-1.997, 1.011e-3
-1.998, 1.011e-3
-1.999, 1.011e-3
-2.000, 1.011e-3
-2.001, 1.011e-3
-2.002, 1.011e-3
-2.003, 1.011e-3
-2.004, 1.011e-3
-2.005, 1.011e-3
-2.006, 1.011e-3
-2.007, 1.011e-3
-2.008, 1.011e-3
-2.009, 1.011e-3
-2.010, 1.011e-3
-2.011, 1.011e-3
-2.012, 1.011e-3
-2.013, 1.011e-3
-2.014, 1.011e-3
-2.015, 1.011e-3
-2.016, 1.011e-3
-2.017, 1.011e-3
-2.018, 1.011e-3
-2.019, 1.011e-3
-2.020, 1.011e-3
-2.021, 1.011e-3
-2.022, 1.011e-3
-2.023, 1.011e-3
-2.024, 1.011e-3
-2.025, 1.011e-3
-2.026, 1.011e-3
-2.027, 1.011e-3
-2.028, 1.011e-3
-2.029, 1.011e-3
-2.030, 1.011e-3
-2.031, 1.011e-3
-2.032, 1.011e-3
-2.033, 1.011e-3
-2.034, 1.011e-3
-2.035, 1.011e-3
-2.036, 1.011e-3
-2.037, 1.011e-3
-2.038, 1.011e-3
-2.039, 1.011e-3
-2.040, 1.011e-3
-2.041, 1.011e-3
-2.042, 1.011e-3
-2.043, 1.011e-3
-2.044, 1.011e-3
-2.045, 1.011e-3
-2.046, 1.011e-3
-2.047, 1.011e-3
-2.048, 1.011e-3
-2.049, 1.011e-3
-2.050, 1.011e-3
-2.051, 1.011e-3
-2.052, 1.011e-3
-2.053, 1.011e-3
-2.054, 1.011e-3
-2.055, 1.011e-3
-2.056, 1.011e-3
-2.057, 1.011e-3
-2.058, 1.011e-3
-2.059, 1.011e-3
-2.060, 1.011e-3
-2.061, 1.011e-3
-2.062, 1.011e-3
-2.063, 1.011e-3
-2.064, 1.011e-3
-2.065, 1.011e-3
-2.066, 1.011e-3
-2.067, 1.011e-3
-2.068, 1.011e-3
-2.069, 1.011e-3
-2.070, 1.011e-3
-2.071, 1.011e-3
-2.072, 1.011e-3
-2.073, 1.011e-3
-2.074, 1.011e-3
-2.075, 1.011e-3
-2.076, 1.011e-3
-2.077, 1.011e-3
-2.078, 1.011e-3
-2.079, 1.011e-3
-2.080, 1.011e-3
-2.081, 1.011e-3
-2.082, 1.011e-3
-2.083, 1.011e-3
-2.084, 1.011e-3
-2.085, 1.011e-3
-2.086, 1.011e-3
-2.087, 1.011e-3
-2.088, 1.011e-3
-2.089, 1.011e-3
-2.090, 1.011e-3
-2.091, 1.011e-3
-2.092, 1.011e-3
-2.093, 1.011e-3
-2.094, 1.011e-3
-2.095, 1.011e-3
-2.096, 1.011e-3
-2.097, 1.011e-3
-2.098, 1.011e-3
-2.099, 1.011e-3
