Dec. 26, 2024   16:36:23
Cyclic Voltammetry
File: c:/users/guazh/data/banditlqround7_x0exp136_r20/2024-12-24-exp749\exp749-2024-12-26t16_26_20-h2koh\exp749_cv_sr_100mvs_efin_-1600mv.bin
Data Source:  Experiment
Instrument Model:  CHI760E
Header: CV ran at 100 mVs
Note: 

Init E (V) = -1
High E (V) = -1
Low E (V) = -1.6
Final E (V) = -1
Init P/N = N
Scan Rate (V/s) = 0.1
Segment = 3
Sample Interval (V) = 0.001
Quiet Time (sec) = 2
Sensitivity (A/V) = 0.01
Comp R (ohm) = 1.5

Results:

Channel 1:
Segment 1:
Ep = -1.217V
ip = 1.914e-5A
Ah = 1.425e-5C

Segment 2:

Segment 3:

Potential/V, Current/A

-1.000, -3.769e-7
-1.001, 7.695e-8
-1.002, 2.593e-6
-1.003, 2.415e-6
-1.004, 2.770e-6
-1.005, 4.536e-6
-1.006, 3.461e-6
-1.007, 5.385e-6
-1.008, 4.980e-6
-1.009, 5.079e-6
-1.010, 6.766e-6
-1.011, 5.336e-6
-1.012, 7.279e-6
-1.013, 6.983e-6
-1.014, 6.894e-6
-1.015, 8.276e-6
-1.016, 7.141e-6
-1.017, 8.887e-6
-1.018, 8.562e-6
-1.019, 8.424e-6
-1.020, 9.746e-6
-1.021, 8.621e-6
-1.022, 1.034e-5
-1.023, 9.844e-6
-1.024, 9.953e-6
-1.025, 1.124e-5
-1.026, 1.004e-5
-1.027, 1.165e-5
-1.028, 1.120e-5
-1.029, 1.114e-5
-1.030, 1.253e-5
-1.031, 1.146e-5
-1.032, 1.289e-5
-1.033, 1.241e-5
-1.034, 1.262e-5
-1.035, 1.373e-5
-1.036, 1.267e-5
-1.037, 1.441e-5
-1.038, 1.375e-5
-1.039, 1.374e-5
-1.040, 1.489e-5
-1.041, 1.365e-5
-1.042, 1.557e-5
-1.043, 1.481e-5
-1.044, 1.496e-5
-1.045, 1.615e-5
-1.046, 1.487e-5
-1.047, 1.690e-5
-1.048, 1.602e-5
-1.049, 1.599e-5
-1.050, 1.755e-5
-1.051, 1.612e-5
-1.052, 1.796e-5
-1.053, 1.729e-5
-1.054, 1.739e-5
-1.055, 1.864e-5
-1.056, 1.724e-5
-1.057, 1.922e-5
-1.058, 1.845e-5
-1.059, 1.847e-5
-1.060, 1.988e-5
-1.061, 1.844e-5
-1.062, 2.035e-5
-1.063, 1.974e-5
-1.064, 1.966e-5
-1.065, 2.084e-5
-1.066, 1.969e-5
-1.067, 2.142e-5
-1.068, 2.077e-5
-1.069, 2.095e-5
-1.070, 2.212e-5
-1.071, 2.077e-5
-1.072, 2.259e-5
-1.073, 2.189e-5
-1.074, 2.222e-5
-1.075, 2.341e-5
-1.076, 2.187e-5
-1.077, 2.398e-5
-1.078, 2.309e-5
-1.079, 2.333e-5
-1.080, 2.450e-5
-1.081, 2.324e-5
-1.082, 2.524e-5
-1.083, 2.429e-5
-1.084, 2.442e-5
-1.085, 2.580e-5
-1.086, 2.431e-5
-1.087, 2.648e-5
-1.088, 2.552e-5
-1.089, 2.582e-5
-1.090, 2.709e-5
-1.091, 2.548e-5
-1.092, 2.759e-5
-1.093, 2.677e-5
-1.094, 2.712e-5
-1.095, 2.832e-5
-1.096, 2.697e-5
-1.097, 2.897e-5
-1.098, 2.821e-5
-1.099, 2.845e-5
-1.100, 2.970e-5
-1.101, 2.849e-5
-1.102, 3.039e-5
-1.103, 2.973e-5
-1.104, 3.000e-5
-1.105, 3.114e-5
-1.106, 3.007e-5
-1.107, 3.200e-5
-1.108, 3.114e-5
-1.109, 3.158e-5
-1.110, 3.278e-5
-1.111, 3.178e-5
-1.112, 3.373e-5
-1.113, 3.273e-5
-1.114, 3.356e-5
-1.115, 3.460e-5
-1.116, 3.334e-5
-1.117, 3.555e-5
-1.118, 3.480e-5
-1.119, 3.551e-5
-1.120, 3.660e-5
-1.121, 3.552e-5
-1.122, 3.759e-5
-1.123, 3.681e-5
-1.124, 3.729e-5
-1.125, 3.879e-5
-1.126, 3.748e-5
-1.127, 3.997e-5
-1.128, 3.910e-5
-1.129, 3.966e-5
-1.130, 4.087e-5
-1.131, 3.977e-5
-1.132, 4.207e-5
-1.133, 4.126e-5
-1.134, 4.206e-5
-1.135, 4.334e-5
-1.136, 4.223e-5
-1.137, 4.458e-5
-1.138, 4.383e-5
-1.139, 4.442e-5
-1.140, 4.586e-5
-1.141, 4.477e-5
-1.142, 4.709e-5
-1.143, 4.632e-5
-1.144, 4.694e-5
-1.145, 4.835e-5
-1.146, 4.738e-5
-1.147, 4.966e-5
-1.148, 4.894e-5
-1.149, 4.967e-5
-1.150, 5.088e-5
-1.151, 5.002e-5
-1.152, 5.241e-5
-1.153, 5.156e-5
-1.154, 5.234e-5
-1.155, 5.364e-5
-1.156, 5.260e-5
-1.157, 5.506e-5
-1.158, 5.407e-5
-1.159, 5.509e-5
-1.160, 5.622e-5
-1.161, 5.525e-5
-1.162, 5.778e-5
-1.163, 5.668e-5
-1.164, 5.760e-5
-1.165, 5.894e-5
-1.166, 5.777e-5
-1.167, 6.033e-5
-1.168, 5.923e-5
-1.169, 6.044e-5
-1.170, 6.162e-5
-1.171, 6.028e-5
-1.172, 6.274e-5
-1.173, 6.172e-5
-1.174, 6.272e-5
-1.175, 6.406e-5
-1.176, 6.259e-5
-1.177, 6.514e-5
-1.178, 6.433e-5
-1.179, 6.489e-5
-1.180, 6.632e-5
-1.181, 6.496e-5
-1.182, 6.744e-5
-1.183, 6.636e-5
-1.184, 6.711e-5
-1.185, 6.819e-5
-1.186, 6.699e-5
-1.187, 6.929e-5
-1.188, 6.830e-5
-1.189, 6.919e-5
-1.190, 7.005e-5
-1.191, 6.883e-5
-1.192, 7.124e-5
-1.193, 6.972e-5
-1.194, 7.079e-5
-1.195, 7.161e-5
-1.196, 7.033e-5
-1.197, 7.254e-5
-1.198, 7.106e-5
-1.199, 7.194e-5
-1.200, 7.292e-5
-1.201, 7.131e-5
-1.202, 7.380e-5
-1.203, 7.214e-5
-1.204, 7.308e-5
-1.205, 7.385e-5
-1.206, 7.220e-5
-1.207, 7.460e-5
-1.208, 7.287e-5
-1.209, 7.367e-5
-1.210, 7.454e-5
-1.211, 7.266e-5
-1.212, 7.494e-5
-1.213, 7.328e-5
-1.214, 7.395e-5
-1.215, 7.452e-5
-1.216, 7.276e-5
-1.217, 7.498e-5
-1.218, 7.330e-5
-1.219, 7.397e-5
-1.220, 7.441e-5
-1.221, 7.248e-5
-1.222, 7.467e-5
-1.223, 7.272e-5
-1.224, 7.341e-5
-1.225, 7.391e-5
-1.226, 7.193e-5
-1.227, 7.404e-5
-1.228, 7.227e-5
-1.229, 7.306e-5
-1.230, 7.330e-5
-1.231, 7.135e-5
-1.232, 7.326e-5
-1.233, 7.121e-5
-1.234, 7.201e-5
-1.235, 7.221e-5
-1.236, 7.035e-5
-1.237, 7.225e-5
-1.238, 7.014e-5
-1.239, 7.094e-5
-1.240, 7.118e-5
-1.241, 6.905e-5
-1.242, 7.126e-5
-1.243, 6.902e-5
-1.244, 6.983e-5
-1.245, 6.985e-5
-1.246, 6.780e-5
-1.247, 6.987e-5
-1.248, 6.772e-5
-1.249, 6.834e-5
-1.250, 6.866e-5
-1.251, 6.644e-5
-1.252, 6.851e-5
-1.253, 6.621e-5
-1.254, 6.686e-5
-1.255, 6.730e-5
-1.256, 6.517e-5
-1.257, 6.728e-5
-1.258, 6.502e-5
-1.259, 6.555e-5
-1.260, 6.579e-5
-1.261, 6.378e-5
-1.262, 6.571e-5
-1.263, 6.360e-5
-1.264, 6.423e-5
-1.265, 6.434e-5
-1.266, 6.234e-5
-1.267, 6.442e-5
-1.268, 6.225e-5
-1.269, 6.282e-5
-1.270, 6.303e-5
-1.271, 6.110e-5
-1.272, 6.304e-5
-1.273, 6.084e-5
-1.274, 6.160e-5
-1.275, 6.169e-5
-1.276, 5.970e-5
-1.277, 6.171e-5
-1.278, 5.952e-5
-1.279, 6.028e-5
-1.280, 6.048e-5
-1.281, 5.847e-5
-1.282, 6.060e-5
-1.283, 5.809e-5
-1.284, 5.902e-5
-1.285, 5.920e-5
-1.286, 5.718e-5
-1.287, 5.944e-5
-1.288, 5.700e-5
-1.289, 5.788e-5
-1.290, 5.799e-5
-1.291, 5.600e-5
-1.292, 5.828e-5
-1.293, 5.601e-5
-1.294, 5.699e-5
-1.295, 5.705e-5
-1.296, 5.493e-5
-1.297, 5.715e-5
-1.298, 5.524e-5
-1.299, 5.587e-5
-1.300, 5.615e-5
-1.301, 5.429e-5
-1.302, 5.643e-5
-1.303, 5.444e-5
-1.304, 5.526e-5
-1.305, 5.558e-5
-1.306, 5.376e-5
-1.307, 5.586e-5
-1.308, 5.377e-5
-1.309, 5.489e-5
-1.310, 5.504e-5
-1.311, 5.335e-5
-1.312, 5.548e-5
-1.313, 5.349e-5
-1.314, 5.461e-5
-1.315, 5.479e-5
-1.316, 5.303e-5
-1.317, 5.532e-5
-1.318, 5.339e-5
-1.319, 5.448e-5
-1.320, 5.466e-5
-1.321, 5.319e-5
-1.322, 5.555e-5
-1.323, 5.339e-5
-1.324, 5.459e-5
-1.325, 5.510e-5
-1.326, 5.344e-5
-1.327, 5.587e-5
-1.328, 5.402e-5
-1.329, 5.518e-5
-1.330, 5.583e-5
-1.331, 5.420e-5
-1.332, 5.670e-5
-1.333, 5.489e-5
-1.334, 5.598e-5
-1.335, 5.685e-5
-1.336, 5.509e-5
-1.337, 5.780e-5
-1.338, 5.615e-5
-1.339, 5.739e-5
-1.340, 5.796e-5
-1.341, 5.655e-5
-1.342, 5.916e-5
-1.343, 5.750e-5
-1.344, 5.883e-5
-1.345, 5.954e-5
-1.346, 5.817e-5
-1.347, 6.073e-5
-1.348, 5.928e-5
-1.349, 6.063e-5
-1.350, 6.122e-5
-1.351, 6.012e-5
-1.352, 6.263e-5
-1.353, 6.105e-5
-1.354, 6.258e-5
-1.355, 6.313e-5
-1.356, 6.206e-5
-1.357, 6.465e-5
-1.358, 6.297e-5
-1.359, 6.449e-5
-1.360, 6.518e-5
-1.361, 6.392e-5
-1.362, 6.664e-5
-1.363, 6.510e-5
-1.364, 6.638e-5
-1.365, 6.702e-5
-1.366, 6.576e-5
-1.367, 6.846e-5
-1.368, 6.700e-5
-1.369, 6.834e-5
-1.370, 6.909e-5
-1.371, 6.784e-5
-1.372, 7.039e-5
-1.373, 6.886e-5
-1.374, 7.015e-5
-1.375, 7.092e-5
-1.376, 6.974e-5
-1.377, 7.206e-5
-1.378, 7.071e-5
-1.379, 7.196e-5
-1.380, 7.255e-5
-1.381, 7.163e-5
-1.382, 7.399e-5
-1.383, 7.263e-5
-1.384, 7.379e-5
-1.385, 7.433e-5
-1.386, 7.325e-5
-1.387, 7.558e-5
-1.388, 7.431e-5
-1.389, 7.547e-5
-1.390, 7.595e-5
-1.391, 7.512e-5
-1.392, 7.717e-5
-1.393, 7.602e-5
-1.394, 7.736e-5
-1.395, 7.794e-5
-1.396, 7.702e-5
-1.397, 7.922e-5
-1.398, 7.808e-5
-1.399, 7.931e-5
-1.400, 7.977e-5
-1.401, 7.921e-5
-1.402, 8.152e-5
-1.403, 8.032e-5
-1.404, 8.169e-5
-1.405, 8.238e-5
-1.406, 8.180e-5
-1.407, 8.398e-5
-1.408, 8.322e-5
-1.409, 8.477e-5
-1.410, 8.564e-5
-1.411, 8.517e-5
-1.412, 8.769e-5
-1.413, 8.690e-5
-1.414, 8.855e-5
-1.415, 8.967e-5
-1.416, 8.945e-5
-1.417, 9.196e-5
-1.418, 9.159e-5
-1.419, 9.358e-5
-1.420, 9.475e-5
-1.421, 9.508e-5
-1.422, 9.775e-5
-1.423, 9.774e-5
-1.424, 9.983e-5
-1.425, 1.014e-4
-1.426, 1.020e-4
-1.427, 1.050e-4
-1.428, 1.055e-4
-1.429, 1.080e-4
-1.430, 1.097e-4
-1.431, 1.110e-4
-1.432, 1.143e-4
-1.433, 1.152e-4
-1.434, 1.185e-4
-1.435, 1.211e-4
-1.436, 1.229e-4
-1.437, 1.272e-4
-1.438, 1.290e-4
-1.439, 1.333e-4
-1.440, 1.374e-4
-1.441, 1.413e-4
-1.442, 1.479e-4
-1.443, 1.529e-4
-1.444, 1.613e-4
-1.445, 1.702e-4
-1.446, 1.802e-4
-1.447, 1.938e-4
-1.448, 2.040e-4
-1.449, 2.199e-4
-1.450, 2.399e-4
-1.451, 2.640e-4
-1.452, 2.944e-4
-1.453, 3.250e-4
-1.454, 3.569e-4
-1.455, 3.818e-4
-1.456, 4.039e-4
-1.457, 4.224e-4
-1.458, 4.340e-4
-1.459, 4.455e-4
-1.460, 4.558e-4
-1.461, 4.652e-4
-1.462, 4.740e-4
-1.463, 4.815e-4
-1.464, 4.917e-4
-1.465, 5.007e-4
-1.466, 5.101e-4
-1.467, 5.204e-4
-1.468, 5.294e-4
-1.469, 5.408e-4
-1.470, 5.495e-4
-1.471, 5.586e-4
-1.472, 5.711e-4
-1.473, 5.821e-4
-1.474, 5.941e-4
-1.475, 6.053e-4
-1.476, 6.173e-4
-1.477, 6.310e-4
-1.478, 6.428e-4
-1.479, 6.566e-4
-1.480, 6.688e-4
-1.481, 6.816e-4
-1.482, 6.960e-4
-1.483, 7.092e-4
-1.484, 7.246e-4
-1.485, 7.393e-4
-1.486, 7.548e-4
-1.487, 7.708e-4
-1.488, 7.840e-4
-1.489, 8.028e-4
-1.490, 8.212e-4
-1.491, 8.393e-4
-1.492, 8.592e-4
-1.493, 8.758e-4
-1.494, 8.975e-4
-1.495, 9.173e-4
-1.496, 9.385e-4
-1.497, 9.602e-4
-1.498, 9.774e-4
-1.499, 1.001e-3
-1.500, 1.019e-3
-1.501, 1.042e-3
-1.502, 1.067e-3
-1.503, 1.092e-3
-1.504, 1.115e-3
-1.505, 1.137e-3
-1.506, 1.157e-3
-1.507, 1.184e-3
-1.508, 1.211e-3
-1.509, 1.241e-3
-1.510, 1.264e-3
-1.511, 1.288e-3
-1.512, 1.317e-3
-1.513, 1.354e-3
-1.514, 1.387e-3
-1.515, 1.410e-3
-1.516, 1.438e-3
-1.517, 1.470e-3
-1.518, 1.496e-3
-1.519, 1.525e-3
-1.520, 1.555e-3
-1.521, 1.587e-3
-1.522, 1.621e-3
-1.523, 1.652e-3
-1.524, 1.689e-3
-1.525, 1.715e-3
-1.526, 1.749e-3
-1.527, 1.783e-3
-1.528, 1.815e-3
-1.529, 1.852e-3
-1.530, 1.889e-3
-1.531, 1.938e-3
-1.532, 1.973e-3
-1.533, 2.003e-3
-1.534, 2.041e-3
-1.535, 2.082e-3
-1.536, 2.130e-3
-1.537, 2.181e-3
-1.538, 2.214e-3
-1.539, 2.251e-3
-1.540, 2.292e-3
-1.541, 2.338e-3
-1.542, 2.391e-3
-1.543, 2.427e-3
-1.544, 2.471e-3
-1.545, 2.515e-3
-1.546, 2.559e-3
-1.547, 2.607e-3
-1.548, 2.651e-3
-1.549, 2.700e-3
-1.550, 2.752e-3
-1.551, 2.808e-3
-1.552, 2.864e-3
-1.553, 2.906e-3
-1.554, 2.957e-3
-1.555, 3.002e-3
-1.556, 3.048e-3
-1.557, 3.093e-3
-1.558, 3.145e-3
-1.559, 3.219e-3
-1.560, 3.269e-3
-1.561, 3.337e-3
-1.562, 3.391e-3
-1.563, 3.446e-3
-1.564, 3.505e-3
-1.565, 3.555e-3
-1.566, 3.610e-3
-1.567, 3.672e-3
-1.568, 3.724e-3
-1.569, 3.783e-3
-1.570, 3.832e-3
-1.571, 3.904e-3
-1.572, 3.975e-3
-1.573, 4.024e-3
-1.574, 4.086e-3
-1.575, 4.151e-3
-1.576, 4.231e-3
-1.577, 4.298e-3
-1.578, 4.360e-3
-1.579, 4.414e-3
-1.580, 4.463e-3
-1.581, 4.527e-3
-1.582, 4.589e-3
-1.583, 4.660e-3
-1.584, 4.743e-3
-1.585, 4.810e-3
-1.586, 4.890e-3
-1.587, 4.950e-3
-1.588, 5.009e-3
-1.589, 5.078e-3
-1.590, 5.129e-3
-1.591, 5.210e-3
-1.592, 5.285e-3
-1.593, 5.347e-3
-1.594, 5.428e-3
-1.595, 5.508e-3
-1.596, 5.585e-3
-1.597, 5.639e-3
-1.598, 5.698e-3
-1.599, 5.777e-3
-1.600, 5.782e-3
-1.599, 5.707e-3
-1.598, 5.633e-3
-1.597, 5.555e-3
-1.596, 5.494e-3
-1.595, 5.423e-3
-1.594, 5.353e-3
-1.593, 5.283e-3
-1.592, 5.221e-3
-1.591, 5.159e-3
-1.590, 5.090e-3
-1.589, 5.030e-3
-1.588, 4.970e-3
-1.587, 4.890e-3
-1.586, 4.824e-3
-1.585, 4.756e-3
-1.584, 4.689e-3
-1.583, 4.621e-3
-1.582, 4.566e-3
-1.581, 4.527e-3
-1.580, 4.463e-3
-1.579, 4.404e-3
-1.578, 4.339e-3
-1.577, 4.279e-3
-1.576, 4.228e-3
-1.575, 4.165e-3
-1.574, 4.098e-3
-1.573, 4.035e-3
-1.572, 3.970e-3
-1.571, 3.914e-3
-1.570, 3.849e-3
-1.569, 3.790e-3
-1.568, 3.740e-3
-1.567, 3.692e-3
-1.566, 3.637e-3
-1.565, 3.577e-3
-1.564, 3.530e-3
-1.563, 3.471e-3
-1.562, 3.410e-3
-1.561, 3.360e-3
-1.560, 3.302e-3
-1.559, 3.270e-3
-1.558, 3.220e-3
-1.557, 3.204e-3
-1.556, 3.155e-3
-1.555, 3.101e-3
-1.554, 3.048e-3
-1.553, 2.996e-3
-1.552, 2.942e-3
-1.551, 2.892e-3
-1.550, 2.832e-3
-1.549, 2.776e-3
-1.548, 2.731e-3
-1.547, 2.684e-3
-1.546, 2.654e-3
-1.545, 2.604e-3
-1.544, 2.560e-3
-1.543, 2.516e-3
-1.542, 2.468e-3
-1.541, 2.427e-3
-1.540, 2.378e-3
-1.539, 2.339e-3
-1.538, 2.293e-3
-1.537, 2.246e-3
-1.536, 2.208e-3
-1.535, 2.170e-3
-1.534, 2.131e-3
-1.533, 2.088e-3
-1.532, 2.048e-3
-1.531, 2.017e-3
-1.530, 1.973e-3
-1.529, 1.933e-3
-1.528, 1.891e-3
-1.527, 1.850e-3
-1.526, 1.820e-3
-1.525, 1.785e-3
-1.524, 1.750e-3
-1.523, 1.713e-3
-1.522, 1.673e-3
-1.521, 1.640e-3
-1.520, 1.606e-3
-1.519, 1.578e-3
-1.518, 1.536e-3
-1.517, 1.501e-3
-1.516, 1.471e-3
-1.515, 1.433e-3
-1.514, 1.403e-3
-1.513, 1.374e-3
-1.512, 1.343e-3
-1.511, 1.322e-3
-1.510, 1.295e-3
-1.509, 1.271e-3
-1.508, 1.242e-3
-1.507, 1.218e-3
-1.506, 1.189e-3
-1.505, 1.156e-3
-1.504, 1.127e-3
-1.503, 1.105e-3
-1.502, 1.087e-3
-1.501, 1.068e-3
-1.500, 1.042e-3
-1.499, 1.022e-3
-1.498, 1.003e-3
-1.497, 9.799e-4
-1.496, 9.616e-4
-1.495, 9.399e-4
-1.494, 9.194e-4
-1.493, 9.016e-4
-1.492, 8.787e-4
-1.491, 8.594e-4
-1.490, 8.389e-4
-1.489, 8.107e-4
-1.488, 7.879e-4
-1.487, 7.648e-4
-1.486, 7.509e-4
-1.485, 7.344e-4
-1.484, 7.203e-4
-1.483, 7.101e-4
-1.482, 6.978e-4
-1.481, 6.867e-4
-1.480, 6.749e-4
-1.479, 6.610e-4
-1.478, 6.475e-4
-1.477, 6.320e-4
-1.476, 6.175e-4
-1.475, 5.999e-4
-1.474, 5.834e-4
-1.473, 5.732e-4
-1.472, 5.538e-4
-1.471, 5.423e-4
-1.470, 5.272e-4
-1.469, 5.143e-4
-1.468, 5.020e-4
-1.467, 4.903e-4
-1.466, 4.803e-4
-1.465, 4.683e-4
-1.464, 4.566e-4
-1.463, 4.495e-4
-1.462, 4.405e-4
-1.461, 4.308e-4
-1.460, 4.199e-4
-1.459, 4.093e-4
-1.458, 4.002e-4
-1.457, 3.886e-4
-1.456, 3.813e-4
-1.455, 3.723e-4
-1.454, 3.629e-4
-1.453, 3.530e-4
-1.452, 3.496e-4
-1.451, 3.394e-4
-1.450, 3.301e-4
-1.449, 3.213e-4
-1.448, 3.135e-4
-1.447, 3.046e-4
-1.446, 2.988e-4
-1.445, 2.899e-4
-1.444, 2.817e-4
-1.443, 2.756e-4
-1.442, 2.676e-4
-1.441, 2.617e-4
-1.440, 2.551e-4
-1.439, 2.503e-4
-1.438, 2.459e-4
-1.437, 2.397e-4
-1.436, 2.347e-4
-1.435, 2.277e-4
-1.434, 2.216e-4
-1.433, 2.168e-4
-1.432, 2.100e-4
-1.431, 2.052e-4
-1.430, 1.989e-4
-1.429, 1.966e-4
-1.428, 1.945e-4
-1.427, 1.880e-4
-1.426, 1.841e-4
-1.425, 1.787e-4
-1.424, 1.747e-4
-1.423, 1.709e-4
-1.422, 1.650e-4
-1.421, 1.616e-4
-1.420, 1.566e-4
-1.419, 1.520e-4
-1.418, 1.485e-4
-1.417, 1.430e-4
-1.416, 1.401e-4
-1.415, 1.354e-4
-1.414, 1.312e-4
-1.413, 1.285e-4
-1.412, 1.238e-4
-1.411, 1.211e-4
-1.410, 1.174e-4
-1.409, 1.138e-4
-1.408, 1.115e-4
-1.407, 1.074e-4
-1.406, 1.053e-4
-1.405, 1.019e-4
-1.404, 9.852e-5
-1.403, 9.662e-5
-1.402, 9.244e-5
-1.401, 9.098e-5
-1.400, 8.768e-5
-1.399, 8.513e-5
-1.398, 8.319e-5
-1.397, 7.963e-5
-1.396, 7.844e-5
-1.395, 7.539e-5
-1.394, 7.281e-5
-1.393, 7.161e-5
-1.392, 6.835e-5
-1.391, 6.772e-5
-1.390, 6.488e-5
-1.389, 6.266e-5
-1.388, 6.169e-5
-1.387, 5.847e-5
-1.386, 5.805e-5
-1.385, 5.565e-5
-1.384, 5.355e-5
-1.383, 5.284e-5
-1.382, 4.991e-5
-1.381, 4.960e-5
-1.380, 4.733e-5
-1.379, 4.544e-5
-1.378, 4.542e-5
-1.377, 4.250e-5
-1.376, 4.244e-5
-1.375, 4.033e-5
-1.374, 3.879e-5
-1.373, 3.866e-5
-1.372, 3.575e-5
-1.371, 3.589e-5
-1.370, 3.407e-5
-1.369, 3.260e-5
-1.368, 3.262e-5
-1.367, 3.023e-5
-1.366, 3.049e-5
-1.365, 2.882e-5
-1.364, 2.767e-5
-1.363, 2.770e-5
-1.362, 2.518e-5
-1.361, 2.559e-5
-1.360, 2.425e-5
-1.359, 2.300e-5
-1.358, 2.314e-5
-1.357, 2.097e-5
-1.356, 2.169e-5
-1.355, 2.022e-5
-1.354, 1.923e-5
-1.353, 1.951e-5
-1.352, 1.731e-5
-1.351, 1.788e-5
-1.350, 1.628e-5
-1.349, 1.539e-5
-1.348, 1.599e-5
-1.347, 1.362e-5
-1.346, 1.434e-5
-1.345, 1.314e-5
-1.344, 1.233e-5
-1.343, 1.294e-5
-1.342, 1.063e-5
-1.341, 1.166e-5
-1.340, 1.034e-5
-1.339, 9.479e-6
-1.338, 1.002e-5
-1.337, 7.960e-6
-1.336, 8.808e-6
-1.335, 7.605e-6
-1.334, 6.884e-6
-1.333, 7.693e-6
-1.332, 5.523e-6
-1.331, 6.283e-6
-1.330, 5.118e-6
-1.329, 4.379e-6
-1.328, 5.237e-6
-1.327, 3.047e-6
-1.326, 4.112e-6
-1.325, 2.790e-6
-1.324, 2.336e-6
-1.323, 2.918e-6
-1.322, 9.353e-7
-1.321, 2.129e-6
-1.320, 9.649e-7
-1.319, 2.447e-7
-1.318, 8.268e-7
-1.317, -9.886e-7
-1.316, 1.362e-7
-1.315, -1.117e-6
-1.314, -1.748e-6
-1.313, -1.038e-6
-1.312, -3.129e-6
-1.311, -1.965e-6
-1.310, -3.297e-6
-1.309, -3.662e-6
-1.308, -2.794e-6
-1.307, -4.945e-6
-1.306, -3.761e-6
-1.305, -4.984e-6
-1.304, -5.418e-6
-1.303, -4.609e-6
-1.302, -6.721e-6
-1.301, -5.320e-6
-1.300, -6.612e-6
-1.299, -7.303e-6
-1.298, -6.454e-6
-1.297, -8.497e-6
-1.296, -7.135e-6
-1.295, -8.250e-6
-1.294, -8.980e-6
-1.293, -8.132e-6
-1.292, -1.014e-5
-1.291, -8.842e-6
-1.290, -1.003e-5
-1.289, -1.053e-5
-1.288, -9.809e-6
-1.287, -1.172e-5
-1.286, -1.044e-5
-1.285, -1.164e-5
-1.284, -1.214e-5
-1.283, -1.121e-5
-1.282, -1.341e-5
-1.281, -1.194e-5
-1.280, -1.349e-5
-1.279, -1.369e-5
-1.278, -1.307e-5
-1.277, -1.516e-5
-1.276, -1.355e-5
-1.275, -1.511e-5
-1.274, -1.516e-5
-1.273, -1.447e-5
-1.272, -1.655e-5
-1.271, -1.507e-5
-1.270, -1.647e-5
-1.269, -1.671e-5
-1.268, -1.594e-5
-1.267, -1.809e-5
-1.266, -1.640e-5
-1.265, -1.791e-5
-1.264, -1.816e-5
-1.263, -1.730e-5
-1.262, -1.968e-5
-1.261, -1.787e-5
-1.260, -1.926e-5
-1.259, -1.970e-5
-1.258, -1.882e-5
-1.257, -2.103e-5
-1.256, -1.947e-5
-1.255, -2.074e-5
-1.254, -2.116e-5
-1.253, -2.027e-5
-1.252, -2.238e-5
-1.251, -2.078e-5
-1.250, -2.210e-5
-1.249, -2.243e-5
-1.248, -2.169e-5
-1.247, -2.369e-5
-1.246, -2.220e-5
-1.245, -2.350e-5
-1.244, -2.387e-5
-1.243, -2.307e-5
-1.242, -2.490e-5
-1.241, -2.340e-5
-1.240, -2.471e-5
-1.239, -2.510e-5
-1.238, -2.448e-5
-1.237, -2.633e-5
-1.236, -2.473e-5
-1.235, -2.631e-5
-1.234, -2.657e-5
-1.233, -2.579e-5
-1.232, -2.779e-5
-1.231, -2.616e-5
-1.230, -2.776e-5
-1.229, -2.836e-5
-1.228, -2.748e-5
-1.227, -2.947e-5
-1.226, -2.775e-5
-1.225, -2.945e-5
-1.224, -2.956e-5
-1.223, -2.877e-5
-1.222, -3.095e-5
-1.221, -2.923e-5
-1.220, -3.093e-5
-1.219, -3.115e-5
-1.218, -3.051e-5
-1.217, -3.261e-5
-1.216, -3.087e-5
-1.215, -3.268e-5
-1.214, -3.285e-5
-1.213, -3.220e-5
-1.212, -3.431e-5
-1.211, -3.269e-5
-1.210, -3.456e-5
-1.209, -3.476e-5
-1.208, -3.412e-5
-1.207, -3.633e-5
-1.206, -3.470e-5
-1.205, -3.642e-5
-1.204, -3.679e-5
-1.203, -3.619e-5
-1.202, -3.829e-5
-1.201, -3.673e-5
-1.200, -3.842e-5
-1.199, -3.869e-5
-1.198, -3.833e-5
-1.197, -4.040e-5
-1.196, -3.879e-5
-1.195, -4.080e-5
-1.194, -4.087e-5
-1.193, -4.037e-5
-1.192, -4.247e-5
-1.191, -4.081e-5
-1.190, -4.290e-5
-1.189, -4.280e-5
-1.188, -4.247e-5
-1.187, -4.475e-5
-1.186, -4.296e-5
-1.185, -4.492e-5
-1.184, -4.498e-5
-1.183, -4.443e-5
-1.182, -4.677e-5
-1.181, -4.493e-5
-1.180, -4.688e-5
-1.179, -4.690e-5
-1.178, -4.661e-5
-1.177, -4.878e-5
-1.176, -4.684e-5
-1.175, -4.877e-5
-1.174, -4.909e-5
-1.173, -4.816e-5
-1.172, -5.031e-5
-1.171, -4.863e-5
-1.170, -5.041e-5
-1.169, -5.051e-5
-1.168, -4.972e-5
-1.167, -5.182e-5
-1.166, -5.013e-5
-1.165, -5.192e-5
-1.164, -5.189e-5
-1.163, -5.132e-5
-1.162, -5.332e-5
-1.161, -5.142e-5
-1.160, -5.320e-5
-1.159, -5.294e-5
-1.158, -5.265e-5
-1.157, -5.441e-5
-1.156, -5.259e-5
-1.155, -5.437e-5
-1.154, -5.388e-5
-1.153, -5.347e-5
-1.152, -5.537e-5
-1.151, -5.340e-5
-1.150, -5.533e-5
-1.149, -5.481e-5
-1.148, -5.436e-5
-1.147, -5.628e-5
-1.146, -5.425e-5
-1.145, -5.615e-5
-1.144, -5.566e-5
-1.143, -5.499e-5
-1.142, -5.694e-5
-1.141, -5.496e-5
-1.140, -5.649e-5
-1.139, -5.647e-5
-1.138, -5.572e-5
-1.137, -5.752e-5
-1.136, -5.555e-5
-1.135, -5.720e-5
-1.134, -5.703e-5
-1.133, -5.620e-5
-1.132, -5.790e-5
-1.131, -5.596e-5
-1.130, -5.756e-5
-1.129, -5.742e-5
-1.128, -5.667e-5
-1.127, -5.832e-5
-1.126, -5.667e-5
-1.125, -5.805e-5
-1.124, -5.782e-5
-1.123, -5.714e-5
-1.122, -5.898e-5
-1.121, -5.701e-5
-1.120, -5.830e-5
-1.119, -5.815e-5
-1.118, -5.744e-5
-1.117, -5.912e-5
-1.116, -5.719e-5
-1.115, -5.878e-5
-1.114, -5.847e-5
-1.113, -5.792e-5
-1.112, -5.950e-5
-1.111, -5.758e-5
-1.110, -5.908e-5
-1.109, -5.881e-5
-1.108, -5.828e-5
-1.107, -5.984e-5
-1.106, -5.786e-5
-1.105, -5.956e-5
-1.104, -5.911e-5
-1.103, -5.836e-5
-1.102, -6.023e-5
-1.101, -5.827e-5
-1.100, -5.978e-5
-1.099, -5.947e-5
-1.098, -5.888e-5
-1.097, -6.047e-5
-1.096, -5.863e-5
-1.095, -6.013e-5
-1.094, -5.993e-5
-1.093, -5.912e-5
-1.092, -6.076e-5
-1.091, -5.901e-5
-1.090, -6.035e-5
-1.089, -6.008e-5
-1.088, -5.931e-5
-1.087, -6.118e-5
-1.086, -5.925e-5
-1.085, -6.065e-5
-1.084, -6.032e-5
-1.083, -5.979e-5
-1.082, -6.123e-5
-1.081, -5.982e-5
-1.080, -6.102e-5
-1.079, -6.059e-5
-1.078, -6.015e-5
-1.077, -6.164e-5
-1.076, -6.002e-5
-1.075, -6.161e-5
-1.074, -6.103e-5
-1.073, -6.052e-5
-1.072, -6.207e-5
-1.071, -6.041e-5
-1.070, -6.185e-5
-1.069, -6.149e-5
-1.068, -6.089e-5
-1.067, -6.257e-5
-1.066, -6.059e-5
-1.065, -6.221e-5
-1.064, -6.192e-5
-1.063, -6.124e-5
-1.062, -6.313e-5
-1.061, -6.124e-5
-1.060, -6.257e-5
-1.059, -6.244e-5
-1.058, -6.186e-5
-1.057, -6.348e-5
-1.056, -6.160e-5
-1.055, -6.325e-5
-1.054, -6.294e-5
-1.053, -6.227e-5
-1.052, -6.384e-5
-1.051, -6.225e-5
-1.050, -6.371e-5
-1.049, -6.356e-5
-1.048, -6.298e-5
-1.047, -6.449e-5
-1.046, -6.287e-5
-1.045, -6.436e-5
-1.044, -6.404e-5
-1.043, -6.372e-5
-1.042, -6.527e-5
-1.041, -6.365e-5
-1.040, -6.491e-5
-1.039, -6.471e-5
-1.038, -6.426e-5
-1.037, -6.589e-5
-1.036, -6.420e-5
-1.035, -6.576e-5
-1.034, -6.559e-5
-1.033, -6.520e-5
-1.032, -6.675e-5
-1.031, -6.516e-5
-1.030, -6.693e-5
-1.029, -6.644e-5
-1.028, -6.611e-5
-1.027, -6.778e-5
-1.026, -6.596e-5
-1.025, -6.760e-5
-1.024, -6.750e-5
-1.023, -6.712e-5
-1.022, -6.884e-5
-1.021, -6.728e-5
-1.020, -6.874e-5
-1.019, -6.860e-5
-1.018, -6.823e-5
-1.017, -6.996e-5
-1.016, -6.832e-5
-1.015, -6.973e-5
-1.014, -6.972e-5
-1.013, -6.931e-5
-1.012, -7.103e-5
-1.011, -6.953e-5
-1.010, -7.109e-5
-1.009, -7.092e-5
-1.008, -7.065e-5
-1.007, -7.236e-5
-1.006, -7.087e-5
-1.005, -7.235e-5
-1.004, -7.243e-5
-1.003, -7.210e-5
-1.002, -7.377e-5
-1.001, -7.251e-5
