Sept. 9, 2024   06:31:15
Cyclic Voltammetry
File: c:/users/guazh/data/20240903_batch_252_500/2024-09-03-exp304\exp304-2024-09-09t06_09_18-arkoh\exp304_cv_sr_100mvs_efin_-1800mv.bin
Data Source:  Experiment
Instrument Model:  CHI760E
Header: CV ran at 100 mVs
Note: 

Init E (V) = -1
High E (V) = -1
Low E (V) = -1.8
Final E (V) = -1
Init P/N = N
Scan Rate (V/s) = 0.1
Segment = 3
Sample Interval (V) = 0.001
Quiet Time (sec) = 2
Sensitivity (A/V) = 0.01
Comp R (ohm) = 1.7

Results:

Channel 1:
Segment 1:

Segment 2:

Segment 3:

Potential/V, Current/A

-1.000, 2.940e-7
-1.001, 1.508e-6
-1.002, 2.021e-6
-1.003, 2.563e-6
-1.004, 2.534e-6
-1.005, 2.948e-6
-1.006, 2.997e-6
-1.007, 3.195e-6
-1.008, 3.520e-6
-1.009, 3.461e-6
-1.010, 3.727e-6
-1.011, 3.856e-6
-1.012, 3.915e-6
-1.013, 4.221e-6
-1.014, 4.023e-6
-1.015, 4.349e-6
-1.016, 4.290e-6
-1.017, 4.418e-6
-1.018, 4.763e-6
-1.019, 4.418e-6
-1.020, 4.734e-6
-1.021, 4.674e-6
-1.022, 4.645e-6
-1.023, 5.030e-6
-1.024, 4.911e-6
-1.025, 5.207e-6
-1.026, 5.079e-6
-1.027, 5.049e-6
-1.028, 5.483e-6
-1.029, 5.099e-6
-1.030, 5.444e-6
-1.031, 5.414e-6
-1.032, 5.474e-6
-1.033, 5.730e-6
-1.034, 5.582e-6
-1.035, 5.878e-6
-1.036, 5.691e-6
-1.037, 5.888e-6
-1.038, 6.085e-6
-1.039, 5.779e-6
-1.040, 5.937e-6
-1.041, 5.987e-6
-1.042, 6.194e-6
-1.043, 6.312e-6
-1.044, 6.026e-6
-1.045, 6.253e-6
-1.046, 6.145e-6
-1.047, 6.371e-6
-1.048, 6.421e-6
-1.049, 6.184e-6
-1.050, 6.529e-6
-1.051, 6.460e-6
-1.052, 6.539e-6
-1.053, 6.786e-6
-1.054, 6.440e-6
-1.055, 6.776e-6
-1.056, 6.667e-6
-1.057, 6.579e-6
-1.058, 7.003e-6
-1.059, 6.638e-6
-1.060, 6.904e-6
-1.061, 6.845e-6
-1.062, 6.894e-6
-1.063, 7.171e-6
-1.064, 6.894e-6
-1.065, 7.151e-6
-1.066, 7.052e-6
-1.067, 7.131e-6
-1.068, 7.259e-6
-1.069, 7.111e-6
-1.070, 7.269e-6
-1.071, 7.151e-6
-1.072, 7.289e-6
-1.073, 7.575e-6
-1.074, 7.210e-6
-1.075, 7.476e-6
-1.076, 7.388e-6
-1.077, 7.595e-6
-1.078, 7.703e-6
-1.079, 7.634e-6
-1.080, 7.664e-6
-1.081, 7.753e-6
-1.082, 7.841e-6
-1.083, 7.970e-6
-1.084, 7.763e-6
-1.085, 7.960e-6
-1.086, 7.822e-6
-1.087, 7.802e-6
-1.088, 8.078e-6
-1.089, 7.901e-6
-1.090, 7.911e-6
-1.091, 8.108e-6
-1.092, 8.256e-6
-1.093, 8.364e-6
-1.094, 7.980e-6
-1.095, 8.197e-6
-1.096, 8.157e-6
-1.097, 8.088e-6
-1.098, 8.532e-6
-1.099, 8.187e-6
-1.100, 8.364e-6
-1.101, 8.345e-6
-1.102, 8.512e-6
-1.103, 8.641e-6
-1.104, 8.384e-6
-1.105, 8.522e-6
-1.106, 8.512e-6
-1.107, 8.611e-6
-1.108, 8.700e-6
-1.109, 8.443e-6
-1.110, 8.739e-6
-1.111, 8.621e-6
-1.112, 8.680e-6
-1.113, 8.868e-6
-1.114, 8.729e-6
-1.115, 8.848e-6
-1.116, 8.838e-6
-1.117, 8.956e-6
-1.118, 9.094e-6
-1.119, 8.907e-6
-1.120, 9.114e-6
-1.121, 9.006e-6
-1.122, 9.075e-6
-1.123, 9.213e-6
-1.124, 9.055e-6
-1.125, 9.144e-6
-1.126, 9.223e-6
-1.127, 9.361e-6
-1.128, 9.400e-6
-1.129, 9.272e-6
-1.130, 9.420e-6
-1.131, 9.459e-6
-1.132, 9.627e-6
-1.133, 9.647e-6
-1.134, 9.420e-6
-1.135, 9.667e-6
-1.136, 9.598e-6
-1.137, 9.627e-6
-1.138, 9.854e-6
-1.139, 9.617e-6
-1.140, 9.864e-6
-1.141, 9.785e-6
-1.142, 9.923e-6
-1.143, 1.010e-5
-1.144, 9.963e-6
-1.145, 9.894e-6
-1.146, 1.000e-5
-1.147, 1.014e-5
-1.148, 1.030e-5
-1.149, 1.025e-5
-1.150, 1.035e-5
-1.151, 1.027e-5
-1.152, 1.032e-5
-1.153, 1.046e-5
-1.154, 1.017e-5
-1.155, 1.047e-5
-1.156, 1.038e-5
-1.157, 1.061e-5
-1.158, 1.068e-5
-1.159, 1.045e-5
-1.160, 1.063e-5
-1.161, 1.050e-5
-1.162, 1.074e-5
-1.163, 1.087e-5
-1.164, 1.071e-5
-1.165, 1.088e-5
-1.166, 1.094e-5
-1.167, 1.100e-5
-1.168, 1.110e-5
-1.169, 1.101e-5
-1.170, 1.109e-5
-1.171, 1.112e-5
-1.172, 1.116e-5
-1.173, 1.135e-5
-1.174, 1.128e-5
-1.175, 1.130e-5
-1.176, 1.138e-5
-1.177, 1.145e-5
-1.178, 1.166e-5
-1.179, 1.147e-5
-1.180, 1.171e-5
-1.181, 1.161e-5
-1.182, 1.173e-5
-1.183, 1.194e-5
-1.184, 1.181e-5
-1.185, 1.204e-5
-1.186, 1.197e-5
-1.187, 1.208e-5
-1.188, 1.212e-5
-1.189, 1.195e-5
-1.190, 1.215e-5
-1.191, 1.211e-5
-1.192, 1.226e-5
-1.193, 1.242e-5
-1.194, 1.226e-5
-1.195, 1.257e-5
-1.196, 1.237e-5
-1.197, 1.249e-5
-1.198, 1.272e-5
-1.199, 1.254e-5
-1.200, 1.278e-5
-1.201, 1.265e-5
-1.202, 1.285e-5
-1.203, 1.293e-5
-1.204, 1.289e-5
-1.205, 1.310e-5
-1.206, 1.300e-5
-1.207, 1.311e-5
-1.208, 1.327e-5
-1.209, 1.320e-5
-1.210, 1.348e-5
-1.211, 1.333e-5
-1.212, 1.355e-5
-1.213, 1.364e-5
-1.214, 1.342e-5
-1.215, 1.379e-5
-1.216, 1.373e-5
-1.217, 1.385e-5
-1.218, 1.385e-5
-1.219, 1.404e-5
-1.220, 1.417e-5
-1.221, 1.406e-5
-1.222, 1.423e-5
-1.223, 1.430e-5
-1.224, 1.425e-5
-1.225, 1.442e-5
-1.226, 1.445e-5
-1.227, 1.444e-5
-1.228, 1.470e-5
-1.229, 1.464e-5
-1.230, 1.489e-5
-1.231, 1.480e-5
-1.232, 1.486e-5
-1.233, 1.507e-5
-1.234, 1.505e-5
-1.235, 1.522e-5
-1.236, 1.516e-5
-1.237, 1.527e-5
-1.238, 1.537e-5
-1.239, 1.537e-5
-1.240, 1.560e-5
-1.241, 1.564e-5
-1.242, 1.579e-5
-1.243, 1.591e-5
-1.244, 1.596e-5
-1.245, 1.617e-5
-1.246, 1.588e-5
-1.247, 1.611e-5
-1.248, 1.624e-5
-1.249, 1.608e-5
-1.250, 1.654e-5
-1.251, 1.640e-5
-1.252, 1.653e-5
-1.253, 1.680e-5
-1.254, 1.650e-5
-1.255, 1.691e-5
-1.256, 1.675e-5
-1.257, 1.695e-5
-1.258, 1.723e-5
-1.259, 1.712e-5
-1.260, 1.732e-5
-1.261, 1.739e-5
-1.262, 1.747e-5
-1.263, 1.755e-5
-1.264, 1.748e-5
-1.265, 1.771e-5
-1.266, 1.765e-5
-1.267, 1.789e-5
-1.268, 1.805e-5
-1.269, 1.792e-5
-1.270, 1.802e-5
-1.271, 1.819e-5
-1.272, 1.814e-5
-1.273, 1.844e-5
-1.274, 1.841e-5
-1.275, 1.854e-5
-1.276, 1.858e-5
-1.277, 1.867e-5
-1.278, 1.897e-5
-1.279, 1.877e-5
-1.280, 1.918e-5
-1.281, 1.913e-5
-1.282, 1.917e-5
-1.283, 1.946e-5
-1.284, 1.936e-5
-1.285, 1.953e-5
-1.286, 1.951e-5
-1.287, 1.975e-5
-1.288, 1.987e-5
-1.289, 1.982e-5
-1.290, 2.005e-5
-1.291, 2.001e-5
-1.292, 2.019e-5
-1.293, 2.031e-5
-1.294, 2.023e-5
-1.295, 2.054e-5
-1.296, 2.052e-5
-1.297, 2.073e-5
-1.298, 2.087e-5
-1.299, 2.089e-5
-1.300, 2.108e-5
-1.301, 2.123e-5
-1.302, 2.141e-5
-1.303, 2.161e-5
-1.304, 2.147e-5
-1.305, 2.176e-5
-1.306, 2.185e-5
-1.307, 2.199e-5
-1.308, 2.216e-5
-1.309, 2.228e-5
-1.310, 2.248e-5
-1.311, 2.256e-5
-1.312, 2.263e-5
-1.313, 2.287e-5
-1.314, 2.294e-5
-1.315, 2.310e-5
-1.316, 2.318e-5
-1.317, 2.342e-5
-1.318, 2.377e-5
-1.319, 2.389e-5
-1.320, 2.407e-5
-1.321, 2.419e-5
-1.322, 2.451e-5
-1.323, 2.457e-5
-1.324, 2.472e-5
-1.325, 2.499e-5
-1.326, 2.512e-5
-1.327, 2.543e-5
-1.328, 2.564e-5
-1.329, 2.559e-5
-1.330, 2.608e-5
-1.331, 2.634e-5
-1.332, 2.666e-5
-1.333, 2.699e-5
-1.334, 2.703e-5
-1.335, 2.749e-5
-1.336, 2.750e-5
-1.337, 2.778e-5
-1.338, 2.813e-5
-1.339, 2.809e-5
-1.340, 2.836e-5
-1.341, 2.871e-5
-1.342, 2.905e-5
-1.343, 2.911e-5
-1.344, 2.941e-5
-1.345, 2.982e-5
-1.346, 2.997e-5
-1.347, 3.033e-5
-1.348, 3.077e-5
-1.349, 3.074e-5
-1.350, 3.134e-5
-1.351, 3.162e-5
-1.352, 3.198e-5
-1.353, 3.224e-5
-1.354, 3.241e-5
-1.355, 3.289e-5
-1.356, 3.330e-5
-1.357, 3.369e-5
-1.358, 3.411e-5
-1.359, 3.440e-5
-1.360, 3.481e-5
-1.361, 3.541e-5
-1.362, 3.573e-5
-1.363, 3.624e-5
-1.364, 3.645e-5
-1.365, 3.705e-5
-1.366, 3.746e-5
-1.367, 3.795e-5
-1.368, 3.838e-5
-1.369, 3.863e-5
-1.370, 3.915e-5
-1.371, 3.956e-5
-1.372, 4.005e-5
-1.373, 4.044e-5
-1.374, 4.079e-5
-1.375, 4.145e-5
-1.376, 4.194e-5
-1.377, 4.252e-5
-1.378, 4.319e-5
-1.379, 4.334e-5
-1.380, 4.407e-5
-1.381, 4.470e-5
-1.382, 4.520e-5
-1.383, 4.590e-5
-1.384, 4.629e-5
-1.385, 4.703e-5
-1.386, 4.759e-5
-1.387, 4.816e-5
-1.388, 4.902e-5
-1.389, 4.953e-5
-1.390, 5.031e-5
-1.391, 5.095e-5
-1.392, 5.149e-5
-1.393, 5.233e-5
-1.394, 5.281e-5
-1.395, 5.368e-5
-1.396, 5.450e-5
-1.397, 5.508e-5
-1.398, 5.587e-5
-1.399, 5.661e-5
-1.400, 5.743e-5
-1.401, 5.830e-5
-1.402, 5.907e-5
-1.403, 6.009e-5
-1.404, 6.078e-5
-1.405, 6.169e-5
-1.406, 6.267e-5
-1.407, 6.358e-5
-1.408, 6.467e-5
-1.409, 6.535e-5
-1.410, 6.638e-5
-1.411, 6.749e-5
-1.412, 6.826e-5
-1.413, 6.940e-5
-1.414, 7.027e-5
-1.415, 7.144e-5
-1.416, 7.260e-5
-1.417, 7.350e-5
-1.418, 7.473e-5
-1.419, 7.575e-5
-1.420, 7.691e-5
-1.421, 7.825e-5
-1.422, 7.925e-5
-1.423, 8.076e-5
-1.424, 8.172e-5
-1.425, 8.321e-5
-1.426, 8.452e-5
-1.427, 8.566e-5
-1.428, 8.708e-5
-1.429, 8.854e-5
-1.430, 8.993e-5
-1.431, 9.148e-5
-1.432, 9.287e-5
-1.433, 9.460e-5
-1.434, 9.618e-5
-1.435, 9.790e-5
-1.436, 9.933e-5
-1.437, 1.011e-4
-1.438, 1.029e-4
-1.439, 1.045e-4
-1.440, 1.061e-4
-1.441, 1.080e-4
-1.442, 1.097e-4
-1.443, 1.116e-4
-1.444, 1.136e-4
-1.445, 1.157e-4
-1.446, 1.178e-4
-1.447, 1.199e-4
-1.448, 1.222e-4
-1.449, 1.244e-4
-1.450, 1.265e-4
-1.451, 1.288e-4
-1.452, 1.312e-4
-1.453, 1.336e-4
-1.454, 1.358e-4
-1.455, 1.384e-4
-1.456, 1.411e-4
-1.457, 1.440e-4
-1.458, 1.471e-4
-1.459, 1.497e-4
-1.460, 1.525e-4
-1.461, 1.556e-4
-1.462, 1.587e-4
-1.463, 1.621e-4
-1.464, 1.649e-4
-1.465, 1.683e-4
-1.466, 1.714e-4
-1.467, 1.747e-4
-1.468, 1.778e-4
-1.469, 1.812e-4
-1.470, 1.849e-4
-1.471, 1.889e-4
-1.472, 1.927e-4
-1.473, 1.967e-4
-1.474, 2.006e-4
-1.475, 2.048e-4
-1.476, 2.090e-4
-1.477, 2.132e-4
-1.478, 2.177e-4
-1.479, 2.221e-4
-1.480, 2.266e-4
-1.481, 2.307e-4
-1.482, 2.350e-4
-1.483, 2.397e-4
-1.484, 2.440e-4
-1.485, 2.489e-4
-1.486, 2.540e-4
-1.487, 2.587e-4
-1.488, 2.640e-4
-1.489, 2.694e-4
-1.490, 2.750e-4
-1.491, 2.804e-4
-1.492, 2.855e-4
-1.493, 2.905e-4
-1.494, 2.945e-4
-1.495, 2.991e-4
-1.496, 3.038e-4
-1.497, 3.092e-4
-1.498, 3.147e-4
-1.499, 3.199e-4
-1.500, 3.251e-4
-1.501, 3.310e-4
-1.502, 3.369e-4
-1.503, 3.433e-4
-1.504, 3.491e-4
-1.505, 3.551e-4
-1.506, 3.610e-4
-1.507, 3.667e-4
-1.508, 3.722e-4
-1.509, 3.775e-4
-1.510, 3.837e-4
-1.511, 3.892e-4
-1.512, 3.938e-4
-1.513, 3.994e-4
-1.514, 4.046e-4
-1.515, 4.110e-4
-1.516, 4.173e-4
-1.517, 4.236e-4
-1.518, 4.301e-4
-1.519, 4.366e-4
-1.520, 4.443e-4
-1.521, 4.517e-4
-1.522, 4.579e-4
-1.523, 4.639e-4
-1.524, 4.691e-4
-1.525, 4.732e-4
-1.526, 4.768e-4
-1.527, 4.812e-4
-1.528, 4.862e-4
-1.529, 4.953e-4
-1.530, 4.998e-4
-1.531, 5.070e-4
-1.532, 5.145e-4
-1.533, 5.217e-4
-1.534, 5.279e-4
-1.535, 5.340e-4
-1.536, 5.415e-4
-1.537, 5.500e-4
-1.538, 5.576e-4
-1.539, 5.636e-4
-1.540, 5.713e-4
-1.541, 5.799e-4
-1.542, 5.854e-4
-1.543, 5.915e-4
-1.544, 5.976e-4
-1.545, 6.040e-4
-1.546, 6.104e-4
-1.547, 6.183e-4
-1.548, 6.240e-4
-1.549, 6.314e-4
-1.550, 6.410e-4
-1.551, 6.507e-4
-1.552, 6.576e-4
-1.553, 6.620e-4
-1.554, 6.633e-4
-1.555, 6.666e-4
-1.556, 6.720e-4
-1.557, 6.781e-4
-1.558, 6.843e-4
-1.559, 6.896e-4
-1.560, 6.966e-4
-1.561, 7.040e-4
-1.562, 7.120e-4
-1.563, 7.200e-4
-1.564, 7.282e-4
-1.565, 7.354e-4
-1.566, 7.431e-4
-1.567, 7.520e-4
-1.568, 7.584e-4
-1.569, 7.645e-4
-1.570, 7.704e-4
-1.571, 7.775e-4
-1.572, 7.855e-4
-1.573, 7.930e-4
-1.574, 8.007e-4
-1.575, 8.095e-4
-1.576, 8.170e-4
-1.577, 8.246e-4
-1.578, 8.319e-4
-1.579, 8.392e-4
-1.580, 8.500e-4
-1.581, 8.629e-4
-1.582, 8.715e-4
-1.583, 8.792e-4
-1.584, 8.853e-4
-1.585, 8.867e-4
-1.586, 8.874e-4
-1.587, 8.916e-4
-1.588, 8.989e-4
-1.589, 9.068e-4
-1.590, 9.155e-4
-1.591, 9.239e-4
-1.592, 9.331e-4
-1.593, 9.449e-4
-1.594, 9.551e-4
-1.595, 9.640e-4
-1.596, 9.741e-4
-1.597, 9.841e-4
-1.598, 9.915e-4
-1.599, 9.971e-4
-1.600, 1.004e-3
-1.601, 1.012e-3
-1.602, 1.021e-3
-1.603, 1.031e-3
-1.604, 1.043e-3
-1.605, 1.051e-3
-1.606, 1.061e-3
-1.607, 1.072e-3
-1.608, 1.080e-3
-1.609, 1.088e-3
-1.610, 1.098e-3
-1.611, 1.115e-3
-1.612, 1.128e-3
-1.613, 1.134e-3
-1.614, 1.143e-3
-1.615, 1.150e-3
-1.616, 1.154e-3
-1.617, 1.154e-3
-1.618, 1.157e-3
-1.619, 1.164e-3
-1.620, 1.175e-3
-1.621, 1.186e-3
-1.622, 1.199e-3
-1.623, 1.213e-3
-1.624, 1.239e-3
-1.625, 1.245e-3
-1.626, 1.255e-3
-1.627, 1.264e-3
-1.628, 1.271e-3
-1.629, 1.279e-3
-1.630, 1.286e-3
-1.631, 1.297e-3
-1.632, 1.313e-3
-1.633, 1.321e-3
-1.634, 1.333e-3
-1.635, 1.343e-3
-1.636, 1.355e-3
-1.637, 1.366e-3
-1.638, 1.377e-3
-1.639, 1.389e-3
-1.640, 1.409e-3
-1.641, 1.432e-3
-1.642, 1.442e-3
-1.643, 1.449e-3
-1.644, 1.450e-3
-1.645, 1.445e-3
-1.646, 1.454e-3
-1.647, 1.471e-3
-1.648, 1.476e-3
-1.649, 1.492e-3
-1.650, 1.502e-3
-1.651, 1.516e-3
-1.652, 1.532e-3
-1.653, 1.553e-3
-1.654, 1.572e-3
-1.655, 1.583e-3
-1.656, 1.596e-3
-1.657, 1.612e-3
-1.658, 1.641e-3
-1.659, 1.647e-3
-1.660, 1.657e-3
-1.661, 1.676e-3
-1.662, 1.693e-3
-1.663, 1.720e-3
-1.664, 1.735e-3
-1.665, 1.748e-3
-1.666, 1.767e-3
-1.667, 1.779e-3
-1.668, 1.792e-3
-1.669, 1.812e-3
-1.670, 1.839e-3
-1.671, 1.866e-3
-1.672, 1.889e-3
-1.673, 1.902e-3
-1.674, 1.903e-3
-1.675, 1.890e-3
-1.676, 1.894e-3
-1.677, 1.910e-3
-1.678, 1.917e-3
-1.679, 1.928e-3
-1.680, 1.940e-3
-1.681, 1.953e-3
-1.682, 1.979e-3
-1.683, 1.997e-3
-1.684, 2.025e-3
-1.685, 2.054e-3
-1.686, 2.069e-3
-1.687, 2.121e-3
-1.688, 2.130e-3
-1.689, 2.157e-3
-1.690, 2.163e-3
-1.691, 2.171e-3
-1.692, 2.186e-3
-1.693, 2.205e-3
-1.694, 2.236e-3
-1.695, 2.264e-3
-1.696, 2.284e-3
-1.697, 2.298e-3
-1.698, 2.346e-3
-1.699, 2.380e-3
-1.700, 2.397e-3
-1.701, 2.406e-3
-1.702, 2.405e-3
-1.703, 2.427e-3
-1.704, 2.441e-3
-1.705, 2.450e-3
-1.706, 2.439e-3
-1.707, 2.455e-3
-1.708, 2.469e-3
-1.709, 2.494e-3
-1.710, 2.504e-3
-1.711, 2.022e-3
-1.712, 5.597e-4
-1.713, 2.196e-4
-1.714, 6.994e-5
-1.715, 2.802e-5
-1.716, 1.271e-5
-1.717, 1.751e-3
-1.718, 2.734e-3
-1.719, 2.756e-3
-1.720, 2.778e-3
-1.721, 2.799e-3
-1.722, 2.847e-3
-1.723, 2.871e-3
-1.724, 2.913e-3
-1.725, 2.935e-3
-1.726, 2.969e-3
-1.727, 2.996e-3
-1.728, 3.037e-3
-1.729, 3.059e-3
-1.730, 3.094e-3
-1.731, 3.119e-3
-1.732, 3.125e-3
-1.733, 3.130e-3
-1.734, 3.118e-3
-1.735, 3.127e-3
-1.736, 3.161e-3
-1.737, 3.208e-3
-1.738, 3.249e-3
-1.739, 3.248e-3
-1.740, 3.243e-3
-1.741, 3.258e-3
-1.742, 3.278e-3
-1.743, 3.315e-3
-1.744, 2.454e-3
-1.745, 7.991e-4
-1.746, 2.896e-4
-1.747, 1.160e-4
-1.748, 7.405e-5
-1.749, 2.252e-5
-1.750, 3.362e-6
-1.751, 1.962e-3
-1.752, 3.697e-3
-1.753, 3.701e-3
-1.754, 3.705e-3
-1.755, 3.730e-3
-1.756, 3.754e-3
-1.757, 3.773e-3
-1.758, 3.800e-3
-1.759, 3.880e-3
-1.760, 3.922e-3
-1.761, 3.974e-3
-1.762, 4.032e-3
-1.763, 4.045e-3
-1.764, 4.061e-3
-1.765, 4.073e-3
-1.766, 4.105e-3
-1.767, 4.160e-3
-1.768, 4.247e-3
-1.769, 4.324e-3
-1.770, 4.367e-3
-1.771, 4.396e-3
-1.772, 4.513e-3
-1.773, 4.539e-3
-1.774, 4.497e-3
-1.775, 4.443e-3
-1.776, 4.447e-3
-1.777, 4.416e-3
-1.778, 2.379e-3
-1.779, 6.732e-4
-1.780, 1.470e-4
-1.781, 1.597e-5
-1.782, 4.161e-6
-1.783, 2.267e-6
-1.784, 1.991e-6
-1.785, 3.364e-3
-1.786, 4.956e-3
-1.787, 4.962e-3
-1.788, 5.019e-3
-1.789, 5.056e-3
-1.790, 5.122e-3
-1.791, 5.184e-3
-1.792, 5.211e-3
-1.793, 5.239e-3
-1.794, 5.286e-3
-1.795, 5.356e-3
-1.796, 5.436e-3
-1.797, 5.509e-3
-1.798, 5.588e-3
-1.799, 5.659e-3
-1.800, 5.664e-3
-1.799, 5.651e-3
-1.798, 5.605e-3
-1.797, 5.581e-3
-1.796, 5.537e-3
-1.795, 5.543e-3
-1.794, 5.524e-3
-1.793, 5.360e-3
-1.792, 5.206e-3
-1.791, 5.122e-3
-1.790, 2.992e-3
-1.789, 8.564e-4
-1.788, 1.437e-4
-1.787, 1.347e-5
-1.786, 2.465e-6
-1.785, 2.208e-6
-1.784, 2.287e-6
-1.783, 7.923e-4
-1.782, 5.020e-3
-1.781, 4.893e-3
-1.780, 4.868e-3
-1.779, 4.857e-3
-1.778, 4.792e-3
-1.777, 4.771e-3
-1.776, 4.761e-3
-1.775, 4.713e-3
-1.774, 4.667e-3
-1.773, 4.631e-3
-1.772, 4.605e-3
-1.771, 4.589e-3
-1.770, 4.555e-3
-1.769, 4.533e-3
-1.768, 4.524e-3
-1.767, 4.514e-3
-1.766, 4.498e-3
-1.765, 4.459e-3
-1.764, 4.389e-3
-1.763, 4.370e-3
-1.762, 4.333e-3
-1.761, 4.225e-3
-1.760, 4.089e-3
-1.759, 4.016e-3
-1.758, 4.000e-3
-1.757, 3.954e-3
-1.756, 3.673e-3
-1.755, 8.514e-4
-1.754, 2.157e-4
-1.753, 7.947e-5
-1.752, 3.645e-5
-1.751, 2.642e-6
-1.750, 2.740e-3
-1.749, 3.808e-3
-1.748, 3.740e-3
-1.747, 3.716e-3
-1.746, 3.686e-3
-1.745, 3.655e-3
-1.744, 3.628e-3
-1.743, 3.598e-3
-1.742, 3.588e-3
-1.741, 3.570e-3
-1.740, 3.549e-3
-1.739, 3.529e-3
-1.738, 3.527e-3
-1.737, 3.504e-3
-1.736, 3.447e-3
-1.735, 3.394e-3
-1.734, 3.356e-3
-1.733, 3.289e-3
-1.732, 3.250e-3
-1.731, 3.198e-3
-1.730, 3.191e-3
-1.729, 3.148e-3
-1.728, 3.094e-3
-1.727, 3.072e-3
-1.726, 3.039e-3
-1.725, 2.998e-3
-1.724, 1.944e-3
-1.723, 4.945e-4
-1.722, 1.577e-4
-1.721, 6.972e-5
-1.720, 1.201e-3
-1.719, 2.883e-3
-1.718, 2.839e-3
-1.717, 2.813e-3
-1.716, 2.783e-3
-1.715, 2.752e-3
-1.714, 2.721e-3
-1.713, 2.707e-3
-1.712, 2.698e-3
-1.711, 2.692e-3
-1.710, 2.656e-3
-1.709, 2.623e-3
-1.708, 2.636e-3
-1.707, 2.616e-3
-1.706, 2.577e-3
-1.705, 2.546e-3
-1.704, 2.513e-3
-1.703, 2.480e-3
-1.702, 2.463e-3
-1.701, 2.444e-3
-1.700, 2.416e-3
-1.699, 2.398e-3
-1.698, 2.388e-3
-1.697, 2.330e-3
-1.696, 2.273e-3
-1.695, 2.228e-3
-1.694, 2.198e-3
-1.693, 2.171e-3
-1.692, 2.148e-3
-1.691, 2.137e-3
-1.690, 2.110e-3
-1.689, 2.089e-3
-1.688, 2.069e-3
-1.687, 2.053e-3
-1.686, 2.019e-3
-1.685, 1.992e-3
-1.684, 1.972e-3
-1.683, 1.955e-3
-1.682, 1.937e-3
-1.681, 1.918e-3
-1.680, 1.895e-3
-1.679, 1.868e-3
-1.678, 1.845e-3
-1.677, 1.830e-3
-1.676, 1.814e-3
-1.675, 1.793e-3
-1.674, 1.782e-3
-1.673, 1.763e-3
-1.672, 1.740e-3
-1.671, 1.699e-3
-1.670, 1.676e-3
-1.669, 1.637e-3
-1.668, 1.596e-3
-1.667, 1.571e-3
-1.666, 1.560e-3
-1.665, 1.550e-3
-1.664, 1.527e-3
-1.663, 1.514e-3
-1.662, 1.501e-3
-1.661, 1.492e-3
-1.660, 1.476e-3
-1.659, 1.465e-3
-1.658, 1.453e-3
-1.657, 1.441e-3
-1.656, 1.417e-3
-1.655, 1.397e-3
-1.654, 1.384e-3
-1.653, 1.372e-3
-1.652, 1.358e-3
-1.651, 1.344e-3
-1.650, 1.329e-3
-1.649, 1.311e-3
-1.648, 1.297e-3
-1.647, 1.273e-3
-1.646, 1.254e-3
-1.645, 1.241e-3
-1.644, 1.231e-3
-1.643, 1.220e-3
-1.642, 1.208e-3
-1.641, 1.188e-3
-1.640, 1.179e-3
-1.639, 1.159e-3
-1.638, 1.135e-3
-1.637, 1.115e-3
-1.636, 1.093e-3
-1.635, 1.078e-3
-1.634, 1.062e-3
-1.633, 1.048e-3
-1.632, 1.035e-3
-1.631, 1.023e-3
-1.630, 1.013e-3
-1.629, 1.000e-3
-1.628, 9.870e-4
-1.627, 9.750e-4
-1.626, 9.614e-4
-1.625, 9.435e-4
-1.624, 9.319e-4
-1.623, 9.210e-4
-1.622, 9.113e-4
-1.621, 8.988e-4
-1.620, 8.878e-4
-1.619, 8.764e-4
-1.618, 8.632e-4
-1.617, 8.493e-4
-1.616, 8.363e-4
-1.615, 8.248e-4
-1.614, 8.112e-4
-1.613, 7.979e-4
-1.612, 7.826e-4
-1.611, 7.698e-4
-1.610, 7.611e-4
-1.609, 7.521e-4
-1.608, 7.406e-4
-1.607, 7.305e-4
-1.606, 7.181e-4
-1.605, 7.081e-4
-1.604, 6.986e-4
-1.603, 6.879e-4
-1.602, 6.786e-4
-1.601, 6.691e-4
-1.600, 6.597e-4
-1.599, 6.497e-4
-1.598, 6.356e-4
-1.597, 6.243e-4
-1.596, 6.137e-4
-1.595, 6.015e-4
-1.594, 5.886e-4
-1.593, 5.903e-4
-1.592, 5.840e-4
-1.591, 5.756e-4
-1.590, 5.670e-4
-1.589, 5.581e-4
-1.588, 5.494e-4
-1.587, 5.399e-4
-1.586, 5.293e-4
-1.585, 5.192e-4
-1.584, 5.104e-4
-1.583, 5.026e-4
-1.582, 4.981e-4
-1.581, 4.914e-4
-1.580, 4.842e-4
-1.579, 4.768e-4
-1.578, 4.688e-4
-1.577, 4.608e-4
-1.576, 4.537e-4
-1.575, 4.462e-4
-1.574, 4.396e-4
-1.573, 4.328e-4
-1.572, 4.260e-4
-1.571, 4.180e-4
-1.570, 4.121e-4
-1.569, 4.053e-4
-1.568, 3.989e-4
-1.567, 3.929e-4
-1.566, 3.859e-4
-1.565, 3.784e-4
-1.564, 3.717e-4
-1.563, 3.650e-4
-1.562, 3.589e-4
-1.561, 3.526e-4
-1.560, 3.470e-4
-1.559, 3.415e-4
-1.558, 3.358e-4
-1.557, 3.305e-4
-1.556, 3.267e-4
-1.555, 3.213e-4
-1.554, 3.162e-4
-1.553, 3.106e-4
-1.552, 3.055e-4
-1.551, 3.006e-4
-1.550, 2.955e-4
-1.549, 2.905e-4
-1.548, 2.856e-4
-1.547, 2.809e-4
-1.546, 2.758e-4
-1.545, 2.713e-4
-1.544, 2.666e-4
-1.543, 2.616e-4
-1.542, 2.572e-4
-1.541, 2.526e-4
-1.540, 2.481e-4
-1.539, 2.437e-4
-1.538, 2.392e-4
-1.537, 2.351e-4
-1.536, 2.307e-4
-1.535, 2.269e-4
-1.534, 2.232e-4
-1.533, 2.190e-4
-1.532, 2.153e-4
-1.531, 2.114e-4
-1.530, 2.080e-4
-1.529, 2.041e-4
-1.528, 2.006e-4
-1.527, 1.973e-4
-1.526, 1.935e-4
-1.525, 1.904e-4
-1.524, 1.873e-4
-1.523, 1.838e-4
-1.522, 1.806e-4
-1.521, 1.772e-4
-1.520, 1.739e-4
-1.519, 1.706e-4
-1.518, 1.675e-4
-1.517, 1.648e-4
-1.516, 1.616e-4
-1.515, 1.588e-4
-1.514, 1.559e-4
-1.513, 1.528e-4
-1.512, 1.504e-4
-1.511, 1.476e-4
-1.510, 1.445e-4
-1.509, 1.417e-4
-1.508, 1.390e-4
-1.507, 1.364e-4
-1.506, 1.339e-4
-1.505, 1.315e-4
-1.504, 1.292e-4
-1.503, 1.268e-4
-1.502, 1.247e-4
-1.501, 1.223e-4
-1.500, 1.203e-4
-1.499, 1.181e-4
-1.498, 1.158e-4
-1.497, 1.138e-4
-1.496, 1.117e-4
-1.495, 1.098e-4
-1.494, 1.077e-4
-1.493, 1.058e-4
-1.492, 1.039e-4
-1.491, 1.018e-4
-1.490, 1.001e-4
-1.489, 9.810e-5
-1.488, 9.622e-5
-1.487, 9.467e-5
-1.486, 9.269e-5
-1.485, 9.089e-5
-1.484, 8.913e-5
-1.483, 8.735e-5
-1.482, 8.586e-5
-1.481, 8.403e-5
-1.480, 8.262e-5
-1.479, 8.100e-5
-1.478, 7.903e-5
-1.477, 7.762e-5
-1.476, 7.611e-5
-1.475, 7.470e-5
-1.474, 7.348e-5
-1.473, 7.194e-5
-1.472, 7.061e-5
-1.471, 6.909e-5
-1.470, 6.784e-5
-1.469, 6.662e-5
-1.468, 6.513e-5
-1.467, 6.396e-5
-1.466, 6.266e-5
-1.465, 6.148e-5
-1.464, 6.048e-5
-1.463, 5.910e-5
-1.462, 5.812e-5
-1.461, 5.683e-5
-1.460, 5.571e-5
-1.459, 5.464e-5
-1.458, 5.342e-5
-1.457, 5.244e-5
-1.456, 5.127e-5
-1.455, 5.024e-5
-1.454, 4.929e-5
-1.453, 4.799e-5
-1.452, 4.719e-5
-1.451, 4.628e-5
-1.450, 4.533e-5
-1.449, 4.451e-5
-1.448, 4.335e-5
-1.447, 4.252e-5
-1.446, 4.154e-5
-1.445, 4.084e-5
-1.444, 3.996e-5
-1.443, 3.890e-5
-1.442, 3.830e-5
-1.441, 3.743e-5
-1.440, 3.661e-5
-1.439, 3.592e-5
-1.438, 3.498e-5
-1.437, 3.440e-5
-1.436, 3.334e-5
-1.435, 3.259e-5
-1.434, 3.200e-5
-1.433, 3.094e-5
-1.432, 3.042e-5
-1.431, 2.972e-5
-1.430, 2.894e-5
-1.429, 2.864e-5
-1.428, 2.778e-5
-1.427, 2.716e-5
-1.426, 2.652e-5
-1.425, 2.599e-5
-1.424, 2.544e-5
-1.423, 2.460e-5
-1.422, 2.421e-5
-1.421, 2.357e-5
-1.420, 2.312e-5
-1.419, 2.254e-5
-1.418, 2.206e-5
-1.417, 2.148e-5
-1.416, 2.109e-5
-1.415, 2.040e-5
-1.414, 2.001e-5
-1.413, 1.946e-5
-1.412, 1.910e-5
-1.411, 1.854e-5
-1.410, 1.813e-5
-1.409, 1.761e-5
-1.408, 1.723e-5
-1.407, 1.668e-5
-1.406, 1.624e-5
-1.405, 1.567e-5
-1.404, 1.531e-5
-1.403, 1.465e-5
-1.402, 1.435e-5
-1.401, 1.405e-5
-1.400, 1.375e-5
-1.399, 1.358e-5
-1.398, 1.299e-5
-1.397, 1.303e-5
-1.396, 1.250e-5
-1.395, 1.223e-5
-1.394, 1.181e-5
-1.393, 1.127e-5
-1.392, 1.118e-5
-1.391, 1.081e-5
-1.390, 1.046e-5
-1.389, 1.033e-5
-1.388, 9.746e-6
-1.387, 9.706e-6
-1.386, 9.371e-6
-1.385, 9.183e-6
-1.384, 8.907e-6
-1.383, 8.512e-6
-1.382, 8.157e-6
-1.381, 7.999e-6
-1.380, 7.703e-6
-1.379, 7.457e-6
-1.378, 7.190e-6
-1.377, 7.052e-6
-1.376, 6.756e-6
-1.375, 6.342e-6
-1.374, 6.075e-6
-1.373, 5.789e-6
-1.372, 5.651e-6
-1.371, 5.513e-6
-1.370, 5.118e-6
-1.369, 4.951e-6
-1.368, 4.714e-6
-1.367, 4.813e-6
-1.366, 4.694e-6
-1.365, 4.526e-6
-1.364, 4.418e-6
-1.363, 3.974e-6
-1.362, 4.013e-6
-1.361, 3.717e-6
-1.360, 3.540e-6
-1.359, 3.500e-6
-1.358, 3.175e-6
-1.357, 3.106e-6
-1.356, 2.997e-6
-1.355, 2.770e-6
-1.354, 2.731e-6
-1.353, 2.356e-6
-1.352, 2.514e-6
-1.351, 2.238e-6
-1.350, 2.030e-6
-1.349, 2.030e-6
-1.348, 1.725e-6
-1.347, 1.695e-6
-1.346, 1.636e-6
-1.345, 1.399e-6
-1.344, 1.281e-6
-1.343, 8.761e-7
-1.342, 8.958e-7
-1.341, 7.380e-7
-1.340, 6.196e-7
-1.339, 6.492e-7
-1.338, 5.209e-7
-1.337, 5.012e-7
-1.336, 4.124e-7
-1.335, 3.729e-7
-1.334, 2.447e-7
-1.333, 8.682e-8
-1.332, 1.362e-7
-1.331, -1.006e-7
-1.330, -2.980e-7
-1.329, -2.289e-7
-1.328, -4.953e-7
-1.327, -4.953e-7
-1.326, -4.065e-7
-1.325, -5.446e-7
-1.324, -6.235e-7
-1.323, -8.406e-7
-1.322, -7.025e-7
-1.321, -8.998e-7
-1.320, -9.984e-7
-1.319, -9.392e-7
-1.318, -1.146e-6
-1.317, -1.186e-6
-1.316, -1.196e-6
-1.315, -1.492e-6
-1.314, -1.225e-6
-1.313, -1.373e-6
-1.312, -1.600e-6
-1.311, -1.590e-6
-1.310, -1.738e-6
-1.309, -1.689e-6
-1.308, -1.778e-6
-1.307, -1.827e-6
-1.306, -1.886e-6
-1.305, -2.113e-6
-1.304, -1.975e-6
-1.303, -2.172e-6
-1.302, -2.251e-6
-1.301, -2.034e-6
-1.300, -2.311e-6
-1.299, -2.212e-6
-1.298, -2.311e-6
-1.297, -2.459e-6
-1.296, -2.370e-6
-1.295, -2.636e-6
-1.294, -2.459e-6
-1.293, -2.666e-6
-1.292, -2.636e-6
-1.291, -2.666e-6
-1.290, -2.755e-6
-1.289, -2.676e-6
-1.288, -2.962e-6
-1.287, -2.893e-6
-1.286, -3.031e-6
-1.285, -3.169e-6
-1.284, -3.120e-6
-1.283, -3.327e-6
-1.282, -3.337e-6
-1.281, -3.258e-6
-1.280, -3.475e-6
-1.279, -3.228e-6
-1.278, -3.356e-6
-1.277, -3.396e-6
-1.276, -3.337e-6
-1.275, -3.534e-6
-1.274, -3.317e-6
-1.273, -3.643e-6
-1.272, -3.652e-6
-1.271, -3.573e-6
-1.270, -3.712e-6
-1.269, -3.564e-6
-1.268, -3.810e-6
-1.267, -3.761e-6
-1.266, -3.781e-6
-1.265, -4.008e-6
-1.264, -3.800e-6
-1.263, -4.106e-6
-1.262, -4.077e-6
-1.261, -4.077e-6
-1.260, -4.205e-6
-1.259, -3.919e-6
-1.258, -4.244e-6
-1.257, -4.225e-6
-1.256, -4.156e-6
-1.255, -4.382e-6
-1.254, -4.333e-6
-1.253, -4.540e-6
-1.252, -4.560e-6
-1.251, -4.333e-6
-1.250, -4.501e-6
-1.249, -4.363e-6
-1.248, -4.669e-6
-1.247, -4.649e-6
-1.246, -4.580e-6
-1.245, -4.747e-6
-1.244, -4.600e-6
-1.243, -4.826e-6
-1.242, -4.747e-6
-1.241, -4.797e-6
-1.240, -4.797e-6
-1.239, -4.876e-6
-1.238, -5.024e-6
-1.237, -5.004e-6
-1.236, -4.945e-6
-1.235, -5.172e-6
-1.234, -5.043e-6
-1.233, -5.152e-6
-1.232, -5.211e-6
-1.231, -5.043e-6
-1.230, -5.300e-6
-1.229, -5.270e-6
-1.228, -5.635e-6
-1.227, -5.685e-6
-1.226, -5.635e-6
-1.225, -5.813e-6
-1.224, -5.813e-6
-1.223, -6.000e-6
-1.222, -6.010e-6
-1.221, -5.606e-6
-1.220, -5.852e-6
-1.219, -5.685e-6
-1.218, -5.882e-6
-1.217, -6.000e-6
-1.216, -6.000e-6
-1.215, -6.168e-6
-1.214, -5.922e-6
-1.213, -6.129e-6
-1.212, -6.208e-6
-1.211, -6.050e-6
-1.210, -6.366e-6
-1.209, -6.257e-6
-1.208, -6.336e-6
-1.207, -6.375e-6
-1.206, -6.435e-6
-1.205, -6.583e-6
-1.204, -6.514e-6
-1.203, -6.780e-6
-1.202, -6.731e-6
-1.201, -6.701e-6
-1.200, -6.731e-6
-1.199, -6.711e-6
-1.198, -6.987e-6
-1.197, -7.155e-6
-1.196, -7.086e-6
-1.195, -7.303e-6
-1.194, -7.214e-6
-1.193, -7.451e-6
-1.192, -7.490e-6
-1.191, -7.234e-6
-1.190, -7.480e-6
-1.189, -7.451e-6
-1.188, -7.530e-6
-1.187, -7.589e-6
-1.186, -7.461e-6
-1.185, -7.766e-6
-1.184, -7.628e-6
-1.183, -7.727e-6
-1.182, -7.766e-6
-1.181, -7.836e-6
-1.180, -8.023e-6
-1.179, -7.875e-6
-1.178, -8.220e-6
-1.177, -8.141e-6
-1.176, -8.270e-6
-1.175, -8.329e-6
-1.174, -8.437e-6
-1.173, -8.556e-6
-1.172, -8.585e-6
-1.171, -8.615e-6
-1.170, -8.664e-6
-1.169, -8.625e-6
-1.168, -8.950e-6
-1.167, -9.029e-6
-1.166, -9.069e-6
-1.165, -9.444e-6
-1.164, -9.246e-6
-1.163, -9.562e-6
-1.162, -9.523e-6
-1.161, -9.720e-6
-1.160, -9.631e-6
-1.159, -9.690e-6
-1.158, -9.730e-6
-1.157, -9.819e-6
-1.156, -9.927e-6
-1.155, -1.006e-5
-1.154, -1.010e-5
-1.153, -1.028e-5
-1.152, -1.029e-5
-1.151, -1.035e-5
-1.150, -1.049e-5
-1.149, -1.062e-5
-1.148, -1.082e-5
-1.147, -1.080e-5
-1.146, -1.083e-5
-1.145, -1.112e-5
-1.144, -1.103e-5
-1.143, -1.126e-5
-1.142, -1.139e-5
-1.141, -1.129e-5
-1.140, -1.163e-5
-1.139, -1.175e-5
-1.138, -1.198e-5
-1.137, -1.200e-5
-1.136, -1.226e-5
-1.135, -1.237e-5
-1.134, -1.256e-5
-1.133, -1.281e-5
-1.132, -1.281e-5
-1.131, -1.295e-5
-1.130, -1.316e-5
-1.129, -1.305e-5
-1.128, -1.328e-5
-1.127, -1.337e-5
-1.126, -1.345e-5
-1.125, -1.367e-5
-1.124, -1.376e-5
-1.123, -1.397e-5
-1.122, -1.422e-5
-1.121, -1.431e-5
-1.120, -1.461e-5
-1.119, -1.457e-5
-1.118, -1.482e-5
-1.117, -1.481e-5
-1.116, -1.497e-5
-1.115, -1.530e-5
-1.114, -1.533e-5
-1.113, -1.575e-5
-1.112, -1.568e-5
-1.111, -1.582e-5
-1.110, -1.619e-5
-1.109, -1.618e-5
-1.108, -1.663e-5
-1.107, -1.664e-5
-1.106, -1.671e-5
-1.105, -1.698e-5
-1.104, -1.708e-5
-1.103, -1.740e-5
-1.102, -1.751e-5
-1.101, -1.753e-5
-1.100, -1.793e-5
-1.099, -1.798e-5
-1.098, -1.841e-5
-1.097, -1.853e-5
-1.096, -1.847e-5
-1.095, -1.887e-5
-1.094, -1.884e-5
-1.093, -1.933e-5
-1.092, -1.934e-5
-1.091, -1.950e-5
-1.090, -1.987e-5
-1.089, -2.005e-5
-1.088, -2.046e-5
-1.087, -2.059e-5
-1.086, -2.063e-5
-1.085, -2.092e-5
-1.084, -2.107e-5
-1.083, -2.134e-5
-1.082, -2.112e-5
-1.081, -2.115e-5
-1.080, -2.145e-5
-1.079, -2.156e-5
-1.078, -2.200e-5
-1.077, -2.194e-5
-1.076, -2.216e-5
-1.075, -2.252e-5
-1.074, -2.245e-5
-1.073, -2.295e-5
-1.072, -2.302e-5
-1.071, -2.291e-5
-1.070, -2.336e-5
-1.069, -2.337e-5
-1.068, -2.370e-5
-1.067, -2.362e-5
-1.066, -2.382e-5
-1.065, -2.409e-5
-1.064, -2.401e-5
-1.063, -2.447e-5
-1.062, -2.455e-5
-1.061, -2.466e-5
-1.060, -2.488e-5
-1.059, -2.481e-5
-1.058, -2.529e-5
-1.057, -2.535e-5
-1.056, -2.543e-5
-1.055, -2.577e-5
-1.054, -2.580e-5
-1.053, -2.595e-5
-1.052, -2.583e-5
-1.051, -2.591e-5
-1.050, -2.622e-5
-1.049, -2.625e-5
-1.048, -2.668e-5
-1.047, -2.657e-5
-1.046, -2.662e-5
-1.045, -2.684e-5
-1.044, -2.702e-5
-1.043, -2.731e-5
-1.042, -2.723e-5
-1.041, -2.733e-5
-1.040, -2.747e-5
-1.039, -2.748e-5
-1.038, -2.779e-5
-1.037, -2.793e-5
-1.036, -2.784e-5
-1.035, -2.816e-5
-1.034, -2.802e-5
-1.033, -2.848e-5
-1.032, -2.835e-5
-1.031, -2.843e-5
-1.030, -2.878e-5
-1.029, -2.864e-5
-1.028, -2.913e-5
-1.027, -2.895e-5
-1.026, -2.897e-5
-1.025, -2.919e-5
-1.024, -2.931e-5
-1.023, -2.960e-5
-1.022, -2.958e-5
-1.021, -2.949e-5
-1.020, -2.976e-5
-1.019, -2.970e-5
-1.018, -2.990e-5
-1.017, -3.006e-5
-1.016, -3.015e-5
-1.015, -3.043e-5
-1.014, -3.029e-5
-1.013, -3.064e-5
-1.012, -3.057e-5
-1.011, -3.070e-5
-1.010, -3.101e-5
-1.009, -3.099e-5
-1.008, -3.109e-5
-1.007, -3.093e-5
-1.006, -3.101e-5
-1.005, -3.141e-5
-1.004, -3.133e-5
-1.003, -3.156e-5
-1.002, -3.153e-5
-1.001, -3.159e-5
