Potential V vs RHE, Current mA cm-2
0.05339999999999995,-0.036103432372555734
0.05239999999999995,-0.037433260994428876
0.051399999999999946,-0.03808402819236679
0.050399999999999945,-0.0385367358083236
0.049399999999999944,-0.03898944342428041
0.04839999999999994,-0.039428003927238574
0.04739999999999994,-0.039795828865203484
0.04639999999999994,-0.04016365380316839
0.04539999999999994,-0.0405597729671306
0.04439999999999994,-0.04097003924409146
0.04339999999999994,-0.041366158408053674
0.04239999999999994,-0.04170568912002128
0.04139999999999994,-0.04205936694498754
0.040399999999999936,-0.04239889765695515
0.039399999999999935,-0.042837458159913314
0.038399999999999934,-0.04327601866287147
0.03739999999999993,-0.04360140226184043
0.03639999999999993,-0.04396922719980534
0.03539999999999993,-0.044308757911772946
0.03439999999999993,-0.044690729962736514
0.03339999999999993,-0.04508684912669872
0.03239999999999993,-0.04544052695166498
0.03139999999999993,-0.045794204776631244
0.030399999999999927,-0.046147882601597495
0.029399999999999926,-0.04657229599155701
0.028399999999999925,-0.046968415155519215
0.027399999999999924,-0.04732209298048548
0.026399999999999924,-0.04771821214444769
0.025399999999999923,-0.04810018419541125
0.024399999999999922,-0.04852459758537076
0.02339999999999992,-0.04894901097533026
0.02239999999999992,-0.04931683591329518
0.02139999999999992,-0.04971295507725739
0.020399999999999918,-0.0501090742412196
0.019399999999999917,-0.05050519340518181
0.018399999999999916,-0.05094375390813997
0.017399999999999916,-0.05133987307210218
0.016399999999999915,-0.05175013934906304
0.015399999999999914,-0.0521604056260239
0.014399999999999913,-0.05259896612898206
0.013399999999999912,-0.05305167374493888
0.012399999999999911,-0.05344779290890109
0.01139999999999991,-0.05382976495986465
0.01039999999999991,-0.054254178349824156
0.009399999999999908,-0.054749327304776926
0.008399999999999908,-0.05517374069473643
0.007399999999999907,-0.055569859858698646
0.006399999999999906,-0.05598012613565951
0.005399999999999905,-0.05639039241262036
0.004399999999999904,-0.05685724714157582
0.003399999999999903,-0.05730995475753263
0.002399999999999902,-0.057720221034493494
0.0013999999999999013,-0.05811634019845571
0.00039999999999990044,-0.058554900701413864
-0.0006000000000001005,-0.05902175543036933
-0.0016000000000001013,-0.05955934572431805
-0.0026000000000001022,-0.05996961200127891
-0.003600000000000103,-0.06039402539123842
-0.004600000000000104,-0.060832585894196586
-0.005600000000000105,-0.06134188196214799
-0.006600000000000106,-0.06176629535210751
-0.007600000000000107,-0.062190708742067016
-0.008600000000000108,-0.06270000481001843
-0.009600000000000108,-0.06312441819997792
-0.01060000000000011,-0.06360542004193205
-0.01160000000000011,-0.06418545167487671
-0.012600000000000111,-0.06475133619482273
-0.013600000000000112,-0.06520404381077954
-0.014600000000000113,-0.06565675142673635
-0.015600000000000114,-0.06615190038168911
-0.016600000000000115,-0.06663290222364322
-0.017600000000000116,-0.06704316850060409
-0.018600000000000116,-0.0674958761165609
-0.019600000000000117,-0.06801931929751097
-0.020600000000000118,-0.06854276247846103
-0.02160000000000012,-0.06903791143341378
-0.02260000000000012,-0.06953306038836657
-0.02360000000000012,-0.06992917955232876
-0.024600000000000122,-0.07038188716828557
-0.025600000000000123,-0.07091947746223429
-0.026600000000000124,-0.07145706775618299
-0.027600000000000124,-0.07196636382413442
-0.028600000000000125,-0.07244736566608852
-0.029600000000000126,-0.07292836750804264
-0.030600000000000127,-0.0734518106889927
-0.03160000000000013,-0.07403184232193737
-0.03260000000000013,-0.07452699127689014
-0.03360000000000013,-0.0750221402318429
-0.03460000000000002,-0.07554558341279295
-0.03560000000000002,-0.07613976215873627
-0.03660000000000002,-0.0767339409046796
-0.03760000000000002,-0.07720079563363505
-0.03860000000000002,-0.07775253304058242
-0.039600000000000024,-0.07830427044752979
-0.040600000000000025,-0.0788984491934731
-0.041600000000000026,-0.07953506927841236
-0.04260000000000003,-0.07995948266837187
-0.04360000000000003,-0.08051122007531925
-0.04460000000000003,-0.08094978057827738
-0.04560000000000003,-0.08152981221122206
-0.04660000000000003,-0.08210984384416672
-0.04760000000000003,-0.0826049927991195
-0.04860000000000003,-0.08311428886707091
-0.04960000000000003,-0.08360943782202368
-0.050600000000000034,-0.08414702811597238
-0.051600000000000035,-0.08475535397491435
-0.052600000000000036,-0.08529294426886307
-0.053600000000000037,-0.08583053456281178
-0.05460000000000004,-0.08635397774376184
-0.05560000000000004,-0.08691986226370785
-0.05660000000000004,-0.0874433054446579
-0.05760000000000004,-0.08793845439961068
-0.05860000000000004,-0.08846189758056075
-0.05960000000000004,-0.08898534076151081
-0.06060000000000004,-0.08953707816845817
-0.061600000000000044,-0.09011710980140283
-0.06260000000000004,-0.09062640586935425
-0.06360000000000005,-0.09113570193730568
-0.06460000000000005,-0.09170158645725168
-0.06560000000000005,-0.0922674709771977
-0.06660000000000005,-0.09283335549714371
-0.06760000000000005,-0.09334265156509512
-0.06860000000000005,-0.09386609474604518
-0.06960000000000005,-0.09444612637898986
-0.07060000000000005,-0.09501201089893586
-0.07160000000000005,-0.09554960119288458
-0.07260000000000005,-0.0960871914868333
-0.07360000000000005,-0.09656819332878741
-0.07460000000000006,-0.09709163650973747
-0.07560000000000006,-0.09764337391668483
-0.07660000000000006,-0.0981951113236322
-0.07760000000000006,-0.0987044073915836
-0.07860000000000006,-0.09922785057253368
-0.07960000000000006,-0.09980788220547833
-0.08060000000000006,-0.1003596196124257
-0.08160000000000006,-0.10086891568037712
-0.08260000000000006,-0.10133577040933257
-0.08360000000000006,-0.10181677225128669
-0.08460000000000006,-0.1023260683192381
-0.08560000000000006,-0.10286365861318682
-0.08660000000000007,-0.10338710179413689
-0.08760000000000007,-0.10386810363609099
-0.08860000000000007,-0.10436325259104375
-0.08960000000000007,-0.10487254865899517
-0.09060000000000007,-0.10545258029193984
-0.09160000000000007,-0.10601846481188584
-0.09260000000000007,-0.10647117242784265
-0.09360000000000007,-0.10693802715679812
-0.09460000000000007,-0.10731999920776168
-0.09560000000000007,-0.10781514816271445
-0.09660000000000007,-0.10835273845666317
-0.09760000000000008,-0.10881959318561862
-0.09860000000000008,-0.1093147421405714
-0.09960000000000008,-0.1097674497565282
-0.10060000000000008,-0.11026259871148097
-0.10160000000000008,-0.11077189477943236
-0.10260000000000008,-0.11123874950838784
-0.10360000000000008,-0.1116490157853487
-0.10460000000000008,-0.11210172340130552
-0.10560000000000008,-0.11256857813026097
-0.10660000000000008,-0.11307787419821237
-0.10760000000000008,-0.11350228758817188
-0.10860000000000009,-0.11392670097813141
-0.10960000000000009,-0.11435111436809091
-0.11060000000000009,-0.11481796909704638
-0.11160000000000009,-0.11525652960000454
-0.11260000000000009,-0.1156950901029627
-0.11360000000000009,-0.11610535637992356
-0.11460000000000009,-0.11657221110887903
-0.11560000000000009,-0.11705321295083315
-0.11660000000000009,-0.11756250901878454
-0.1176000000000001,-0.11798692240874405
-0.1186000000000001,-0.11839718868570492
-0.1196000000000001,-0.11876501362366983
-0.1206000000000001,-0.11918942701362933
-0.1216000000000001,-0.11958554617759155
-0.1226000000000001,-0.1199958124545524
-0.1236000000000001,-0.12034949027951866
-0.1246000000000001,-0.12068902099148628
-0.1256000000000001,-0.12105684592945118
-0.1266000000000001,-0.12141052375441745
-0.1276000000000001,-0.12175005446638507
-0.1286000000000001,-0.12206129095235536
-0.1296000000000001,-0.12238667455132432
-0.1306000000000001,-0.12278279371528653
-0.1316000000000001,-0.12317891287924874
-0.1326000000000001,-0.12351844359121636
-0.1336000000000001,-0.12385797430318395
-0.1346000000000001,-0.12421165212815022
-0.1356000000000001,-0.12456532995311646
-0.1366000000000001,-0.12489071355208542
-0.1376000000000001,-0.12520195003805573
-0.1386000000000001,-0.12548489229802873
-0.1396000000000001,-0.12578198167100044
-0.1406000000000001,-0.1260932181569707
-0.14160000000000011,-0.12643274886893832
-0.14260000000000012,-0.12672983824190998
-0.14360000000000012,-0.12699863338888437
-0.14460000000000012,-0.12728157564885736
-0.14560000000000012,-0.12756451790883036
-0.14660000000000012,-0.1278899015077993
-0.14760000000000012,-0.12817284376777233
-0.14860000000000012,-0.12838505046275206
-0.14960000000000012,-0.12865384560972642
-0.15060000000000012,-0.1289226407567008
-0.15160000000000012,-0.12920558301667381
-0.15260000000000012,-0.1294319368246522
-0.15360000000000013,-0.12965829063263062
-0.15460000000000013,-0.12989879155360767
-0.15560000000000013,-0.13018173381358067
-0.15660000000000013,-0.1304646760735537
-0.15760000000000013,-0.13067688276853343
-0.15860000000000013,-0.13087494235051456
-0.15960000000000002,-0.13110129615849295
-0.16060000000000002,-0.1313700913054673
-0.16160000000000002,-0.13158229800044707
-0.16260000000000002,-0.13178035758242818
-0.16360000000000002,-0.13199256427740794
-0.16460000000000002,-0.13217647674639038
-0.16560000000000002,-0.13241697766736746
-0.16660000000000003,-0.13267162570134314
-0.16760000000000003,-0.13284139105732695
-0.16860000000000003,-0.13298286218731345
-0.16960000000000003,-0.13312433331729995
-0.17060000000000003,-0.1333082457862824
-0.17160000000000003,-0.1335345995942608
-0.17260000000000003,-0.13369021783724597
-0.17360000000000003,-0.13384583608023112
-0.17460000000000003,-0.13400145432321628
-0.17560000000000003,-0.13418536679219872
-0.17660000000000003,-0.1343975734871785
-0.17760000000000004,-0.134539044617165
-0.17860000000000004,-0.13469466286015017
-0.17960000000000004,-0.13483613399013666
-0.18060000000000004,-0.1349634580071245
-0.18160000000000004,-0.13514737047610695
-0.18260000000000004,-0.13523225315409887
-0.18360000000000004,-0.13538787139708403
-0.18460000000000004,-0.1355010483010732
-0.18560000000000004,-0.13565666654405836
-0.18660000000000004,-0.13578399056104623
-0.18760000000000004,-0.13591131457803407
-0.18860000000000005,-0.13601034436902465
-0.18960000000000005,-0.13615181549901115
-0.19060000000000005,-0.13625084529000167
-0.19160000000000005,-0.13643475775898414
-0.19260000000000005,-0.1365337875499747
-0.19360000000000005,-0.13664696445396388
-0.19460000000000005,-0.1367318471319558
-0.19560000000000005,-0.136845024035945
-0.19660000000000005,-0.13697234805293285
-0.19760000000000005,-0.137127966295918
-0.19860000000000005,-0.13719870186091124
-0.19960000000000006,-0.1372694374259045
-0.20060000000000006,-0.13739676144289234
-0.20160000000000006,-0.13753823257287887
-0.20260000000000006,-0.13765140947686808
-0.20360000000000006,-0.13770799792886268
-0.20460000000000006,-0.13777873349385591
-0.20560000000000006,-0.13792020462384244
-0.20660000000000006,-0.13804752864083028
-0.20760000000000006,-0.1381324113188222
-0.20860000000000006,-0.13820314688381544
-0.20960000000000006,-0.13828802956180736
-0.21060000000000006,-0.1384153535787952
-0.21160000000000007,-0.138542677595783
-0.21260000000000007,-0.13859926604777764
-0.21360000000000007,-0.13865585449977225
-0.21460000000000007,-0.1387548842907628
-0.21560000000000007,-0.138868061194752
-0.21660000000000007,-0.13898123809874122
-0.21760000000000007,-0.13908026788973174
-0.21860000000000007,-0.139151003454725
-0.21960000000000007,-0.139151003454725
-0.22060000000000007,-0.13922173901971824
-0.22160000000000007,-0.13933491592370748
-0.22260000000000008,-0.1394056514887007
-0.22360000000000008,-0.13944809282769668
-0.22460000000000008,-0.13949053416669263
-0.22560000000000008,-0.13958956395768318
-0.22660000000000008,-0.13968859374867373
-0.22760000000000008,-0.1397451822006683
-0.22860000000000008,-0.13981591776566157
-0.22960000000000008,-0.13987250621765618
-0.23060000000000008,-0.13992909466965078
-0.23160000000000008,-0.14002812446064133
-0.23260000000000008,-0.14005641868663865
-0.23360000000000009,-0.14009886002563457
-0.2346000000000001,-0.14015544847762917
-0.2356000000000001,-0.14024033115562107
-0.2366000000000001,-0.1403535080596103
-0.2376000000000001,-0.14042424362460354
-0.2386000000000001,-0.14042424362460354
-0.2396000000000001,-0.1404383907376022
-0.2406000000000001,-0.14053742052859275
-0.2416000000000001,-0.14062230320658464
-0.2426000000000001,-0.14067889165857925
-0.2436000000000001,-0.14070718588457654
-0.2446000000000001,-0.1407213329975752
-0.2456000000000001,-0.14079206856256846
-0.2466000000000001,-0.14089109835355904
-0.2476000000000001,-0.14094768680555358
-0.2486000000000001,-0.14094768680555358
-0.2496000000000001,-0.14099012814454956
-0.2506000000000001,-0.1410608637095428
-0.2516000000000001,-0.14118818772653066
-0.2526000000000001,-0.14118818772653066
-0.2536000000000001,-0.14124477617852527
-0.2546000000000001,-0.14125892329152392
-0.2556000000000001,-0.14132965885651716
-0.2566000000000001,-0.14124477617852527
-0.2576000000000001,-0.14130136463051984
-0.2586000000000001,-0.14128721751752119
-0.2596000000000001,-0.14134380596951582
-0.2606000000000001,-0.14140039442151042
-0.2616000000000001,-0.14147112998650369
-0.2626000000000001,-0.14147112998650369
-0.2636000000000001,-0.14147112998650369
-0.2646000000000001,-0.14147112998650369
-0.2656000000000001,-0.14161260111649018
-0.2666000000000001,-0.14161260111649018
-0.2676000000000001,-0.14161260111649018
-0.2686000000000001,-0.14161260111649018
-0.2696000000000001,-0.14161260111649018
-0.2706000000000001,-0.14161260111649018
-0.2716000000000001,-0.14175407224647668
-0.2726000000000001,-0.14175407224647668
-0.2736000000000001,-0.14175407224647668
-0.2746000000000001,-0.14175407224647668
-0.2756000000000001,-0.14175407224647668
-0.2766000000000001,-0.14189554337646318
-0.2776000000000001,-0.14189554337646318
-0.2786000000000001,-0.14175407224647668
-0.2796000000000001,-0.14175407224647668
-0.2806000000000001,-0.14189554337646318
-0.28160000000000013,-0.14175407224647668
-0.28260000000000013,-0.14175407224647668
-0.28360000000000013,-0.14175407224647668
-0.2846,-0.14175407224647668
-0.2856,-0.1421784856364362
-0.2866,-0.14189554337646318
-0.2876,-0.14161260111649018
-0.2886,-0.14175407224647668
-0.2896,-0.14175407224647668
-0.2906,-0.14175407224647668
-0.2916,-0.14175407224647668
-0.2926,-0.14175407224647668
-0.2936,-0.14175407224647668
-0.29460000000000003,-0.14175407224647668
-0.29560000000000003,-0.14175407224647668
-0.29660000000000003,-0.14175407224647668
-0.29760000000000003,-0.14175407224647668
-0.29860000000000003,-0.14161260111649018
-0.29960000000000003,-0.14161260111649018
-0.30060000000000003,-0.14161260111649018
-0.30160000000000003,-0.14161260111649018
-0.30260000000000004,-0.14161260111649018
-0.30360000000000004,-0.14161260111649018
-0.30460000000000004,-0.14147112998650369
-0.30560000000000004,-0.14147112998650369
-0.30660000000000004,-0.14147112998650369
-0.30760000000000004,-0.14147112998650369
-0.30860000000000004,-0.14141454153450908
-0.30960000000000004,-0.14140039442151042
-0.31060000000000004,-0.14141454153450908
-0.31160000000000004,-0.14134380596951582
-0.31260000000000004,-0.14128721751752119
-0.31360000000000005,-0.14124477617852527
-0.31460000000000005,-0.14121648195252795
-0.31560000000000005,-0.14120233483952932
-0.31660000000000005,-0.14121648195252795
-0.31760000000000005,-0.14120233483952932
-0.31860000000000005,-0.14115989350053335
-0.31960000000000005,-0.14115989350053335
-0.32060000000000005,-0.1411457463875347
-0.32160000000000005,-0.14115989350053335
-0.32260000000000005,-0.14111745216153743
-0.32360000000000005,-0.14110330504853877
-0.32460000000000006,-0.14104671659654416
-0.32560000000000006,-0.14104671659654416
-0.32660000000000006,-0.1410608637095428
-0.32760000000000006,-0.14103256948354553
-0.32860000000000006,-0.14099012814454956
-0.32960000000000006,-0.14096183391855227
-0.33060000000000006,-0.14093353969255495
-0.33160000000000006,-0.14096183391855227
-0.33260000000000006,-0.14090524546655764
-0.33360000000000006,-0.14082036278856577
-0.33460000000000006,-0.1407496272235725
-0.33560000000000006,-0.1407496272235725
-0.33660000000000007,-0.1408062156755671
-0.33760000000000007,-0.14076377433657114
-0.33860000000000007,-0.1407496272235725
-0.33960000000000007,-0.1407496272235725
-0.34060000000000007,-0.1407496272235725
-0.34160000000000007,-0.14079206856256846
-0.34260000000000007,-0.14079206856256846
-0.34360000000000007,-0.14079206856256846
-0.3446000000000001,-0.14076377433657114
-0.3456000000000001,-0.1407779214495698
-0.3466000000000001,-0.14082036278856577
-0.34759999999999996,-0.1407779214495698
-0.3486000000000001,-0.1407213329975752
-0.34959999999999997,-0.14070718588457654
-0.3506000000000001,-0.14073548011057385
-0.35159999999999997,-0.1407779214495698
-0.3526000000000001,-0.1407779214495698
-0.35359999999999997,-0.14073548011057385
-0.3546000000000001,-0.14070718588457654
-0.35559999999999997,-0.1407779214495698
-0.3566000000000001,-0.14084865701456303
-0.3576,-0.14087695124056035
-0.3586000000000001,-0.14087695124056035
-0.3596,-0.14084865701456303
-0.3606000000000001,-0.1408628041275617
-0.3616,-0.14093353969255495
-0.3626000000000001,-0.14090524546655764
-0.3636,-0.14089109835355904
-0.3646000000000001,-0.14087695124056035
-0.3656,-0.14089109835355904
-0.3666000000000001,-0.14090524546655764
-0.3676,-0.1409193925795563
-0.3686000000000001,-0.14093353969255495
-0.3696,-0.1409193925795563
-0.3706000000000001,-0.1409759810315509
-0.3716,-0.14104671659654416
-0.3726000000000001,-0.14101842237054685
-0.3736,-0.14099012814454956
-0.3746000000000001,-0.14099012814454956
-0.3756,-0.1410042752575482
-0.3766000000000001,-0.14108915793554008
-0.3776,-0.14110330504853877
-0.3786000000000001,-0.14107501082254145
-0.3796,-0.1410608637095428
-0.3806000000000001,-0.14110330504853877
-0.3816,-0.14117404061353203
-0.3826000000000001,-0.14124477617852527
-0.3836,-0.1412306290655266
-0.3846000000000001,-0.14115989350053335
-0.3856,-0.1411457463875347
-0.3866000000000001,-0.14121648195252795
-0.3876,-0.14125892329152392
-0.3886000000000001,-0.14117404061353203
-0.3896,-0.1412306290655266
-0.3906000000000001,-0.14127307040452258
-0.3916,-0.14128721751752119
-0.3926000000000001,-0.14135795308251448
-0.3936,-0.14138624730851176
-0.3946000000000001,-0.14140039442151042
-0.3956,-0.14147112998650369
-0.3966000000000001,-0.14147112998650369
-0.3976,-0.14161260111649018
-0.3986000000000001,-0.14161260111649018
-0.3996,-0.14161260111649018
-0.4006000000000001,-0.14161260111649018
-0.4016,-0.14175407224647668
-0.4026000000000001,-0.14175407224647668
-0.4036,-0.14189554337646318
-0.4046000000000001,-0.14189554337646318
-0.4056,-0.14189554337646318
-0.40660000000000013,-0.1420370145064497
-0.4076,-0.1420370145064497
-0.40860000000000013,-0.1420370145064497
-0.4096,-0.1421784856364362
-0.41060000000000013,-0.1421784856364362
-0.4116,-0.1423199567664227
-0.41260000000000013,-0.1423199567664227
-0.4136,-0.1424614278964092
-0.41460000000000014,-0.1424614278964092
-0.4156,-0.1426028990263957
-0.41660000000000014,-0.1427443701563822
-0.4176,-0.1427443701563822
-0.41860000000000014,-0.1428858412863687
-0.41960000000000003,-0.1428858412863687
-0.42060000000000014,-0.14302731241635522
-0.42160000000000003,-0.14316878354634172
-0.42260000000000014,-0.1433102546763282
-0.42360000000000003,-0.1433102546763282
-0.42460000000000014,-0.1434517258063147
-0.42560000000000003,-0.1435931969363012
-0.42660000000000015,-0.1437346680662877
-0.42760000000000004,-0.1437346680662877
-0.42860000000000015,-0.14387613919627423
-0.42960000000000004,-0.14401761032626076
-0.43060000000000015,-0.14415908145624726
-0.43160000000000004,-0.14430055258623375
-0.43260000000000015,-0.14444202371622025
-0.43360000000000004,-0.14458349484620675
-0.43460000000000015,-0.14472496597619325
-0.43560000000000004,-0.14486643710617977
-0.43660000000000015,-0.14500790823616627
-0.43760000000000004,-0.14514937936615277
