Mar. 3, 2025   22:02:28
Cyclic Voltammetry
File: c:/users/guazh/data/banditlqround7_x0exp169_r20_3/2025-03-03-exp861\exp861-2025-03-03t21_57_00-arkoh\exp861_cv_sr_50mvs_efin_-1400mv.bin
Data Source:  Experiment
Instrument Model:  CHI760E
Header: CV ran at 50 mVs
Note: 

Init E (V) = -1
High E (V) = -1
Low E (V) = -1.4
Final E (V) = -1
Init P/N = N
Scan Rate (V/s) = 0.05
Segment = 3
Sample Interval (V) = 0.001
Quiet Time (sec) = 2
Sensitivity (A/V) = 0.01
Comp R (ohm) = 1.7

Results:

Channel 1:
Segment 1:

Segment 2:

Segment 3:

Potential/V, Current/A

-1.000, -2.200e-4
-1.001, -1.420e-4
-1.002, -8.760e-5
-1.003, -4.508e-5
-1.004, -9.000e-6
-1.005, 2.180e-5
-1.006, 4.901e-5
-1.007, 7.287e-5
-1.008, 9.369e-5
-1.009, 1.143e-4
-1.010, 1.331e-4
-1.011, 1.500e-4
-1.012, 1.661e-4
-1.013, 1.809e-4
-1.014, 1.959e-4
-1.015, 2.101e-4
-1.016, 2.231e-4
-1.017, 2.355e-4
-1.018, 2.475e-4
-1.019, 2.596e-4
-1.020, 2.718e-4
-1.021, 2.824e-4
-1.022, 2.929e-4
-1.023, 3.034e-4
-1.024, 3.148e-4
-1.025, 3.258e-4
-1.026, 3.352e-4
-1.027, 3.440e-4
-1.028, 3.536e-4
-1.029, 3.629e-4
-1.030, 3.725e-4
-1.031, 3.820e-4
-1.032, 3.897e-4
-1.033, 3.986e-4
-1.034, 4.075e-4
-1.035, 4.162e-4
-1.036, 4.241e-4
-1.037, 4.319e-4
-1.038, 4.396e-4
-1.039, 4.487e-4
-1.040, 4.566e-4
-1.041, 4.644e-4
-1.042, 4.715e-4
-1.043, 4.790e-4
-1.044, 4.871e-4
-1.045, 4.944e-4
-1.046, 5.019e-4
-1.047, 5.088e-4
-1.048, 5.157e-4
-1.049, 5.236e-4
-1.050, 5.308e-4
-1.051, 5.374e-4
-1.052, 5.441e-4
-1.053, 5.502e-4
-1.054, 5.576e-4
-1.055, 5.646e-4
-1.056, 5.706e-4
-1.057, 5.769e-4
-1.058, 5.830e-4
-1.059, 5.894e-4
-1.060, 5.964e-4
-1.061, 6.020e-4
-1.062, 6.074e-4
-1.063, 6.133e-4
-1.064, 6.193e-4
-1.065, 6.255e-4
-1.066, 6.309e-4
-1.067, 6.361e-4
-1.068, 6.424e-4
-1.069, 6.478e-4
-1.070, 6.541e-4
-1.071, 6.599e-4
-1.072, 6.643e-4
-1.073, 6.702e-4
-1.074, 6.758e-4
-1.075, 6.822e-4
-1.076, 6.876e-4
-1.077, 6.918e-4
-1.078, 6.973e-4
-1.079, 7.032e-4
-1.080, 7.083e-4
-1.081, 7.136e-4
-1.082, 7.182e-4
-1.083, 7.234e-4
-1.084, 7.292e-4
-1.085, 7.344e-4
-1.086, 7.395e-4
-1.087, 7.445e-4
-1.088, 7.497e-4
-1.089, 7.554e-4
-1.090, 7.612e-4
-1.091, 7.661e-4
-1.092, 7.712e-4
-1.093, 7.767e-4
-1.094, 7.825e-4
-1.095, 7.886e-4
-1.096, 7.930e-4
-1.097, 7.985e-4
-1.098, 8.042e-4
-1.099, 8.100e-4
-1.100, 8.164e-4
-1.101, 8.213e-4
-1.102, 8.271e-4
-1.103, 8.326e-4
-1.104, 8.384e-4
-1.105, 8.450e-4
-1.106, 8.503e-4
-1.107, 8.554e-4
-1.108, 8.611e-4
-1.109, 8.672e-4
-1.110, 8.737e-4
-1.111, 8.789e-4
-1.112, 8.844e-4
-1.113, 8.903e-4
-1.114, 8.963e-4
-1.115, 9.019e-4
-1.116, 9.082e-4
-1.117, 9.131e-4
-1.118, 9.197e-4
-1.119, 9.258e-4
-1.120, 9.318e-4
-1.121, 9.376e-4
-1.122, 9.422e-4
-1.123, 9.480e-4
-1.124, 9.549e-4
-1.125, 9.607e-4
-1.126, 9.660e-4
-1.127, 9.716e-4
-1.128, 9.771e-4
-1.129, 9.834e-4
-1.130, 9.887e-4
-1.131, 9.939e-4
-1.132, 9.996e-4
-1.133, 1.005e-3
-1.134, 1.011e-3
-1.135, 1.016e-3
-1.136, 1.021e-3
-1.137, 1.027e-3
-1.138, 1.032e-3
-1.139, 1.038e-3
-1.140, 1.044e-3
-1.141, 1.049e-3
-1.142, 1.053e-3
-1.143, 1.059e-3
-1.144, 1.064e-3
-1.145, 1.070e-3
-1.146, 1.075e-3
-1.147, 1.079e-3
-1.148, 1.086e-3
-1.149, 1.091e-3
-1.150, 1.096e-3
-1.151, 1.101e-3
-1.152, 1.105e-3
-1.153, 1.110e-3
-1.154, 1.116e-3
-1.155, 1.121e-3
-1.156, 1.126e-3
-1.157, 1.130e-3
-1.158, 1.135e-3
-1.159, 1.141e-3
-1.160, 1.145e-3
-1.161, 1.150e-3
-1.162, 1.154e-3
-1.163, 1.160e-3
-1.164, 1.165e-3
-1.165, 1.170e-3
-1.166, 1.174e-3
-1.167, 1.179e-3
-1.168, 1.183e-3
-1.169, 1.188e-3
-1.170, 1.193e-3
-1.171, 1.198e-3
-1.172, 1.202e-3
-1.173, 1.206e-3
-1.174, 1.211e-3
-1.175, 1.216e-3
-1.176, 1.220e-3
-1.177, 1.225e-3
-1.178, 1.230e-3
-1.179, 1.235e-3
-1.180, 1.240e-3
-1.181, 1.244e-3
-1.182, 1.248e-3
-1.183, 1.253e-3
-1.184, 1.258e-3
-1.185, 1.263e-3
-1.186, 1.267e-3
-1.187, 1.271e-3
-1.188, 1.276e-3
-1.189, 1.281e-3
-1.190, 1.286e-3
-1.191, 1.291e-3
-1.192, 1.294e-3
-1.193, 1.300e-3
-1.194, 1.305e-3
-1.195, 1.309e-3
-1.196, 1.314e-3
-1.197, 1.318e-3
-1.198, 1.322e-3
-1.199, 1.328e-3
-1.200, 1.332e-3
-1.201, 1.336e-3
-1.202, 1.341e-3
-1.203, 1.346e-3
-1.204, 1.351e-3
-1.205, 1.355e-3
-1.206, 1.360e-3
-1.207, 1.364e-3
-1.208, 1.368e-3
-1.209, 1.374e-3
-1.210, 1.378e-3
-1.211, 1.382e-3
-1.212, 1.386e-3
-1.213, 1.391e-3
-1.214, 1.396e-3
-1.215, 1.401e-3
-1.216, 1.404e-3
-1.217, 1.408e-3
-1.218, 1.413e-3
-1.219, 1.417e-3
-1.220, 1.422e-3
-1.221, 1.426e-3
-1.222, 1.430e-3
-1.223, 1.435e-3
-1.224, 1.439e-3
-1.225, 1.444e-3
-1.226, 1.447e-3
-1.227, 1.451e-3
-1.228, 1.456e-3
-1.229, 1.463e-3
-1.230, 1.466e-3
-1.231, 1.469e-3
-1.232, 1.473e-3
-1.233, 1.477e-3
-1.234, 1.481e-3
-1.235, 1.485e-3
-1.236, 1.489e-3
-1.237, 1.492e-3
-1.238, 1.496e-3
-1.239, 1.501e-3
-1.240, 1.504e-3
-1.241, 1.508e-3
-1.242, 1.512e-3
-1.243, 1.515e-3
-1.244, 1.519e-3
-1.245, 1.523e-3
-1.246, 1.526e-3
-1.247, 1.530e-3
-1.248, 1.533e-3
-1.249, 1.538e-3
-1.250, 1.541e-3
-1.251, 1.544e-3
-1.252, 1.547e-3
-1.253, 1.550e-3
-1.254, 1.554e-3
-1.255, 1.558e-3
-1.256, 1.560e-3
-1.257, 1.564e-3
-1.258, 1.567e-3
-1.259, 1.570e-3
-1.260, 1.574e-3
-1.261, 1.576e-3
-1.262, 1.579e-3
-1.263, 1.582e-3
-1.264, 1.586e-3
-1.265, 1.589e-3
-1.266, 1.607e-3
-1.267, 1.603e-3
-1.268, 1.604e-3
-1.269, 1.606e-3
-1.270, 1.609e-3
-1.271, 1.614e-3
-1.272, 1.618e-3
-1.273, 1.626e-3
-1.274, 1.629e-3
-1.275, 1.630e-3
-1.276, 1.633e-3
-1.277, 1.635e-3
-1.278, 1.641e-3
-1.279, 1.644e-3
-1.280, 1.647e-3
-1.281, 1.649e-3
-1.282, 1.651e-3
-1.283, 1.653e-3
-1.284, 1.694e-3
-1.285, 1.677e-3
-1.286, 1.673e-3
-1.287, 1.673e-3
-1.288, 1.674e-3
-1.289, 1.676e-3
-1.290, 1.678e-3
-1.291, 1.679e-3
-1.292, 1.682e-3
-1.293, 1.685e-3
-1.294, 1.688e-3
-1.295, 1.691e-3
-1.296, 1.693e-3
-1.297, 1.696e-3
-1.298, 1.700e-3
-1.299, 1.704e-3
-1.300, 1.708e-3
-1.301, 1.709e-3
-1.302, 1.712e-3
-1.303, 1.717e-3
-1.304, 1.721e-3
-1.305, 1.726e-3
-1.306, 1.730e-3
-1.307, 1.734e-3
-1.308, 1.740e-3
-1.309, 1.745e-3
-1.310, 1.750e-3
-1.311, 1.754e-3
-1.312, 1.760e-3
-1.313, 1.767e-3
-1.314, 1.773e-3
-1.315, 1.780e-3
-1.316, 1.787e-3
-1.317, 1.794e-3
-1.318, 1.802e-3
-1.319, 1.811e-3
-1.320, 1.819e-3
-1.321, 1.827e-3
-1.322, 1.836e-3
-1.323, 1.848e-3
-1.324, 1.859e-3
-1.325, 1.870e-3
-1.326, 1.881e-3
-1.327, 1.894e-3
-1.328, 1.909e-3
-1.329, 1.923e-3
-1.330, 1.939e-3
-1.331, 1.954e-3
-1.332, 1.972e-3
-1.333, 1.990e-3
-1.334, 2.010e-3
-1.335, 2.031e-3
-1.336, 2.053e-3
-1.337, 2.077e-3
-1.338, 2.103e-3
-1.339, 2.131e-3
-1.340, 2.160e-3
-1.341, 2.191e-3
-1.342, 2.223e-3
-1.343, 2.259e-3
-1.344, 2.298e-3
-1.345, 2.339e-3
-1.346, 2.383e-3
-1.347, 2.430e-3
-1.348, 2.482e-3
-1.349, 2.535e-3
-1.350, 2.592e-3
-1.351, 2.653e-3
-1.352, 2.718e-3
-1.353, 2.788e-3
-1.354, 2.862e-3
-1.355, 2.940e-3
-1.356, 3.022e-3
-1.357, 3.110e-3
-1.358, 3.201e-3
-1.359, 3.295e-3
-1.360, 3.392e-3
-1.361, 3.493e-3
-1.362, 3.597e-3
-1.363, 3.704e-3
-1.364, 3.812e-3
-1.365, 3.921e-3
-1.366, 4.032e-3
-1.367, 4.144e-3
-1.368, 4.255e-3
-1.369, 4.367e-3
-1.370, 4.476e-3
-1.371, 4.588e-3
-1.372, 4.698e-3
-1.373, 4.808e-3
-1.374, 4.918e-3
-1.375, 5.026e-3
-1.376, 5.131e-3
-1.377, 5.235e-3
-1.378, 5.338e-3
-1.379, 5.441e-3
-1.380, 5.543e-3
-1.381, 5.642e-3
-1.382, 5.742e-3
-1.383, 5.840e-3
-1.384, 5.937e-3
-1.385, 6.032e-3
-1.386, 6.127e-3
-1.387, 6.220e-3
-1.388, 6.314e-3
-1.389, 6.408e-3
-1.390, 6.498e-3
-1.391, 6.588e-3
-1.392, 6.676e-3
-1.393, 6.768e-3
-1.394, 6.859e-3
-1.395, 6.945e-3
-1.396, 7.028e-3
-1.397, 7.115e-3
-1.398, 7.201e-3
-1.399, 7.282e-3
-1.400, 7.272e-3
-1.399, 7.177e-3
-1.398, 7.087e-3
-1.397, 7.005e-3
-1.396, 6.909e-3
-1.395, 6.813e-3
-1.394, 6.721e-3
-1.393, 6.628e-3
-1.392, 6.554e-3
-1.391, 6.462e-3
-1.390, 6.367e-3
-1.389, 6.274e-3
-1.388, 6.176e-3
-1.387, 6.087e-3
-1.386, 5.999e-3
-1.385, 5.919e-3
-1.384, 5.838e-3
-1.383, 5.738e-3
-1.382, 5.647e-3
-1.381, 5.574e-3
-1.380, 5.498e-3
-1.379, 5.411e-3
-1.378, 5.329e-3
-1.377, 5.247e-3
-1.376, 5.165e-3
-1.375, 5.083e-3
-1.374, 5.002e-3
-1.373, 4.920e-3
-1.372, 4.835e-3
-1.371, 4.761e-3
-1.370, 4.681e-3
-1.369, 4.605e-3
-1.368, 4.527e-3
-1.367, 4.448e-3
-1.366, 4.372e-3
-1.365, 4.300e-3
-1.364, 4.220e-3
-1.363, 4.151e-3
-1.362, 4.080e-3
-1.361, 4.007e-3
-1.360, 3.935e-3
-1.359, 3.871e-3
-1.358, 3.804e-3
-1.357, 3.735e-3
-1.356, 3.666e-3
-1.355, 3.599e-3
-1.354, 3.533e-3
-1.353, 3.467e-3
-1.352, 3.402e-3
-1.351, 3.340e-3
-1.350, 3.275e-3
-1.349, 3.211e-3
-1.348, 3.147e-3
-1.347, 3.084e-3
-1.346, 3.024e-3
-1.345, 2.963e-3
-1.344, 2.903e-3
-1.343, 2.848e-3
-1.342, 2.794e-3
-1.341, 2.738e-3
-1.340, 2.694e-3
-1.339, 2.642e-3
-1.338, 2.578e-3
-1.337, 2.514e-3
-1.336, 2.459e-3
-1.335, 2.405e-3
-1.334, 2.352e-3
-1.333, 2.302e-3
-1.332, 2.252e-3
-1.331, 2.202e-3
-1.330, 2.153e-3
-1.329, 2.105e-3
-1.328, 2.058e-3
-1.327, 2.011e-3
-1.326, 1.966e-3
-1.325, 1.921e-3
-1.324, 1.877e-3
-1.323, 1.834e-3
-1.322, 1.792e-3
-1.321, 1.750e-3
-1.320, 1.707e-3
-1.319, 1.666e-3
-1.318, 1.626e-3
-1.317, 1.587e-3
-1.316, 1.550e-3
-1.315, 1.512e-3
-1.314, 1.476e-3
-1.313, 1.441e-3
-1.312, 1.406e-3
-1.311, 1.372e-3
-1.310, 1.337e-3
-1.309, 1.305e-3
-1.308, 1.270e-3
-1.307, 1.238e-3
-1.306, 1.207e-3
-1.305, 1.176e-3
-1.304, 1.146e-3
-1.303, 1.117e-3
-1.302, 1.088e-3
-1.301, 1.060e-3
-1.300, 1.032e-3
-1.299, 1.005e-3
-1.298, 9.784e-4
-1.297, 9.527e-4
-1.296, 9.277e-4
-1.295, 9.015e-4
-1.294, 8.762e-4
-1.293, 8.532e-4
-1.292, 8.296e-4
-1.291, 8.068e-4
-1.290, 7.839e-4
-1.289, 7.653e-4
-1.288, 7.458e-4
-1.287, 7.219e-4
-1.286, 7.017e-4
-1.285, 6.828e-4
-1.284, 6.606e-4
-1.283, 6.410e-4
-1.282, 6.225e-4
-1.281, 6.040e-4
-1.280, 5.853e-4
-1.279, 5.675e-4
-1.278, 5.503e-4
-1.277, 5.346e-4
-1.276, 5.208e-4
-1.275, 5.059e-4
-1.274, 4.899e-4
-1.273, 4.745e-4
-1.272, 4.604e-4
-1.271, 4.463e-4
-1.270, 4.324e-4
-1.269, 4.183e-4
-1.268, 4.047e-4
-1.267, 3.922e-4
-1.266, 3.798e-4
-1.265, 3.681e-4
-1.264, 3.556e-4
-1.263, 3.431e-4
-1.262, 3.315e-4
-1.261, 3.210e-4
-1.260, 3.090e-4
-1.259, 2.975e-4
-1.258, 2.869e-4
-1.257, 2.764e-4
-1.256, 2.661e-4
-1.255, 2.550e-4
-1.254, 2.446e-4
-1.253, 2.355e-4
-1.252, 2.261e-4
-1.251, 2.171e-4
-1.250, 2.075e-4
-1.249, 1.979e-4
-1.248, 1.897e-4
-1.247, 1.807e-4
-1.246, 1.717e-4
-1.245, 1.629e-4
-1.244, 1.538e-4
-1.243, 1.552e-4
-1.242, 1.427e-4
-1.241, 1.317e-4
-1.240, 1.240e-4
-1.239, 1.158e-4
-1.238, 1.082e-4
-1.237, 1.018e-4
-1.236, 9.470e-5
-1.235, 8.699e-5
-1.234, 7.954e-5
-1.233, 7.221e-5
-1.232, 6.584e-5
-1.231, 5.903e-5
-1.230, 5.131e-5
-1.229, 4.222e-5
-1.228, 3.577e-5
-1.227, 2.981e-5
-1.226, 2.347e-5
-1.225, 1.598e-5
-1.224, 9.864e-6
-1.223, 3.224e-6
-1.222, -2.616e-6
-1.221, -8.931e-6
-1.220, -1.543e-5
-1.219, -2.186e-5
-1.218, -2.736e-5
-1.217, -3.336e-5
-1.216, -3.947e-5
-1.215, -4.593e-5
-1.214, -5.255e-5
-1.213, -5.805e-5
-1.212, -6.403e-5
-1.211, -7.004e-5
-1.210, -7.648e-5
-1.209, -8.330e-5
-1.208, -8.853e-5
-1.207, -9.422e-5
-1.206, -1.005e-4
-1.205, -1.064e-4
-1.204, -1.131e-4
-1.203, -1.188e-4
-1.202, -1.239e-4
-1.201, -1.301e-4
-1.200, -1.352e-4
-1.199, -1.414e-4
-1.198, -1.470e-4
-1.197, -1.518e-4
-1.196, -1.576e-4
-1.195, -1.637e-4
-1.194, -1.691e-4
-1.193, -1.746e-4
-1.192, -1.786e-4
-1.191, -1.845e-4
-1.190, -1.905e-4
-1.189, -1.960e-4
-1.188, -2.013e-4
-1.187, -2.062e-4
-1.186, -2.116e-4
-1.185, -2.175e-4
-1.184, -2.228e-4
-1.183, -2.278e-4
-1.182, -2.328e-4
-1.181, -2.378e-4
-1.180, -2.440e-4
-1.179, -2.493e-4
-1.178, -2.552e-4
-1.177, -2.601e-4
-1.176, -2.646e-4
-1.175, -2.705e-4
-1.174, -2.760e-4
-1.173, -2.799e-4
-1.172, -2.848e-4
-1.171, -2.900e-4
-1.170, -2.955e-4
-1.169, -3.012e-4
-1.168, -3.056e-4
-1.167, -3.102e-4
-1.166, -3.157e-4
-1.165, -3.209e-4
-1.164, -3.266e-4
-1.163, -3.316e-4
-1.162, -3.357e-4
-1.161, -3.414e-4
-1.160, -3.461e-4
-1.159, -3.512e-4
-1.158, -3.560e-4
-1.157, -3.601e-4
-1.156, -3.646e-4
-1.155, -3.698e-4
-1.154, -3.746e-4
-1.153, -3.795e-4
-1.152, -3.835e-4
-1.151, -3.891e-4
-1.150, -3.948e-4
-1.149, -3.999e-4
-1.148, -4.049e-4
-1.147, -4.090e-4
-1.146, -4.143e-4
-1.145, -4.199e-4
-1.144, -4.243e-4
-1.143, -4.288e-4
-1.142, -4.335e-4
-1.141, -4.380e-4
-1.140, -4.436e-4
-1.139, -4.486e-4
-1.138, -4.550e-4
-1.137, -4.640e-4
-1.136, -4.683e-4
-1.135, -4.740e-4
-1.134, -4.788e-4
-1.133, -4.824e-4
-1.132, -4.870e-4
-1.131, -4.918e-4
-1.130, -4.966e-4
-1.129, -5.023e-4
-1.128, -5.071e-4
-1.127, -5.120e-4
-1.126, -5.173e-4
-1.125, -5.237e-4
-1.124, -5.307e-4
-1.123, -5.362e-4
-1.122, -5.410e-4
-1.121, -5.473e-4
-1.120, -5.522e-4
-1.119, -5.576e-4
-1.118, -5.633e-4
-1.117, -5.675e-4
-1.116, -5.720e-4
-1.115, -5.776e-4
-1.114, -5.824e-4
-1.113, -5.874e-4
-1.112, -5.918e-4
-1.111, -5.973e-4
-1.110, -6.044e-4
-1.109, -6.095e-4
-1.108, -6.144e-4
-1.107, -6.192e-4
-1.106, -6.237e-4
-1.105, -6.305e-4
-1.104, -6.353e-4
-1.103, -6.407e-4
-1.102, -6.461e-4
-1.101, -6.517e-4
-1.100, -6.577e-4
-1.099, -6.630e-4
-1.098, -6.680e-4
-1.097, -6.734e-4
-1.096, -6.786e-4
-1.095, -6.850e-4
-1.094, -6.909e-4
-1.093, -6.959e-4
-1.092, -7.013e-4
-1.091, -7.077e-4
-1.090, -7.139e-4
-1.089, -7.200e-4
-1.088, -7.250e-4
-1.087, -7.304e-4
-1.086, -7.365e-4
-1.085, -7.424e-4
-1.084, -7.486e-4
-1.083, -7.541e-4
-1.082, -7.600e-4
-1.081, -7.666e-4
-1.080, -7.730e-4
-1.079, -7.792e-4
-1.078, -7.849e-4
-1.077, -7.904e-4
-1.076, -7.975e-4
-1.075, -8.039e-4
-1.074, -8.098e-4
-1.073, -8.159e-4
-1.072, -8.214e-4
-1.071, -8.279e-4
-1.070, -8.346e-4
-1.069, -8.402e-4
-1.068, -8.460e-4
-1.067, -8.518e-4
-1.066, -8.587e-4
-1.065, -8.657e-4
-1.064, -8.711e-4
-1.063, -8.770e-4
-1.062, -8.833e-4
-1.061, -8.894e-4
-1.060, -8.969e-4
-1.059, -9.033e-4
-1.058, -9.092e-4
-1.057, -9.157e-4
-1.056, -9.217e-4
-1.055, -9.279e-4
-1.054, -9.339e-4
-1.053, -9.390e-4
-1.052, -9.448e-4
-1.051, -9.515e-4
-1.050, -9.583e-4
-1.049, -9.646e-4
-1.048, -9.697e-4
-1.047, -9.755e-4
-1.046, -9.820e-4
-1.045, -9.888e-4
-1.044, -9.962e-4
-1.043, -1.001e-3
-1.042, -1.008e-3
-1.041, -1.014e-3
-1.040, -1.020e-3
-1.039, -1.027e-3
-1.038, -1.033e-3
-1.037, -1.038e-3
-1.036, -1.045e-3
-1.035, -1.052e-3
-1.034, -1.058e-3
-1.033, -1.065e-3
-1.032, -1.071e-3
-1.031, -1.077e-3
-1.030, -1.084e-3
-1.029, -1.090e-3
-1.028, -1.097e-3
-1.027, -1.103e-3
-1.026, -1.110e-3
-1.025, -1.118e-3
-1.024, -1.125e-3
-1.023, -1.131e-3
-1.022, -1.137e-3
-1.021, -1.144e-3
-1.020, -1.151e-3
-1.019, -1.157e-3
-1.018, -1.164e-3
-1.017, -1.170e-3
-1.016, -1.178e-3
-1.015, -1.184e-3
-1.014, -1.191e-3
-1.013, -1.198e-3
-1.012, -1.205e-3
-1.011, -1.212e-3
-1.010, -1.220e-3
-1.009, -1.227e-3
-1.008, -1.233e-3
-1.007, -1.240e-3
-1.006, -1.247e-3
-1.005, -1.254e-3
-1.004, -1.262e-3
-1.003, -1.269e-3
-1.002, -1.276e-3
-1.001, -1.284e-3
