Mar. 3, 2025   22:03:15
Cyclic Voltammetry
File: c:/users/guazh/data/banditlqround7_x0exp169_r20_3/2025-03-03-exp861\exp861-2025-03-03t21_57_00-arkoh\exp861_cv_sr_200mvs_efin_-1400mv.bin
Data Source:  Experiment
Instrument Model:  CHI760E
Header: CV ran at 200 mVs
Note: 

Init E (V) = -1
High E (V) = -1
Low E (V) = -1.4
Final E (V) = -1
Init P/N = N
Scan Rate (V/s) = 0.2
Segment = 3
Sample Interval (V) = 0.001
Quiet Time (sec) = 2
Sensitivity (A/V) = 0.01
Comp R (ohm) = 1.7

Results:

Channel 1:
Segment 1:

Segment 2:

Segment 3:

Potential/V, Current/A

-1.000, -2.154e-4
-1.001, -1.030e-4
-1.002, -7.737e-6
-1.003, 7.050e-5
-1.004, 1.417e-4
-1.005, 2.105e-4
-1.006, 2.687e-4
-1.007, 3.207e-4
-1.008, 3.750e-4
-1.009, 4.238e-4
-1.010, 4.653e-4
-1.011, 5.096e-4
-1.012, 5.528e-4
-1.013, 5.880e-4
-1.014, 6.229e-4
-1.015, 6.614e-4
-1.016, 6.935e-4
-1.017, 7.228e-4
-1.018, 7.566e-4
-1.019, 7.873e-4
-1.020, 8.131e-4
-1.021, 8.420e-4
-1.022, 8.706e-4
-1.023, 8.941e-4
-1.024, 9.197e-4
-1.025, 9.480e-4
-1.026, 9.700e-4
-1.027, 9.911e-4
-1.028, 1.017e-3
-1.029, 1.040e-3
-1.030, 1.059e-3
-1.031, 1.082e-3
-1.032, 1.106e-3
-1.033, 1.125e-3
-1.034, 1.145e-3
-1.035, 1.169e-3
-1.036, 1.188e-3
-1.037, 1.204e-3
-1.038, 1.227e-3
-1.039, 1.247e-3
-1.040, 1.263e-3
-1.041, 1.285e-3
-1.042, 1.306e-3
-1.043, 1.322e-3
-1.044, 1.341e-3
-1.045, 1.363e-3
-1.046, 1.381e-3
-1.047, 1.397e-3
-1.048, 1.418e-3
-1.049, 1.438e-3
-1.050, 1.452e-3
-1.051, 1.472e-3
-1.052, 1.493e-3
-1.053, 1.507e-3
-1.054, 1.525e-3
-1.055, 1.546e-3
-1.056, 1.562e-3
-1.057, 1.577e-3
-1.058, 1.597e-3
-1.059, 1.615e-3
-1.060, 1.629e-3
-1.061, 1.647e-3
-1.062, 1.666e-3
-1.063, 1.680e-3
-1.064, 1.695e-3
-1.065, 1.715e-3
-1.066, 1.730e-3
-1.067, 1.742e-3
-1.068, 1.762e-3
-1.069, 1.779e-3
-1.070, 1.791e-3
-1.071, 1.809e-3
-1.072, 1.826e-3
-1.073, 1.839e-3
-1.074, 1.854e-3
-1.075, 1.874e-3
-1.076, 1.887e-3
-1.077, 1.900e-3
-1.078, 1.917e-3
-1.079, 1.932e-3
-1.080, 1.942e-3
-1.081, 1.958e-3
-1.082, 1.974e-3
-1.083, 1.985e-3
-1.084, 1.997e-3
-1.085, 2.013e-3
-1.086, 2.025e-3
-1.087, 2.036e-3
-1.088, 2.051e-3
-1.089, 2.065e-3
-1.090, 2.074e-3
-1.091, 2.089e-3
-1.092, 2.104e-3
-1.093, 2.113e-3
-1.094, 2.125e-3
-1.095, 2.140e-3
-1.096, 2.151e-3
-1.097, 2.161e-3
-1.098, 2.175e-3
-1.099, 2.188e-3
-1.100, 2.196e-3
-1.101, 2.209e-3
-1.102, 2.223e-3
-1.103, 2.232e-3
-1.104, 2.242e-3
-1.105, 2.257e-3
-1.106, 2.267e-3
-1.107, 2.276e-3
-1.108, 2.290e-3
-1.109, 2.301e-3
-1.110, 2.309e-3
-1.111, 2.322e-3
-1.112, 2.335e-3
-1.113, 2.343e-3
-1.114, 2.353e-3
-1.115, 2.367e-3
-1.116, 2.376e-3
-1.117, 2.384e-3
-1.118, 2.398e-3
-1.119, 2.411e-3
-1.120, 2.418e-3
-1.121, 2.429e-3
-1.122, 2.443e-3
-1.123, 2.450e-3
-1.124, 2.460e-3
-1.125, 2.475e-3
-1.126, 2.483e-3
-1.127, 2.492e-3
-1.128, 2.505e-3
-1.129, 2.517e-3
-1.130, 2.524e-3
-1.131, 2.536e-3
-1.132, 2.551e-3
-1.133, 2.557e-3
-1.134, 2.566e-3
-1.135, 2.580e-3
-1.136, 2.586e-3
-1.137, 2.594e-3
-1.138, 2.607e-3
-1.139, 2.616e-3
-1.140, 2.623e-3
-1.141, 2.634e-3
-1.142, 2.646e-3
-1.143, 2.653e-3
-1.144, 2.664e-3
-1.145, 2.678e-3
-1.146, 2.686e-3
-1.147, 2.693e-3
-1.148, 2.707e-3
-1.149, 2.718e-3
-1.150, 2.725e-3
-1.151, 2.736e-3
-1.152, 2.748e-3
-1.153, 2.754e-3
-1.154, 2.763e-3
-1.155, 2.777e-3
-1.156, 2.785e-3
-1.157, 2.791e-3
-1.158, 2.803e-3
-1.159, 2.814e-3
-1.160, 2.820e-3
-1.161, 2.831e-3
-1.162, 2.843e-3
-1.163, 2.850e-3
-1.164, 2.859e-3
-1.165, 2.872e-3
-1.166, 2.879e-3
-1.167, 2.886e-3
-1.168, 2.899e-3
-1.169, 2.908e-3
-1.170, 2.914e-3
-1.171, 2.925e-3
-1.172, 2.936e-3
-1.173, 2.941e-3
-1.174, 2.950e-3
-1.175, 2.963e-3
-1.176, 2.969e-3
-1.177, 2.976e-3
-1.178, 2.989e-3
-1.179, 2.997e-3
-1.180, 3.001e-3
-1.181, 3.009e-3
-1.182, 3.018e-3
-1.183, 3.024e-3
-1.184, 3.030e-3
-1.185, 3.042e-3
-1.186, 3.048e-3
-1.187, 3.053e-3
-1.188, 3.065e-3
-1.189, 3.072e-3
-1.190, 3.075e-3
-1.191, 3.086e-3
-1.192, 3.093e-3
-1.193, 3.099e-3
-1.194, 3.105e-3
-1.195, 3.115e-3
-1.196, 3.122e-3
-1.197, 3.125e-3
-1.198, 3.135e-3
-1.199, 3.143e-3
-1.200, 3.145e-3
-1.201, 3.154e-3
-1.202, 3.163e-3
-1.203, 3.166e-3
-1.204, 3.172e-3
-1.205, 3.182e-3
-1.206, 3.186e-3
-1.207, 3.189e-3
-1.208, 3.199e-3
-1.209, 3.206e-3
-1.210, 3.209e-3
-1.211, 3.216e-3
-1.212, 3.225e-3
-1.213, 3.227e-3
-1.214, 3.232e-3
-1.215, 3.242e-3
-1.216, 3.245e-3
-1.217, 3.250e-3
-1.218, 3.259e-3
-1.219, 3.264e-3
-1.220, 3.266e-3
-1.221, 3.273e-3
-1.222, 3.282e-3
-1.223, 3.284e-3
-1.224, 3.289e-3
-1.225, 3.299e-3
-1.226, 3.302e-3
-1.227, 3.305e-3
-1.228, 3.316e-3
-1.229, 3.324e-3
-1.230, 3.326e-3
-1.231, 3.333e-3
-1.232, 3.341e-3
-1.233, 3.343e-3
-1.234, 3.348e-3
-1.235, 3.358e-3
-1.236, 3.361e-3
-1.237, 3.364e-3
-1.238, 3.373e-3
-1.239, 3.378e-3
-1.240, 3.380e-3
-1.241, 3.388e-3
-1.242, 3.396e-3
-1.243, 3.399e-3
-1.244, 3.404e-3
-1.245, 3.414e-3
-1.246, 3.417e-3
-1.247, 3.422e-3
-1.248, 3.431e-3
-1.249, 3.437e-3
-1.250, 3.440e-3
-1.251, 3.446e-3
-1.252, 3.456e-3
-1.253, 3.459e-3
-1.254, 3.464e-3
-1.255, 3.476e-3
-1.256, 3.478e-3
-1.257, 3.483e-3
-1.258, 3.493e-3
-1.259, 3.498e-3
-1.260, 3.503e-3
-1.261, 3.511e-3
-1.262, 3.520e-3
-1.263, 3.526e-3
-1.264, 3.531e-3
-1.265, 3.542e-3
-1.266, 3.547e-3
-1.267, 3.551e-3
-1.268, 3.563e-3
-1.269, 3.569e-3
-1.270, 3.573e-3
-1.271, 3.582e-3
-1.272, 3.590e-3
-1.273, 3.594e-3
-1.274, 3.602e-3
-1.275, 3.613e-3
-1.276, 3.618e-3
-1.277, 3.623e-3
-1.278, 3.633e-3
-1.279, 3.640e-3
-1.280, 3.646e-3
-1.281, 3.655e-3
-1.282, 3.665e-3
-1.283, 3.670e-3
-1.284, 3.677e-3
-1.285, 3.689e-3
-1.286, 3.695e-3
-1.287, 3.700e-3
-1.288, 3.712e-3
-1.289, 3.719e-3
-1.290, 3.724e-3
-1.291, 3.736e-3
-1.292, 3.745e-3
-1.293, 3.750e-3
-1.294, 3.758e-3
-1.295, 3.770e-3
-1.296, 3.776e-3
-1.297, 3.783e-3
-1.298, 3.795e-3
-1.299, 3.802e-3
-1.300, 3.809e-3
-1.301, 3.819e-3
-1.302, 3.829e-3
-1.303, 3.835e-3
-1.304, 3.843e-3
-1.305, 3.855e-3
-1.306, 3.863e-3
-1.307, 3.868e-3
-1.308, 3.881e-3
-1.309, 3.888e-3
-1.310, 3.895e-3
-1.311, 3.906e-3
-1.312, 3.916e-3
-1.313, 3.922e-3
-1.314, 3.932e-3
-1.315, 3.943e-3
-1.316, 3.951e-3
-1.317, 3.958e-3
-1.318, 3.971e-3
-1.319, 3.981e-3
-1.320, 3.986e-3
-1.321, 3.998e-3
-1.322, 4.008e-3
-1.323, 4.014e-3
-1.324, 4.024e-3
-1.325, 4.038e-3
-1.326, 4.044e-3
-1.327, 4.051e-3
-1.328, 4.065e-3
-1.329, 4.073e-3
-1.330, 4.080e-3
-1.331, 4.092e-3
-1.332, 4.102e-3
-1.333, 4.111e-3
-1.334, 4.119e-3
-1.335, 4.133e-3
-1.336, 4.141e-3
-1.337, 4.147e-3
-1.338, 4.162e-3
-1.339, 4.170e-3
-1.340, 4.175e-3
-1.341, 4.188e-3
-1.342, 4.198e-3
-1.343, 4.205e-3
-1.344, 4.215e-3
-1.345, 4.227e-3
-1.346, 4.235e-3
-1.347, 4.243e-3
-1.348, 4.257e-3
-1.349, 4.265e-3
-1.350, 4.272e-3
-1.351, 4.284e-3
-1.352, 4.294e-3
-1.353, 4.303e-3
-1.354, 4.311e-3
-1.355, 4.324e-3
-1.356, 4.334e-3
-1.357, 4.340e-3
-1.358, 4.353e-3
-1.359, 4.363e-3
-1.360, 4.367e-3
-1.361, 4.380e-3
-1.362, 4.391e-3
-1.363, 4.398e-3
-1.364, 4.410e-3
-1.365, 4.422e-3
-1.366, 4.432e-3
-1.367, 4.441e-3
-1.368, 4.455e-3
-1.369, 4.467e-3
-1.370, 4.474e-3
-1.371, 4.488e-3
-1.372, 4.502e-3
-1.373, 4.509e-3
-1.374, 4.521e-3
-1.375, 4.537e-3
-1.376, 4.546e-3
-1.377, 4.558e-3
-1.378, 4.574e-3
-1.379, 4.585e-3
-1.380, 4.597e-3
-1.381, 4.612e-3
-1.382, 4.629e-3
-1.383, 4.641e-3
-1.384, 4.657e-3
-1.385, 4.675e-3
-1.386, 4.688e-3
-1.387, 4.702e-3
-1.388, 4.722e-3
-1.389, 4.739e-3
-1.390, 4.754e-3
-1.391, 4.775e-3
-1.392, 4.796e-3
-1.393, 4.812e-3
-1.394, 4.834e-3
-1.395, 4.860e-3
-1.396, 4.881e-3
-1.397, 4.903e-3
-1.398, 4.932e-3
-1.399, 4.958e-3
-1.400, 4.867e-3
-1.399, 4.692e-3
-1.398, 4.557e-3
-1.397, 4.441e-3
-1.396, 4.342e-3
-1.395, 4.253e-3
-1.394, 4.168e-3
-1.393, 4.088e-3
-1.392, 4.018e-3
-1.391, 3.948e-3
-1.390, 3.877e-3
-1.389, 3.816e-3
-1.388, 3.755e-3
-1.387, 3.692e-3
-1.386, 3.635e-3
-1.385, 3.582e-3
-1.384, 3.525e-3
-1.383, 3.468e-3
-1.382, 3.418e-3
-1.381, 3.367e-3
-1.380, 3.313e-3
-1.379, 3.266e-3
-1.378, 3.219e-3
-1.377, 3.167e-3
-1.376, 3.121e-3
-1.375, 3.077e-3
-1.374, 3.029e-3
-1.373, 2.982e-3
-1.372, 2.941e-3
-1.371, 2.898e-3
-1.370, 2.850e-3
-1.369, 2.809e-3
-1.368, 2.769e-3
-1.367, 2.722e-3
-1.366, 2.682e-3
-1.365, 2.643e-3
-1.364, 2.600e-3
-1.363, 2.558e-3
-1.362, 2.520e-3
-1.361, 2.479e-3
-1.360, 2.437e-3
-1.359, 2.400e-3
-1.358, 2.361e-3
-1.357, 2.318e-3
-1.356, 2.280e-3
-1.355, 2.245e-3
-1.354, 2.205e-3
-1.353, 2.166e-3
-1.352, 2.133e-3
-1.351, 2.095e-3
-1.350, 2.054e-3
-1.349, 2.021e-3
-1.348, 1.987e-3
-1.347, 1.947e-3
-1.346, 1.912e-3
-1.345, 1.880e-3
-1.344, 1.842e-3
-1.343, 1.806e-3
-1.342, 1.775e-3
-1.341, 1.741e-3
-1.340, 1.704e-3
-1.339, 1.673e-3
-1.338, 1.642e-3
-1.337, 1.605e-3
-1.336, 1.574e-3
-1.335, 1.544e-3
-1.334, 1.509e-3
-1.333, 1.476e-3
-1.332, 1.448e-3
-1.331, 1.417e-3
-1.330, 1.384e-3
-1.329, 1.355e-3
-1.328, 1.327e-3
-1.327, 1.294e-3
-1.326, 1.265e-3
-1.325, 1.239e-3
-1.324, 1.209e-3
-1.323, 1.180e-3
-1.322, 1.155e-3
-1.321, 1.127e-3
-1.320, 1.096e-3
-1.319, 1.072e-3
-1.318, 1.046e-3
-1.317, 1.016e-3
-1.316, 9.910e-4
-1.315, 9.682e-4
-1.314, 9.396e-4
-1.313, 9.130e-4
-1.312, 8.911e-4
-1.311, 8.661e-4
-1.310, 8.392e-4
-1.309, 8.180e-4
-1.308, 7.943e-4
-1.307, 7.675e-4
-1.306, 7.447e-4
-1.305, 7.241e-4
-1.304, 6.998e-4
-1.303, 6.756e-4
-1.302, 6.571e-4
-1.301, 6.344e-4
-1.300, 6.101e-4
-1.299, 5.911e-4
-1.298, 5.720e-4
-1.297, 5.474e-4
-1.296, 5.283e-4
-1.295, 5.105e-4
-1.294, 4.870e-4
-1.293, 4.666e-4
-1.292, 4.497e-4
-1.291, 4.297e-4
-1.290, 4.079e-4
-1.289, 3.913e-4
-1.288, 3.747e-4
-1.287, 3.523e-4
-1.286, 3.348e-4
-1.285, 3.201e-4
-1.284, 2.988e-4
-1.283, 2.803e-4
-1.282, 2.658e-4
-1.281, 2.475e-4
-1.280, 2.266e-4
-1.279, 2.121e-4
-1.278, 1.975e-4
-1.277, 1.776e-4
-1.276, 1.616e-4
-1.275, 1.485e-4
-1.274, 1.296e-4
-1.273, 1.126e-4
-1.272, 1.007e-4
-1.271, 8.387e-5
-1.270, 6.514e-5
-1.269, 5.266e-5
-1.268, 3.872e-5
-1.267, 1.947e-5
-1.266, 5.040e-6
-1.265, -7.184e-6
-1.264, -2.373e-5
-1.263, -4.004e-5
-1.262, -5.135e-5
-1.261, -6.647e-5
-1.260, -8.348e-5
-1.259, -9.509e-5
-1.258, -1.078e-4
-1.257, -1.257e-4
-1.256, -1.380e-4
-1.255, -1.489e-4
-1.254, -1.659e-4
-1.253, -1.803e-4
-1.252, -1.902e-4
-1.251, -2.040e-4
-1.250, -2.206e-4
-1.249, -2.313e-4
-1.248, -2.427e-4
-1.247, -2.594e-4
-1.246, -2.714e-4
-1.245, -2.811e-4
-1.244, -2.967e-4
-1.243, -3.106e-4
-1.242, -3.197e-4
-1.241, -3.341e-4
-1.240, -3.491e-4
-1.239, -3.591e-4
-1.238, -3.701e-4
-1.237, -3.848e-4
-1.236, -3.961e-4
-1.235, -4.054e-4
-1.234, -4.197e-4
-1.233, -4.337e-4
-1.232, -4.421e-4
-1.231, -4.557e-4
-1.230, -4.712e-4
-1.229, -4.830e-4
-1.228, -4.943e-4
-1.227, -5.091e-4
-1.226, -5.195e-4
-1.225, -5.287e-4
-1.224, -5.422e-4
-1.223, -5.556e-4
-1.222, -5.640e-4
-1.221, -5.753e-4
-1.220, -5.907e-4
-1.219, -6.001e-4
-1.218, -6.099e-4
-1.217, -6.260e-4
-1.216, -6.358e-4
-1.215, -6.448e-4
-1.214, -6.595e-4
-1.213, -6.719e-4
-1.212, -6.802e-4
-1.211, -6.925e-4
-1.210, -7.074e-4
-1.209, -7.165e-4
-1.208, -7.256e-4
-1.207, -7.409e-4
-1.206, -7.518e-4
-1.205, -7.599e-4
-1.204, -7.750e-4
-1.203, -7.874e-4
-1.202, -7.960e-4
-1.201, -8.086e-4
-1.200, -8.222e-4
-1.199, -8.320e-4
-1.198, -8.416e-4
-1.197, -8.567e-4
-1.196, -8.667e-4
-1.195, -8.749e-4
-1.194, -8.899e-4
-1.193, -9.029e-4
-1.192, -9.101e-4
-1.191, -9.225e-4
-1.190, -9.370e-4
-1.189, -9.458e-4
-1.188, -9.552e-4
-1.187, -9.698e-4
-1.186, -9.797e-4
-1.185, -9.880e-4
-1.184, -1.002e-3
-1.183, -1.015e-3
-1.182, -1.023e-3
-1.181, -1.034e-3
-1.180, -1.049e-3
-1.179, -1.058e-3
-1.178, -1.069e-3
-1.177, -1.084e-3
-1.176, -1.094e-3
-1.175, -1.102e-3
-1.174, -1.116e-3
-1.173, -1.129e-3
-1.172, -1.137e-3
-1.171, -1.149e-3
-1.170, -1.162e-3
-1.169, -1.171e-3
-1.168, -1.180e-3
-1.167, -1.195e-3
-1.166, -1.206e-3
-1.165, -1.214e-3
-1.164, -1.227e-3
-1.163, -1.240e-3
-1.162, -1.247e-3
-1.161, -1.260e-3
-1.160, -1.274e-3
-1.159, -1.283e-3
-1.158, -1.294e-3
-1.157, -1.308e-3
-1.156, -1.318e-3
-1.155, -1.326e-3
-1.154, -1.340e-3
-1.153, -1.353e-3
-1.152, -1.360e-3
-1.151, -1.372e-3
-1.150, -1.387e-3
-1.149, -1.395e-3
-1.148, -1.405e-3
-1.147, -1.420e-3
-1.146, -1.430e-3
-1.145, -1.439e-3
-1.144, -1.453e-3
-1.143, -1.465e-3
-1.142, -1.473e-3
-1.141, -1.485e-3
-1.140, -1.499e-3
-1.139, -1.508e-3
-1.138, -1.518e-3
-1.137, -1.533e-3
-1.136, -1.543e-3
-1.135, -1.552e-3
-1.134, -1.567e-3
-1.133, -1.579e-3
-1.132, -1.587e-3
-1.131, -1.600e-3
-1.130, -1.613e-3
-1.129, -1.623e-3
-1.128, -1.632e-3
-1.127, -1.647e-3
-1.126, -1.658e-3
-1.125, -1.666e-3
-1.124, -1.681e-3
-1.123, -1.693e-3
-1.122, -1.701e-3
-1.121, -1.714e-3
-1.120, -1.727e-3
-1.119, -1.737e-3
-1.118, -1.748e-3
-1.117, -1.762e-3
-1.116, -1.774e-3
-1.115, -1.782e-3
-1.114, -1.797e-3
-1.113, -1.811e-3
-1.112, -1.818e-3
-1.111, -1.831e-3
-1.110, -1.846e-3
-1.109, -1.854e-3
-1.108, -1.865e-3
-1.107, -1.879e-3
-1.106, -1.889e-3
-1.105, -1.899e-3
-1.104, -1.912e-3
-1.103, -1.926e-3
-1.102, -1.935e-3
-1.101, -1.946e-3
-1.100, -1.960e-3
-1.099, -1.970e-3
-1.098, -1.979e-3
-1.097, -1.995e-3
-1.096, -2.005e-3
-1.095, -2.015e-3
-1.094, -2.030e-3
-1.093, -2.043e-3
-1.092, -2.052e-3
-1.091, -2.065e-3
-1.090, -2.079e-3
-1.089, -2.088e-3
-1.088, -2.098e-3
-1.087, -2.114e-3
-1.086, -2.125e-3
-1.085, -2.134e-3
-1.084, -2.150e-3
-1.083, -2.164e-3
-1.082, -2.172e-3
-1.081, -2.186e-3
-1.080, -2.200e-3
-1.079, -2.209e-3
-1.078, -2.221e-3
-1.077, -2.237e-3
-1.076, -2.249e-3
-1.075, -2.259e-3
-1.074, -2.274e-3
-1.073, -2.287e-3
-1.072, -2.296e-3
-1.071, -2.310e-3
-1.070, -2.325e-3
-1.069, -2.336e-3
-1.068, -2.346e-3
-1.067, -2.363e-3
-1.066, -2.374e-3
-1.065, -2.384e-3
-1.064, -2.398e-3
-1.063, -2.412e-3
-1.062, -2.421e-3
-1.061, -2.434e-3
-1.060, -2.449e-3
-1.059, -2.460e-3
-1.058, -2.470e-3
-1.057, -2.486e-3
-1.056, -2.498e-3
-1.055, -2.507e-3
-1.054, -2.523e-3
-1.053, -2.537e-3
-1.052, -2.545e-3
-1.051, -2.559e-3
-1.050, -2.574e-3
-1.049, -2.585e-3
-1.048, -2.595e-3
-1.047, -2.612e-3
-1.046, -2.623e-3
-1.045, -2.633e-3
-1.044, -2.648e-3
-1.043, -2.662e-3
-1.042, -2.671e-3
-1.041, -2.685e-3
-1.040, -2.699e-3
-1.039, -2.709e-3
-1.038, -2.720e-3
-1.037, -2.736e-3
-1.036, -2.747e-3
-1.035, -2.756e-3
-1.034, -2.770e-3
-1.033, -2.783e-3
-1.032, -2.790e-3
-1.031, -2.804e-3
-1.030, -2.819e-3
-1.029, -2.828e-3
-1.028, -2.840e-3
-1.027, -2.855e-3
-1.026, -2.867e-3
-1.025, -2.878e-3
-1.024, -2.892e-3
-1.023, -2.906e-3
-1.022, -2.915e-3
-1.021, -2.928e-3
-1.020, -2.943e-3
-1.019, -2.950e-3
-1.018, -2.961e-3
-1.017, -2.977e-3
-1.016, -2.987e-3
-1.015, -2.997e-3
-1.014, -3.010e-3
-1.013, -3.024e-3
-1.012, -3.033e-3
-1.011, -3.047e-3
-1.010, -3.061e-3
-1.009, -3.070e-3
-1.008, -3.081e-3
-1.007, -3.097e-3
-1.006, -3.107e-3
-1.005, -3.116e-3
-1.004, -3.129e-3
-1.003, -3.143e-3
-1.002, -3.152e-3
-1.001, -3.164e-3
