Oct. 1, 2024   08:08:07
Cyclic Voltammetry
File: c:/users/guazh/data/20240922_batch_417_500/2024-09-22-exp498\exp498-2024-10-01t07_52_14-arkoh\exp498_cv_sr_800mvs_efin_-1600mv.bin
Data Source:  Experiment
Instrument Model:  CHI760E
Header: CV ran at 800 mVs
Note: 

Init E (V) = -1
High E (V) = -1
Low E (V) = -1.6
Final E (V) = -1
Init P/N = N
Scan Rate (V/s) = 0.8
Segment = 3
Sample Interval (V) = 0.001
Quiet Time (sec) = 2
Sensitivity (A/V) = 0.01
Comp R (ohm) = 2.2

Results:

Channel 1:
Segment 1:

Segment 2:

Segment 3:

Potential/V, Current/A

-1.000, 1.249e-5
-1.001, 2.790e-5
-1.002, 3.099e-5
-1.003, 2.790e-5
-1.004, 3.099e-5
-1.005, 3.099e-5
-1.006, 3.407e-5
-1.007, 3.407e-5
-1.008, 3.099e-5
-1.009, 3.099e-5
-1.010, 3.099e-5
-1.011, 3.099e-5
-1.012, 3.407e-5
-1.013, 3.407e-5
-1.014, 3.407e-5
-1.015, 3.407e-5
-1.016, 3.407e-5
-1.017, 3.407e-5
-1.018, 3.407e-5
-1.019, 3.407e-5
-1.020, 3.407e-5
-1.021, 3.099e-5
-1.022, 3.407e-5
-1.023, 3.407e-5
-1.024, 3.407e-5
-1.025, 3.407e-5
-1.026, 3.407e-5
-1.027, 3.099e-5
-1.028, 3.407e-5
-1.029, 3.407e-5
-1.030, 3.407e-5
-1.031, 3.407e-5
-1.032, 3.407e-5
-1.033, 3.407e-5
-1.034, 3.715e-5
-1.035, 3.407e-5
-1.036, 3.407e-5
-1.037, 3.407e-5
-1.038, 3.407e-5
-1.039, 3.407e-5
-1.040, 3.715e-5
-1.041, 3.715e-5
-1.042, 3.407e-5
-1.043, 3.407e-5
-1.044, 3.407e-5
-1.045, 3.407e-5
-1.046, 3.407e-5
-1.047, 3.715e-5
-1.048, 3.407e-5
-1.049, 3.407e-5
-1.050, 3.407e-5
-1.051, 3.407e-5
-1.052, 3.407e-5
-1.053, 3.715e-5
-1.054, 3.407e-5
-1.055, 3.407e-5
-1.056, 3.407e-5
-1.057, 3.715e-5
-1.058, 3.715e-5
-1.059, 3.715e-5
-1.060, 3.715e-5
-1.061, 3.715e-5
-1.062, 3.715e-5
-1.063, 3.715e-5
-1.064, 3.715e-5
-1.065, 3.715e-5
-1.066, 3.715e-5
-1.067, 3.715e-5
-1.068, 3.715e-5
-1.069, 3.715e-5
-1.070, 3.715e-5
-1.071, 4.024e-5
-1.072, 3.407e-5
-1.073, 3.715e-5
-1.074, 3.715e-5
-1.075, 3.715e-5
-1.076, 3.715e-5
-1.077, 3.715e-5
-1.078, 3.715e-5
-1.079, 3.715e-5
-1.080, 3.715e-5
-1.081, 3.715e-5
-1.082, 3.715e-5
-1.083, 3.715e-5
-1.084, 3.715e-5
-1.085, 4.024e-5
-1.086, 3.715e-5
-1.087, 4.024e-5
-1.088, 3.715e-5
-1.089, 3.715e-5
-1.090, 3.715e-5
-1.091, 3.715e-5
-1.092, 3.715e-5
-1.093, 3.715e-5
-1.094, 3.715e-5
-1.095, 3.715e-5
-1.096, 4.024e-5
-1.097, 4.024e-5
-1.098, 4.024e-5
-1.099, 4.024e-5
-1.100, 4.024e-5
-1.101, 4.024e-5
-1.102, 3.715e-5
-1.103, 4.024e-5
-1.104, 4.024e-5
-1.105, 3.715e-5
-1.106, 3.715e-5
-1.107, 3.715e-5
-1.108, 4.024e-5
-1.109, 4.024e-5
-1.110, 4.024e-5
-1.111, 4.024e-5
-1.112, 4.024e-5
-1.113, 4.024e-5
-1.114, 4.024e-5
-1.115, 4.024e-5
-1.116, 4.024e-5
-1.117, 3.715e-5
-1.118, 4.024e-5
-1.119, 4.024e-5
-1.120, 4.024e-5
-1.121, 4.024e-5
-1.122, 4.024e-5
-1.123, 3.715e-5
-1.124, 4.024e-5
-1.125, 4.024e-5
-1.126, 4.024e-5
-1.127, 4.332e-5
-1.128, 4.024e-5
-1.129, 4.024e-5
-1.130, 4.024e-5
-1.131, 4.024e-5
-1.132, 4.024e-5
-1.133, 4.024e-5
-1.134, 4.024e-5
-1.135, 4.024e-5
-1.136, 4.024e-5
-1.137, 4.024e-5
-1.138, 4.024e-5
-1.139, 4.332e-5
-1.140, 4.024e-5
-1.141, 4.024e-5
-1.142, 4.024e-5
-1.143, 4.332e-5
-1.144, 4.332e-5
-1.145, 4.332e-5
-1.146, 4.024e-5
-1.147, 4.024e-5
-1.148, 4.332e-5
-1.149, 4.332e-5
-1.150, 4.332e-5
-1.151, 4.024e-5
-1.152, 4.024e-5
-1.153, 4.332e-5
-1.154, 4.332e-5
-1.155, 4.024e-5
-1.156, 4.332e-5
-1.157, 4.332e-5
-1.158, 4.024e-5
-1.159, 4.024e-5
-1.160, 4.024e-5
-1.161, 4.332e-5
-1.162, 4.332e-5
-1.163, 4.024e-5
-1.164, 4.024e-5
-1.165, 4.332e-5
-1.166, 4.332e-5
-1.167, 4.332e-5
-1.168, 4.024e-5
-1.169, 4.332e-5
-1.170, 4.024e-5
-1.171, 4.332e-5
-1.172, 4.332e-5
-1.173, 4.332e-5
-1.174, 4.332e-5
-1.175, 4.332e-5
-1.176, 4.332e-5
-1.177, 4.332e-5
-1.178, 4.332e-5
-1.179, 4.332e-5
-1.180, 4.332e-5
-1.181, 4.332e-5
-1.182, 4.332e-5
-1.183, 4.640e-5
-1.184, 4.332e-5
-1.185, 4.332e-5
-1.186, 4.332e-5
-1.187, 4.332e-5
-1.188, 4.640e-5
-1.189, 4.332e-5
-1.190, 4.640e-5
-1.191, 4.640e-5
-1.192, 4.640e-5
-1.193, 4.640e-5
-1.194, 4.640e-5
-1.195, 4.640e-5
-1.196, 4.640e-5
-1.197, 4.332e-5
-1.198, 4.332e-5
-1.199, 4.332e-5
-1.200, 4.640e-5
-1.201, 4.640e-5
-1.202, 4.640e-5
-1.203, 4.332e-5
-1.204, 4.640e-5
-1.205, 4.949e-5
-1.206, 4.640e-5
-1.207, 4.640e-5
-1.208, 4.640e-5
-1.209, 4.949e-5
-1.210, 4.640e-5
-1.211, 4.640e-5
-1.212, 4.949e-5
-1.213, 4.949e-5
-1.214, 4.949e-5
-1.215, 4.640e-5
-1.216, 4.949e-5
-1.217, 4.949e-5
-1.218, 4.949e-5
-1.219, 5.257e-5
-1.220, 5.257e-5
-1.221, 4.949e-5
-1.222, 5.257e-5
-1.223, 4.949e-5
-1.224, 5.257e-5
-1.225, 4.949e-5
-1.226, 5.257e-5
-1.227, 5.257e-5
-1.228, 5.257e-5
-1.229, 5.257e-5
-1.230, 5.565e-5
-1.231, 5.257e-5
-1.232, 5.257e-5
-1.233, 5.257e-5
-1.234, 5.565e-5
-1.235, 5.565e-5
-1.236, 5.565e-5
-1.237, 5.565e-5
-1.238, 5.565e-5
-1.239, 5.565e-5
-1.240, 5.873e-5
-1.241, 5.565e-5
-1.242, 5.565e-5
-1.243, 5.565e-5
-1.244, 5.873e-5
-1.245, 5.873e-5
-1.246, 5.873e-5
-1.247, 6.182e-5
-1.248, 5.873e-5
-1.249, 5.873e-5
-1.250, 6.182e-5
-1.251, 6.182e-5
-1.252, 6.490e-5
-1.253, 6.182e-5
-1.254, 6.182e-5
-1.255, 6.490e-5
-1.256, 6.490e-5
-1.257, 6.798e-5
-1.258, 6.798e-5
-1.259, 6.798e-5
-1.260, 6.798e-5
-1.261, 6.798e-5
-1.262, 6.798e-5
-1.263, 7.107e-5
-1.264, 7.107e-5
-1.265, 7.107e-5
-1.266, 7.107e-5
-1.267, 7.107e-5
-1.268, 7.415e-5
-1.269, 7.415e-5
-1.270, 7.723e-5
-1.271, 7.723e-5
-1.272, 7.723e-5
-1.273, 8.032e-5
-1.274, 8.032e-5
-1.275, 8.032e-5
-1.276, 8.032e-5
-1.277, 8.032e-5
-1.278, 8.032e-5
-1.279, 8.340e-5
-1.280, 8.340e-5
-1.281, 8.648e-5
-1.282, 8.648e-5
-1.283, 8.648e-5
-1.284, 8.957e-5
-1.285, 8.957e-5
-1.286, 9.265e-5
-1.287, 9.573e-5
-1.288, 9.265e-5
-1.289, 9.265e-5
-1.290, 9.573e-5
-1.291, 9.882e-5
-1.292, 9.882e-5
-1.293, 9.882e-5
-1.294, 9.882e-5
-1.295, 1.050e-4
-1.296, 1.050e-4
-1.297, 1.081e-4
-1.298, 1.081e-4
-1.299, 1.111e-4
-1.300, 1.111e-4
-1.301, 1.142e-4
-1.302, 1.142e-4
-1.303, 1.173e-4
-1.304, 1.173e-4
-1.305, 1.204e-4
-1.306, 1.204e-4
-1.307, 1.235e-4
-1.308, 1.266e-4
-1.309, 1.266e-4
-1.310, 1.296e-4
-1.311, 1.296e-4
-1.312, 1.327e-4
-1.313, 1.358e-4
-1.314, 1.389e-4
-1.315, 1.389e-4
-1.316, 1.420e-4
-1.317, 1.451e-4
-1.318, 1.451e-4
-1.319, 1.481e-4
-1.320, 1.512e-4
-1.321, 1.543e-4
-1.322, 1.574e-4
-1.323, 1.574e-4
-1.324, 1.636e-4
-1.325, 1.636e-4
-1.326, 1.666e-4
-1.327, 1.697e-4
-1.328, 1.728e-4
-1.329, 1.759e-4
-1.330, 1.790e-4
-1.331, 1.821e-4
-1.332, 1.851e-4
-1.333, 1.882e-4
-1.334, 1.944e-4
-1.335, 1.944e-4
-1.336, 2.006e-4
-1.337, 2.006e-4
-1.338, 2.098e-4
-1.339, 2.098e-4
-1.340, 2.129e-4
-1.341, 2.160e-4
-1.342, 2.221e-4
-1.343, 2.252e-4
-1.344, 2.283e-4
-1.345, 2.314e-4
-1.346, 2.376e-4
-1.347, 2.406e-4
-1.348, 2.468e-4
-1.349, 2.499e-4
-1.350, 2.561e-4
-1.351, 2.591e-4
-1.352, 2.622e-4
-1.353, 2.684e-4
-1.354, 2.746e-4
-1.355, 2.776e-4
-1.356, 2.869e-4
-1.357, 2.869e-4
-1.358, 2.931e-4
-1.359, 2.992e-4
-1.360, 3.054e-4
-1.361, 3.085e-4
-1.362, 3.146e-4
-1.363, 3.208e-4
-1.364, 3.270e-4
-1.365, 3.331e-4
-1.366, 3.393e-4
-1.367, 3.485e-4
-1.368, 3.516e-4
-1.369, 3.578e-4
-1.370, 3.640e-4
-1.371, 3.732e-4
-1.372, 3.794e-4
-1.373, 3.855e-4
-1.374, 3.917e-4
-1.375, 4.010e-4
-1.376, 4.071e-4
-1.377, 4.164e-4
-1.378, 4.225e-4
-1.379, 4.318e-4
-1.380, 4.380e-4
-1.381, 4.472e-4
-1.382, 4.534e-4
-1.383, 4.626e-4
-1.384, 4.688e-4
-1.385, 4.811e-4
-1.386, 4.904e-4
-1.387, 4.996e-4
-1.388, 5.089e-4
-1.389, 5.181e-4
-1.390, 5.274e-4
-1.391, 5.366e-4
-1.392, 5.428e-4
-1.393, 5.551e-4
-1.394, 5.644e-4
-1.395, 5.736e-4
-1.396, 5.829e-4
-1.397, 5.921e-4
-1.398, 6.014e-4
-1.399, 6.137e-4
-1.400, 6.229e-4
-1.401, 6.322e-4
-1.402, 6.445e-4
-1.403, 6.569e-4
-1.404, 6.692e-4
-1.405, 6.784e-4
-1.406, 6.939e-4
-1.407, 7.062e-4
-1.408, 7.154e-4
-1.409, 7.278e-4
-1.410, 7.401e-4
-1.411, 7.524e-4
-1.412, 7.648e-4
-1.413, 7.771e-4
-1.414, 7.894e-4
-1.415, 8.048e-4
-1.416, 8.172e-4
-1.417, 8.326e-4
-1.418, 8.449e-4
-1.419, 8.573e-4
-1.420, 8.727e-4
-1.421, 8.881e-4
-1.422, 9.004e-4
-1.423, 9.158e-4
-1.424, 9.282e-4
-1.425, 9.405e-4
-1.426, 9.559e-4
-1.427, 9.683e-4
-1.428, 9.837e-4
-1.429, 9.991e-4
-1.430, 1.011e-3
-1.431, 1.024e-3
-1.432, 1.039e-3
-1.433, 1.058e-3
-1.434, 1.073e-3
-1.435, 1.085e-3
-1.436, 1.104e-3
-1.437, 1.116e-3
-1.438, 1.132e-3
-1.439, 1.147e-3
-1.440, 1.166e-3
-1.441, 1.181e-3
-1.442, 1.199e-3
-1.443, 1.212e-3
-1.444, 1.230e-3
-1.445, 1.246e-3
-1.446, 1.264e-3
-1.447, 1.280e-3
-1.448, 1.295e-3
-1.449, 1.314e-3
-1.450, 1.329e-3
-1.451, 1.347e-3
-1.452, 1.363e-3
-1.453, 1.381e-3
-1.454, 1.397e-3
-1.455, 1.415e-3
-1.456, 1.431e-3
-1.457, 1.452e-3
-1.458, 1.471e-3
-1.459, 1.486e-3
-1.460, 1.505e-3
-1.461, 1.523e-3
-1.462, 1.539e-3
-1.463, 1.560e-3
-1.464, 1.576e-3
-1.465, 1.591e-3
-1.466, 1.613e-3
-1.467, 1.628e-3
-1.468, 1.650e-3
-1.469, 1.668e-3
-1.470, 1.687e-3
-1.471, 1.705e-3
-1.472, 1.727e-3
-1.473, 1.745e-3
-1.474, 1.764e-3
-1.475, 1.782e-3
-1.476, 1.801e-3
-1.477, 1.816e-3
-1.478, 1.835e-3
-1.479, 1.853e-3
-1.480, 1.872e-3
-1.481, 1.890e-3
-1.482, 1.906e-3
-1.483, 1.927e-3
-1.484, 1.949e-3
-1.485, 1.967e-3
-1.486, 1.986e-3
-1.487, 2.007e-3
-1.488, 2.023e-3
-1.489, 2.044e-3
-1.490, 2.063e-3
-1.491, 2.084e-3
-1.492, 2.103e-3
-1.493, 2.121e-3
-1.494, 2.140e-3
-1.495, 2.164e-3
-1.496, 2.183e-3
-1.497, 2.205e-3
-1.498, 2.223e-3
-1.499, 2.242e-3
-1.500, 2.260e-3
-1.501, 2.282e-3
-1.502, 2.306e-3
-1.503, 2.328e-3
-1.504, 2.346e-3
-1.505, 2.368e-3
-1.506, 2.383e-3
-1.507, 2.399e-3
-1.508, 2.414e-3
-1.509, 2.430e-3
-1.510, 2.445e-3
-1.511, 2.467e-3
-1.512, 2.482e-3
-1.513, 2.504e-3
-1.514, 2.525e-3
-1.515, 2.553e-3
-1.516, 2.584e-3
-1.517, 2.615e-3
-1.518, 2.649e-3
-1.519, 2.682e-3
-1.520, 2.710e-3
-1.521, 2.729e-3
-1.522, 2.741e-3
-1.523, 2.744e-3
-1.524, 2.741e-3
-1.525, 2.741e-3
-1.526, 2.744e-3
-1.527, 2.750e-3
-1.528, 2.775e-3
-1.529, 2.815e-3
-1.530, 2.852e-3
-1.531, 2.892e-3
-1.532, 2.926e-3
-1.533, 2.957e-3
-1.534, 2.982e-3
-1.535, 3.003e-3
-1.536, 3.009e-3
-1.537, 3.012e-3
-1.538, 3.015e-3
-1.539, 3.031e-3
-1.540, 3.049e-3
-1.541, 3.068e-3
-1.542, 3.074e-3
-1.543, 3.089e-3
-1.544, 3.117e-3
-1.545, 3.148e-3
-1.546, 3.176e-3
-1.547, 3.200e-3
-1.548, 3.228e-3
-1.549, 3.259e-3
-1.550, 3.287e-3
-1.551, 3.305e-3
-1.552, 3.327e-3
-1.553, 3.348e-3
-1.554, 3.373e-3
-1.555, 3.395e-3
-1.556, 3.422e-3
-1.557, 3.450e-3
-1.558, 3.472e-3
-1.559, 3.493e-3
-1.560, 3.506e-3
-1.561, 3.521e-3
-1.562, 3.546e-3
-1.563, 3.561e-3
-1.564, 3.580e-3
-1.565, 3.601e-3
-1.566, 3.635e-3
-1.567, 3.660e-3
-1.568, 3.681e-3
-1.569, 3.694e-3
-1.570, 3.715e-3
-1.571, 3.731e-3
-1.572, 3.746e-3
-1.573, 3.762e-3
-1.574, 3.780e-3
-1.575, 3.802e-3
-1.576, 3.823e-3
-1.577, 3.845e-3
-1.578, 3.863e-3
-1.579, 3.888e-3
-1.580, 3.919e-3
-1.581, 3.950e-3
-1.582, 3.980e-3
-1.583, 4.014e-3
-1.584, 4.048e-3
-1.585, 4.079e-3
-1.586, 4.104e-3
-1.587, 4.125e-3
-1.588, 4.138e-3
-1.589, 4.150e-3
-1.590, 4.162e-3
-1.591, 4.178e-3
-1.592, 4.196e-3
-1.593, 4.218e-3
-1.594, 4.246e-3
-1.595, 4.264e-3
-1.596, 4.289e-3
-1.597, 4.310e-3
-1.598, 4.335e-3
-1.599, 4.360e-3
-1.600, 4.366e-3
-1.599, 4.338e-3
-1.598, 4.313e-3
-1.597, 4.289e-3
-1.596, 4.267e-3
-1.595, 4.243e-3
-1.594, 4.218e-3
-1.593, 4.187e-3
-1.592, 4.159e-3
-1.591, 4.128e-3
-1.590, 4.098e-3
-1.589, 4.067e-3
-1.588, 4.027e-3
-1.587, 3.996e-3
-1.586, 3.968e-3
-1.585, 3.937e-3
-1.584, 3.910e-3
-1.583, 3.888e-3
-1.582, 3.863e-3
-1.581, 3.836e-3
-1.580, 3.808e-3
-1.579, 3.783e-3
-1.578, 3.749e-3
-1.577, 3.721e-3
-1.576, 3.688e-3
-1.575, 3.660e-3
-1.574, 3.629e-3
-1.573, 3.601e-3
-1.572, 3.573e-3
-1.571, 3.546e-3
-1.570, 3.521e-3
-1.569, 3.499e-3
-1.568, 3.478e-3
-1.567, 3.456e-3
-1.566, 3.435e-3
-1.565, 3.413e-3
-1.564, 3.388e-3
-1.563, 3.364e-3
-1.562, 3.339e-3
-1.561, 3.311e-3
-1.560, 3.287e-3
-1.559, 3.259e-3
-1.558, 3.231e-3
-1.557, 3.204e-3
-1.556, 3.176e-3
-1.555, 3.151e-3
-1.554, 3.123e-3
-1.553, 3.096e-3
-1.552, 3.071e-3
-1.551, 3.040e-3
-1.550, 3.015e-3
-1.549, 2.994e-3
-1.548, 2.966e-3
-1.547, 2.948e-3
-1.546, 2.923e-3
-1.545, 2.898e-3
-1.544, 2.877e-3
-1.543, 2.855e-3
-1.542, 2.834e-3
-1.541, 2.806e-3
-1.540, 2.778e-3
-1.539, 2.756e-3
-1.538, 2.729e-3
-1.537, 2.698e-3
-1.536, 2.676e-3
-1.535, 2.649e-3
-1.534, 2.627e-3
-1.533, 2.602e-3
-1.532, 2.578e-3
-1.531, 2.559e-3
-1.530, 2.534e-3
-1.529, 2.510e-3
-1.528, 2.485e-3
-1.527, 2.460e-3
-1.526, 2.442e-3
-1.525, 2.417e-3
-1.524, 2.396e-3
-1.523, 2.371e-3
-1.522, 2.349e-3
-1.521, 2.328e-3
-1.520, 2.306e-3
-1.519, 2.285e-3
-1.518, 2.266e-3
-1.517, 2.242e-3
-1.516, 2.223e-3
-1.515, 2.201e-3
-1.514, 2.183e-3
-1.513, 2.161e-3
-1.512, 2.140e-3
-1.511, 2.115e-3
-1.510, 2.094e-3
-1.509, 2.072e-3
-1.508, 2.047e-3
-1.507, 2.026e-3
-1.506, 2.001e-3
-1.505, 1.983e-3
-1.504, 1.964e-3
-1.503, 1.946e-3
-1.502, 1.927e-3
-1.501, 1.909e-3
-1.500, 1.890e-3
-1.499, 1.872e-3
-1.498, 1.850e-3
-1.497, 1.832e-3
-1.496, 1.813e-3
-1.495, 1.791e-3
-1.494, 1.770e-3
-1.493, 1.751e-3
-1.492, 1.736e-3
-1.491, 1.717e-3
-1.490, 1.696e-3
-1.489, 1.677e-3
-1.488, 1.662e-3
-1.487, 1.643e-3
-1.486, 1.625e-3
-1.485, 1.603e-3
-1.484, 1.585e-3
-1.483, 1.566e-3
-1.482, 1.548e-3
-1.481, 1.529e-3
-1.480, 1.511e-3
-1.479, 1.495e-3
-1.478, 1.477e-3
-1.477, 1.462e-3
-1.476, 1.446e-3
-1.475, 1.431e-3
-1.474, 1.412e-3
-1.473, 1.394e-3
-1.472, 1.378e-3
-1.471, 1.363e-3
-1.470, 1.347e-3
-1.469, 1.332e-3
-1.468, 1.310e-3
-1.467, 1.295e-3
-1.466, 1.280e-3
-1.465, 1.264e-3
-1.464, 1.246e-3
-1.463, 1.233e-3
-1.462, 1.218e-3
-1.461, 1.203e-3
-1.460, 1.187e-3
-1.459, 1.172e-3
-1.458, 1.153e-3
-1.457, 1.141e-3
-1.456, 1.122e-3
-1.455, 1.107e-3
-1.454, 1.095e-3
-1.453, 1.079e-3
-1.452, 1.067e-3
-1.451, 1.051e-3
-1.450, 1.039e-3
-1.449, 1.024e-3
-1.448, 1.011e-3
-1.447, 9.960e-4
-1.446, 9.837e-4
-1.445, 9.652e-4
-1.444, 9.559e-4
-1.443, 9.405e-4
-1.442, 9.282e-4
-1.441, 9.158e-4
-1.440, 9.004e-4
-1.439, 8.881e-4
-1.438, 8.727e-4
-1.437, 8.603e-4
-1.436, 8.480e-4
-1.435, 8.388e-4
-1.434, 8.233e-4
-1.433, 8.110e-4
-1.432, 7.956e-4
-1.431, 7.863e-4
-1.430, 7.740e-4
-1.429, 7.617e-4
-1.428, 7.494e-4
-1.427, 7.370e-4
-1.426, 7.247e-4
-1.425, 7.124e-4
-1.424, 7.031e-4
-1.423, 6.939e-4
-1.422, 6.815e-4
-1.421, 6.692e-4
-1.420, 6.569e-4
-1.419, 6.476e-4
-1.418, 6.384e-4
-1.417, 6.260e-4
-1.416, 6.137e-4
-1.415, 6.044e-4
-1.414, 5.952e-4
-1.413, 5.829e-4
-1.412, 5.736e-4
-1.411, 5.674e-4
-1.410, 5.551e-4
-1.409, 5.459e-4
-1.408, 5.366e-4
-1.407, 5.274e-4
-1.406, 5.181e-4
-1.405, 5.089e-4
-1.404, 4.996e-4
-1.403, 4.873e-4
-1.402, 4.811e-4
-1.401, 4.719e-4
-1.400, 4.626e-4
-1.399, 4.534e-4
-1.398, 4.472e-4
-1.397, 4.380e-4
-1.396, 4.318e-4
-1.395, 4.225e-4
-1.394, 4.164e-4
-1.393, 4.071e-4
-1.392, 4.010e-4
-1.391, 3.917e-4
-1.390, 3.825e-4
-1.389, 3.763e-4
-1.388, 3.701e-4
-1.387, 3.609e-4
-1.386, 3.547e-4
-1.385, 3.485e-4
-1.384, 3.424e-4
-1.383, 3.362e-4
-1.382, 3.270e-4
-1.381, 3.208e-4
-1.380, 3.146e-4
-1.379, 3.085e-4
-1.378, 2.992e-4
-1.377, 2.961e-4
-1.376, 2.900e-4
-1.375, 2.838e-4
-1.374, 2.746e-4
-1.373, 2.715e-4
-1.372, 2.653e-4
-1.371, 2.591e-4
-1.370, 2.530e-4
-1.369, 2.468e-4
-1.368, 2.437e-4
-1.367, 2.406e-4
-1.366, 2.345e-4
-1.365, 2.283e-4
-1.364, 2.221e-4
-1.363, 2.160e-4
-1.362, 2.129e-4
-1.361, 2.098e-4
-1.360, 2.036e-4
-1.359, 2.006e-4
-1.358, 1.944e-4
-1.357, 1.913e-4
-1.356, 1.851e-4
-1.355, 1.821e-4
-1.354, 1.790e-4
-1.353, 1.759e-4
-1.352, 1.697e-4
-1.351, 1.666e-4
-1.350, 1.636e-4
-1.349, 1.574e-4
-1.348, 1.543e-4
-1.347, 1.481e-4
-1.346, 1.481e-4
-1.345, 1.451e-4
-1.344, 1.389e-4
-1.343, 1.358e-4
-1.342, 1.327e-4
-1.341, 1.296e-4
-1.340, 1.266e-4
-1.339, 1.235e-4
-1.338, 1.204e-4
-1.337, 1.173e-4
-1.336, 1.142e-4
-1.335, 1.111e-4
-1.334, 1.081e-4
-1.333, 1.050e-4
-1.332, 1.019e-4
-1.331, 9.882e-5
-1.330, 9.573e-5
-1.329, 9.265e-5
-1.328, 9.265e-5
-1.327, 8.957e-5
-1.326, 8.648e-5
-1.325, 8.340e-5
-1.324, 8.032e-5
-1.323, 7.723e-5
-1.322, 7.415e-5
-1.321, 7.415e-5
-1.320, 7.107e-5
-1.319, 7.107e-5
-1.318, 6.798e-5
-1.317, 6.490e-5
-1.316, 6.490e-5
-1.315, 6.182e-5
-1.314, 6.182e-5
-1.313, 5.873e-5
-1.312, 5.565e-5
-1.311, 5.257e-5
-1.310, 5.565e-5
-1.309, 4.949e-5
-1.308, 4.949e-5
-1.307, 4.640e-5
-1.306, 4.332e-5
-1.305, 4.332e-5
-1.304, 4.024e-5
-1.303, 4.024e-5
-1.302, 4.024e-5
-1.301, 3.715e-5
-1.300, 3.407e-5
-1.299, 3.407e-5
-1.298, 3.099e-5
-1.297, 3.099e-5
-1.296, 2.790e-5
-1.295, 2.790e-5
-1.294, 2.482e-5
-1.293, 2.482e-5
-1.292, 2.482e-5
-1.291, 2.174e-5
-1.290, 2.174e-5
-1.289, 2.174e-5
-1.288, 1.865e-5
-1.287, 1.865e-5
-1.286, 1.865e-5
-1.285, 1.249e-5
-1.284, 1.557e-5
-1.283, 1.249e-5
-1.282, 1.249e-5
-1.281, 1.249e-5
-1.280, 9.405e-6
-1.279, 9.405e-6
-1.278, 6.322e-6
-1.277, 9.405e-6
-1.276, 6.322e-6
-1.275, 6.322e-6
-1.274, 6.322e-6
-1.273, 3.239e-6
-1.272, 3.239e-6
-1.271, 3.239e-6
-1.270, 3.239e-6
-1.269, 1.559e-7
-1.268, 1.559e-7
-1.267, 1.559e-7
-1.266, -2.927e-6
-1.265, -2.927e-6
-1.264, -2.927e-6
-1.263, 1.559e-7
-1.262, -2.927e-6
-1.261, -6.010e-6
-1.260, -6.010e-6
-1.259, -6.010e-6
-1.258, -6.010e-6
-1.257, -6.010e-6
-1.256, -9.093e-6
-1.255, -9.093e-6
-1.254, -9.093e-6
-1.253, -9.093e-6
-1.252, -9.093e-6
-1.251, -1.218e-5
-1.250, -1.218e-5
-1.249, -1.218e-5
-1.248, -1.218e-5
-1.247, -1.218e-5
-1.246, -1.218e-5
-1.245, -1.526e-5
-1.244, -1.526e-5
-1.243, -1.526e-5
-1.242, -1.526e-5
-1.241, -1.526e-5
-1.240, -1.526e-5
-1.239, -1.834e-5
-1.238, -1.526e-5
-1.237, -1.834e-5
-1.236, -1.526e-5
-1.235, -1.834e-5
-1.234, -1.526e-5
-1.233, -1.834e-5
-1.232, -1.834e-5
-1.231, -2.143e-5
-1.230, -1.834e-5
-1.229, -1.834e-5
-1.228, -2.143e-5
-1.227, -2.143e-5
-1.226, -2.143e-5
-1.225, -2.143e-5
-1.224, -2.143e-5
-1.223, -2.143e-5
-1.222, -2.143e-5
-1.221, -2.143e-5
-1.220, -2.143e-5
-1.219, -2.143e-5
-1.218, -2.451e-5
-1.217, -2.143e-5
-1.216, -2.451e-5
-1.215, -2.451e-5
-1.214, -2.451e-5
-1.213, -2.451e-5
-1.212, -2.451e-5
-1.211, -2.451e-5
-1.210, -2.451e-5
-1.209, -2.451e-5
-1.208, -2.451e-5
-1.207, -2.451e-5
-1.206, -2.451e-5
-1.205, -2.759e-5
-1.204, -2.759e-5
-1.203, -2.759e-5
-1.202, -2.759e-5
-1.201, -2.759e-5
-1.200, -2.759e-5
-1.199, -2.759e-5
-1.198, -2.759e-5
-1.197, -2.759e-5
-1.196, -2.759e-5
-1.195, -2.759e-5
-1.194, -2.759e-5
-1.193, -2.759e-5
-1.192, -2.759e-5
-1.191, -2.759e-5
-1.190, -2.759e-5
-1.189, -2.759e-5
-1.188, -3.068e-5
-1.187, -3.068e-5
-1.186, -3.068e-5
-1.185, -2.759e-5
-1.184, -3.068e-5
-1.183, -3.068e-5
-1.182, -3.068e-5
-1.181, -3.068e-5
-1.180, -3.068e-5
-1.179, -2.759e-5
-1.178, -3.068e-5
-1.177, -3.068e-5
-1.176, -3.068e-5
-1.175, -3.068e-5
-1.174, -3.376e-5
-1.173, -3.068e-5
-1.172, -3.068e-5
-1.171, -3.068e-5
-1.170, -3.376e-5
-1.169, -3.068e-5
-1.168, -3.068e-5
-1.167, -3.068e-5
-1.166, -3.068e-5
-1.165, -3.376e-5
-1.164, -3.376e-5
-1.163, -3.376e-5
-1.162, -3.376e-5
-1.161, -3.068e-5
-1.160, -3.376e-5
-1.159, -3.376e-5
-1.158, -3.376e-5
-1.157, -3.376e-5
-1.156, -3.376e-5
-1.155, -3.068e-5
-1.154, -3.376e-5
-1.153, -3.376e-5
-1.152, -3.376e-5
-1.151, -3.376e-5
-1.150, -3.376e-5
-1.149, -3.376e-5
-1.148, -3.376e-5
-1.147, -3.376e-5
-1.146, -3.684e-5
-1.145, -3.376e-5
-1.144, -3.376e-5
-1.143, -3.376e-5
-1.142, -3.376e-5
-1.141, -3.376e-5
-1.140, -3.376e-5
-1.139, -3.376e-5
-1.138, -3.376e-5
-1.137, -3.684e-5
-1.136, -3.684e-5
-1.135, -3.684e-5
-1.134, -3.684e-5
-1.133, -3.684e-5
-1.132, -3.684e-5
-1.131, -3.684e-5
-1.130, -3.684e-5
-1.129, -3.684e-5
-1.128, -3.684e-5
-1.127, -3.684e-5
-1.126, -3.376e-5
-1.125, -3.684e-5
-1.124, -3.684e-5
-1.123, -3.684e-5
-1.122, -3.684e-5
-1.121, -3.684e-5
-1.120, -3.684e-5
-1.119, -3.992e-5
-1.118, -3.684e-5
-1.117, -3.684e-5
-1.116, -3.684e-5
-1.115, -3.684e-5
-1.114, -3.684e-5
-1.113, -3.684e-5
-1.112, -3.684e-5
-1.111, -3.992e-5
-1.110, -3.684e-5
-1.109, -3.684e-5
-1.108, -3.684e-5
-1.107, -3.992e-5
-1.106, -3.992e-5
-1.105, -3.684e-5
-1.104, -3.684e-5
-1.103, -3.992e-5
-1.102, -3.992e-5
-1.101, -3.992e-5
-1.100, -3.992e-5
-1.099, -3.684e-5
-1.098, -3.992e-5
-1.097, -3.992e-5
-1.096, -3.992e-5
-1.095, -3.992e-5
-1.094, -3.992e-5
-1.093, -3.992e-5
-1.092, -3.992e-5
-1.091, -3.992e-5
-1.090, -3.992e-5
-1.089, -3.992e-5
-1.088, -3.992e-5
-1.087, -3.992e-5
-1.086, -3.992e-5
-1.085, -4.301e-5
-1.084, -4.301e-5
-1.083, -4.301e-5
-1.082, -3.992e-5
-1.081, -3.992e-5
-1.080, -4.301e-5
-1.079, -4.301e-5
-1.078, -4.301e-5
-1.077, -4.301e-5
-1.076, -4.301e-5
-1.075, -4.301e-5
-1.074, -4.301e-5
-1.073, -4.301e-5
-1.072, -4.301e-5
-1.071, -4.301e-5
-1.070, -4.301e-5
-1.069, -4.301e-5
-1.068, -4.301e-5
-1.067, -4.301e-5
-1.066, -4.301e-5
-1.065, -4.301e-5
-1.064, -4.301e-5
-1.063, -4.301e-5
-1.062, -4.609e-5
-1.061, -4.301e-5
-1.060, -4.301e-5
-1.059, -4.301e-5
-1.058, -4.301e-5
-1.057, -4.301e-5
-1.056, -4.609e-5
-1.055, -4.609e-5
-1.054, -4.609e-5
-1.053, -4.301e-5
-1.052, -4.609e-5
-1.051, -4.609e-5
-1.050, -4.609e-5
-1.049, -4.609e-5
-1.048, -4.609e-5
-1.047, -4.609e-5
-1.046, -4.609e-5
-1.045, -4.609e-5
-1.044, -4.609e-5
-1.043, -4.609e-5
-1.042, -4.609e-5
-1.041, -4.609e-5
-1.040, -4.609e-5
-1.039, -4.609e-5
-1.038, -4.609e-5
-1.037, -4.609e-5
-1.036, -4.609e-5
-1.035, -4.301e-5
-1.034, -4.609e-5
-1.033, -4.609e-5
-1.032, -4.609e-5
-1.031, -4.609e-5
-1.030, -4.609e-5
-1.029, -4.917e-5
-1.028, -4.917e-5
-1.027, -4.917e-5
-1.026, -4.609e-5
-1.025, -4.609e-5
-1.024, -4.609e-5
-1.023, -4.609e-5
-1.022, -4.609e-5
-1.021, -4.917e-5
-1.020, -4.609e-5
-1.019, -4.609e-5
-1.018, -4.917e-5
-1.017, -4.917e-5
-1.016, -4.917e-5
-1.015, -4.917e-5
-1.014, -4.917e-5
-1.013, -4.917e-5
-1.012, -4.917e-5
-1.011, -4.917e-5
-1.010, -4.917e-5
-1.009, -4.917e-5
-1.008, -4.917e-5
-1.007, -4.917e-5
-1.006, -4.917e-5
-1.005, -4.917e-5
-1.004, -4.917e-5
-1.003, -4.917e-5
-1.002, -5.226e-5
-1.001, -5.226e-5
