Apr. 19, 2025   09:33:55
Cyclic Voltammetry
File: c:/users/guazh/data/banditlqround7_x0exp590_r20/2025-04-16-exp1126\exp1126-2025-04-19t09_21_39-h2koh\exp1126_cv_50mvs_efin_-1600mv.bin
Data Source:  Experiment
Instrument Model:  CHI760E
Header: CV ran at 50 mVs
Note: 

Init E (V) = -1
High E (V) = -1
Low E (V) = -1.6
Final E (V) = -1
Init P/N = N
Scan Rate (V/s) = 0.05
Segment = 7
Sample Interval (V) = 0.001
Quiet Time (sec) = 60
Sensitivity (A/V) = 0.001
Comp R (ohm) = 1.6

Results:

Channel 1:
Segment 1:

Segment 2:

Segment 3:

Segment 4:

Segment 5:

Segment 6:

Segment 7:

Potential/V, Current/A

-1.000, 1.261e-5
-1.001, 1.504e-5
-1.002, 1.658e-5
-1.003, 1.845e-5
-1.004, 1.980e-5
-1.005, 1.950e-5
-1.006, 1.877e-5
-1.007, 1.927e-5
-1.008, 2.056e-5
-1.009, 2.138e-5
-1.010, 2.086e-5
-1.011, 1.987e-5
-1.012, 2.021e-5
-1.013, 2.151e-5
-1.014, 2.220e-5
-1.015, 2.161e-5
-1.016, 2.056e-5
-1.017, 2.085e-5
-1.018, 2.214e-5
-1.019, 2.272e-5
-1.020, 2.210e-5
-1.021, 2.111e-5
-1.022, 2.133e-5
-1.023, 2.259e-5
-1.024, 2.331e-5
-1.025, 2.249e-5
-1.026, 2.160e-5
-1.027, 2.173e-5
-1.028, 2.303e-5
-1.029, 2.372e-5
-1.030, 2.295e-5
-1.031, 2.217e-5
-1.032, 2.223e-5
-1.033, 2.344e-5
-1.034, 2.422e-5
-1.035, 2.332e-5
-1.036, 2.246e-5
-1.037, 2.266e-5
-1.038, 2.391e-5
-1.039, 2.458e-5
-1.040, 2.383e-5
-1.041, 2.288e-5
-1.042, 2.315e-5
-1.043, 2.424e-5
-1.044, 2.499e-5
-1.045, 2.430e-5
-1.046, 2.325e-5
-1.047, 2.363e-5
-1.048, 2.471e-5
-1.049, 2.535e-5
-1.050, 2.480e-5
-1.051, 2.378e-5
-1.052, 2.398e-5
-1.053, 2.520e-5
-1.054, 2.579e-5
-1.055, 2.519e-5
-1.056, 2.419e-5
-1.057, 2.433e-5
-1.058, 2.570e-5
-1.059, 2.628e-5
-1.060, 2.559e-5
-1.061, 2.468e-5
-1.062, 2.495e-5
-1.063, 2.625e-5
-1.064, 2.678e-5
-1.065, 2.602e-5
-1.066, 2.529e-5
-1.067, 2.540e-5
-1.068, 2.672e-5
-1.069, 2.729e-5
-1.070, 2.655e-5
-1.071, 2.574e-5
-1.072, 2.604e-5
-1.073, 2.715e-5
-1.074, 2.787e-5
-1.075, 2.721e-5
-1.076, 2.626e-5
-1.077, 2.662e-5
-1.078, 2.777e-5
-1.079, 2.848e-5
-1.080, 2.761e-5
-1.081, 2.684e-5
-1.082, 2.722e-5
-1.083, 2.834e-5
-1.084, 2.895e-5
-1.085, 2.822e-5
-1.086, 2.733e-5
-1.087, 2.782e-5
-1.088, 2.886e-5
-1.089, 2.955e-5
-1.090, 2.890e-5
-1.091, 2.786e-5
-1.092, 2.839e-5
-1.093, 2.956e-5
-1.094, 3.016e-5
-1.095, 2.943e-5
-1.096, 2.848e-5
-1.097, 2.896e-5
-1.098, 3.023e-5
-1.099, 3.075e-5
-1.100, 2.998e-5
-1.101, 2.920e-5
-1.102, 2.955e-5
-1.103, 3.083e-5
-1.104, 3.143e-5
-1.105, 3.060e-5
-1.106, 2.986e-5
-1.107, 3.022e-5
-1.108, 3.150e-5
-1.109, 3.204e-5
-1.110, 3.135e-5
-1.111, 3.057e-5
-1.112, 3.091e-5
-1.113, 3.212e-5
-1.114, 3.288e-5
-1.115, 3.198e-5
-1.116, 3.118e-5
-1.117, 3.167e-5
-1.118, 3.287e-5
-1.119, 3.356e-5
-1.120, 3.268e-5
-1.121, 3.193e-5
-1.122, 3.243e-5
-1.123, 3.365e-5
-1.124, 3.427e-5
-1.125, 3.356e-5
-1.126, 3.269e-5
-1.127, 3.321e-5
-1.128, 3.445e-5
-1.129, 3.504e-5
-1.130, 3.441e-5
-1.131, 3.350e-5
-1.132, 3.399e-5
-1.133, 3.534e-5
-1.134, 3.582e-5
-1.135, 3.525e-5
-1.136, 3.437e-5
-1.137, 3.490e-5
-1.138, 3.615e-5
-1.139, 3.669e-5
-1.140, 3.601e-5
-1.141, 3.526e-5
-1.142, 3.563e-5
-1.143, 3.705e-5
-1.144, 3.748e-5
-1.145, 3.681e-5
-1.146, 3.613e-5
-1.147, 3.658e-5
-1.148, 3.786e-5
-1.149, 3.843e-5
-1.150, 3.775e-5
-1.151, 3.703e-5
-1.152, 3.743e-5
-1.153, 3.877e-5
-1.154, 3.935e-5
-1.155, 3.858e-5
-1.156, 3.787e-5
-1.157, 3.835e-5
-1.158, 3.954e-5
-1.159, 4.031e-5
-1.160, 3.946e-5
-1.161, 3.872e-5
-1.162, 3.925e-5
-1.163, 4.048e-5
-1.164, 4.104e-5
-1.165, 4.032e-5
-1.166, 3.965e-5
-1.167, 4.019e-5
-1.168, 4.141e-5
-1.169, 4.190e-5
-1.170, 4.126e-5
-1.171, 4.051e-5
-1.172, 4.105e-5
-1.173, 4.239e-5
-1.174, 4.269e-5
-1.175, 4.217e-5
-1.176, 4.140e-5
-1.177, 4.196e-5
-1.178, 4.332e-5
-1.179, 4.369e-5
-1.180, 4.301e-5
-1.181, 4.229e-5
-1.182, 4.283e-5
-1.183, 4.411e-5
-1.184, 4.446e-5
-1.185, 4.372e-5
-1.186, 4.321e-5
-1.187, 4.361e-5
-1.188, 4.483e-5
-1.189, 4.534e-5
-1.190, 4.453e-5
-1.191, 4.398e-5
-1.192, 4.447e-5
-1.193, 4.565e-5
-1.194, 4.630e-5
-1.195, 4.545e-5
-1.196, 4.480e-5
-1.197, 4.534e-5
-1.198, 4.647e-5
-1.199, 4.703e-5
-1.200, 4.618e-5
-1.201, 4.554e-5
-1.202, 4.623e-5
-1.203, 4.732e-5
-1.204, 4.783e-5
-1.205, 4.709e-5
-1.206, 4.643e-5
-1.207, 4.703e-5
-1.208, 4.813e-5
-1.209, 4.861e-5
-1.210, 4.793e-5
-1.211, 4.720e-5
-1.212, 4.777e-5
-1.213, 4.897e-5
-1.214, 4.941e-5
-1.215, 4.878e-5
-1.216, 4.799e-5
-1.217, 4.847e-5
-1.218, 4.987e-5
-1.219, 5.020e-5
-1.220, 4.952e-5
-1.221, 4.883e-5
-1.222, 4.926e-5
-1.223, 5.055e-5
-1.224, 5.100e-5
-1.225, 5.033e-5
-1.226, 4.962e-5
-1.227, 5.003e-5
-1.228, 5.150e-5
-1.229, 5.205e-5
-1.230, 5.126e-5
-1.231, 5.060e-5
-1.232, 5.099e-5
-1.233, 5.226e-5
-1.234, 5.291e-5
-1.235, 5.205e-5
-1.236, 5.131e-5
-1.237, 5.185e-5
-1.238, 5.307e-5
-1.239, 5.377e-5
-1.240, 5.286e-5
-1.241, 5.214e-5
-1.242, 5.278e-5
-1.243, 5.394e-5
-1.244, 5.444e-5
-1.245, 5.376e-5
-1.246, 5.297e-5
-1.247, 5.363e-5
-1.248, 5.474e-5
-1.249, 5.537e-5
-1.250, 5.466e-5
-1.251, 5.392e-5
-1.252, 5.445e-5
-1.253, 5.579e-5
-1.254, 5.636e-5
-1.255, 5.566e-5
-1.256, 5.477e-5
-1.257, 5.538e-5
-1.258, 5.682e-5
-1.259, 5.728e-5
-1.260, 5.659e-5
-1.261, 5.581e-5
-1.262, 5.644e-5
-1.263, 5.772e-5
-1.264, 5.829e-5
-1.265, 5.762e-5
-1.266, 5.695e-5
-1.267, 5.743e-5
-1.268, 5.882e-5
-1.269, 5.937e-5
-1.270, 5.870e-5
-1.271, 5.801e-5
-1.272, 5.849e-5
-1.273, 5.997e-5
-1.274, 6.054e-5
-1.275, 5.981e-5
-1.276, 5.916e-5
-1.277, 5.978e-5
-1.278, 6.115e-5
-1.279, 6.177e-5
-1.280, 6.115e-5
-1.281, 6.040e-5
-1.282, 6.111e-5
-1.283, 6.244e-5
-1.284, 6.303e-5
-1.285, 6.247e-5
-1.286, 6.187e-5
-1.287, 6.262e-5
-1.288, 6.401e-5
-1.289, 6.458e-5
-1.290, 6.403e-5
-1.291, 6.331e-5
-1.292, 6.398e-5
-1.293, 6.554e-5
-1.294, 6.606e-5
-1.295, 6.553e-5
-1.296, 6.476e-5
-1.297, 6.547e-5
-1.298, 6.695e-5
-1.299, 6.761e-5
-1.300, 6.704e-5
-1.301, 6.634e-5
-1.302, 6.721e-5
-1.303, 6.865e-5
-1.304, 6.923e-5
-1.305, 6.865e-5
-1.306, 6.826e-5
-1.307, 6.878e-5
-1.308, 7.031e-5
-1.309, 7.123e-5
-1.310, 7.057e-5
-1.311, 6.997e-5
-1.312, 7.073e-5
-1.313, 7.227e-5
-1.314, 7.322e-5
-1.315, 7.259e-5
-1.316, 7.212e-5
-1.317, 7.290e-5
-1.318, 7.448e-5
-1.319, 7.533e-5
-1.320, 7.466e-5
-1.321, 7.431e-5
-1.322, 7.518e-5
-1.323, 7.673e-5
-1.324, 7.768e-5
-1.325, 7.707e-5
-1.326, 7.672e-5
-1.327, 7.777e-5
-1.328, 7.926e-5
-1.329, 8.017e-5
-1.330, 7.991e-5
-1.331, 7.933e-5
-1.332, 8.031e-5
-1.333, 8.206e-5
-1.334, 8.298e-5
-1.335, 8.269e-5
-1.336, 8.235e-5
-1.337, 8.331e-5
-1.338, 8.511e-5
-1.339, 8.608e-5
-1.340, 8.588e-5
-1.341, 8.546e-5
-1.342, 8.666e-5
-1.343, 8.889e-5
-1.344, 9.020e-5
-1.345, 9.010e-5
-1.346, 8.998e-5
-1.347, 9.094e-5
-1.348, 9.285e-5
-1.349, 9.394e-5
-1.350, 9.386e-5
-1.351, 9.373e-5
-1.352, 9.486e-5
-1.353, 9.683e-5
-1.354, 9.810e-5
-1.355, 9.793e-5
-1.356, 9.784e-5
-1.357, 9.916e-5
-1.358, 1.011e-4
-1.359, 1.025e-4
-1.360, 1.023e-4
-1.361, 1.024e-4
-1.362, 1.036e-4
-1.363, 1.058e-4
-1.364, 1.071e-4
-1.365, 1.071e-4
-1.366, 1.071e-4
-1.367, 1.087e-4
-1.368, 1.109e-4
-1.369, 1.123e-4
-1.370, 1.126e-4
-1.371, 1.126e-4
-1.372, 1.140e-4
-1.373, 1.162e-4
-1.374, 1.177e-4
-1.375, 1.182e-4
-1.376, 1.184e-4
-1.377, 1.199e-4
-1.378, 1.226e-4
-1.379, 1.241e-4
-1.380, 1.244e-4
-1.381, 1.250e-4
-1.382, 1.266e-4
-1.383, 1.290e-4
-1.384, 1.306e-4
-1.385, 1.311e-4
-1.386, 1.319e-4
-1.387, 1.336e-4
-1.388, 1.364e-4
-1.389, 1.385e-4
-1.390, 1.391e-4
-1.391, 1.399e-4
-1.392, 1.419e-4
-1.393, 1.447e-4
-1.394, 1.469e-4
-1.395, 1.477e-4
-1.396, 1.487e-4
-1.397, 1.506e-4
-1.398, 1.535e-4
-1.399, 1.558e-4
-1.400, 1.565e-4
-1.401, 1.574e-4
-1.402, 1.598e-4
-1.403, 1.631e-4
-1.404, 1.655e-4
-1.405, 1.670e-4
-1.406, 1.685e-4
-1.407, 1.711e-4
-1.408, 1.744e-4
-1.409, 1.769e-4
-1.410, 1.782e-4
-1.411, 1.796e-4
-1.412, 1.826e-4
-1.413, 1.859e-4
-1.414, 1.886e-4
-1.415, 1.904e-4
-1.416, 1.916e-4
-1.417, 1.942e-4
-1.418, 1.980e-4
-1.419, 2.011e-4
-1.420, 2.029e-4
-1.421, 2.043e-4
-1.422, 2.074e-4
-1.423, 2.113e-4
-1.424, 2.146e-4
-1.425, 2.170e-4
-1.426, 2.192e-4
-1.427, 2.223e-4
-1.428, 2.265e-4
-1.429, 2.298e-4
-1.430, 2.322e-4
-1.431, 2.349e-4
-1.432, 2.386e-4
-1.433, 2.431e-4
-1.434, 2.470e-4
-1.435, 2.495e-4
-1.436, 2.524e-4
-1.437, 2.562e-4
-1.438, 2.609e-4
-1.439, 2.650e-4
-1.440, 2.678e-4
-1.441, 2.707e-4
-1.442, 2.753e-4
-1.443, 2.804e-4
-1.444, 2.847e-4
-1.445, 2.881e-4
-1.446, 2.913e-4
-1.447, 2.961e-4
-1.448, 3.013e-4
-1.449, 3.063e-4
-1.450, 3.099e-4
-1.451, 3.137e-4
-1.452, 3.191e-4
-1.453, 3.249e-4
-1.454, 3.300e-4
-1.455, 3.341e-4
-1.456, 3.381e-4
-1.457, 3.433e-4
-1.458, 3.495e-4
-1.459, 3.552e-4
-1.460, 3.602e-4
-1.461, 3.654e-4
-1.462, 3.714e-4
-1.463, 3.779e-4
-1.464, 3.835e-4
-1.465, 3.888e-4
-1.466, 3.946e-4
-1.467, 4.015e-4
-1.468, 4.090e-4
-1.469, 4.156e-4
-1.470, 4.208e-4
-1.471, 4.261e-4
-1.472, 4.327e-4
-1.473, 4.404e-4
-1.474, 4.479e-4
-1.475, 4.543e-4
-1.476, 4.609e-4
-1.477, 4.690e-4
-1.478, 4.769e-4
-1.479, 4.847e-4
-1.480, 4.909e-4
-1.481, 4.973e-4
-1.482, 5.059e-4
-1.483, 5.166e-4
-1.484, 5.273e-4
-1.485, 5.362e-4
-1.486, 5.457e-4
-1.487, 5.564e-4
-1.488, 5.667e-4
-1.489, 5.763e-4
-1.490, 5.850e-4
-1.491, 5.929e-4
-1.492, 6.026e-4
-1.493, 6.139e-4
-1.494, 6.240e-4
-1.495, 6.340e-4
-1.496, 6.435e-4
-1.497, 6.539e-4
-1.498, 6.656e-4
-1.499, 6.775e-4
-1.500, 6.893e-4
-1.501, 7.003e-4
-1.502, 7.117e-4
-1.503, 7.239e-4
-1.504, 7.361e-4
-1.505, 7.466e-4
-1.506, 7.575e-4
-1.507, 7.695e-4
-1.508, 7.832e-4
-1.509, 7.963e-4
-1.510, 8.089e-4
-1.511, 8.212e-4
-1.512, 8.351e-4
-1.513, 8.502e-4
-1.514, 8.656e-4
-1.515, 8.796e-4
-1.516, 8.928e-4
-1.517, 9.077e-4
-1.518, 9.229e-4
-1.519, 9.396e-4
-1.520, 9.543e-4
-1.521, 9.691e-4
-1.522, 9.856e-4
-1.523, 1.003e-3
-1.524, 1.020e-3
-1.525, 1.037e-3
-1.526, 1.053e-3
-1.527, 1.070e-3
-1.528, 1.088e-3
-1.529, 1.108e-3
-1.530, 1.126e-3
-1.531, 1.144e-3
-1.532, 1.164e-3
-1.533, 1.185e-3
-1.534, 1.206e-3
-1.535, 1.225e-3
-1.536, 1.245e-3
-1.537, 1.267e-3
-1.538, 1.289e-3
-1.539, 1.311e-3
-1.540, 1.333e-3
-1.541, 1.355e-3
-1.542, 1.378e-3
-1.543, 1.402e-3
-1.544, 1.427e-3
-1.545, 1.451e-3
-1.546, 1.475e-3
-1.547, 1.501e-3
-1.548, 1.528e-3
-1.549, 1.555e-3
-1.550, 1.581e-3
-1.551, 1.608e-3
-1.552, 1.637e-3
-1.553, 1.666e-3
-1.554, 1.695e-3
-1.555, 1.724e-3
-1.556, 1.754e-3
-1.557, 1.785e-3
-1.558, 1.817e-3
-1.559, 1.848e-3
-1.560, 1.880e-3
-1.561, 1.911e-3
-1.562, 1.944e-3
-1.563, 1.980e-3
-1.564, 2.015e-3
-1.565, 2.051e-3
-1.566, 2.088e-3
-1.567, 2.124e-3
-1.568, 2.162e-3
-1.569, 2.201e-3
-1.570, 2.242e-3
-1.571, 2.276e-3
-1.572, 2.312e-3
-1.573, 2.352e-3
-1.574, 2.395e-3
-1.575, 2.437e-3
-1.576, 2.477e-3
-1.577, 2.523e-3
-1.578, 2.570e-3
-1.579, 2.615e-3
-1.580, 2.657e-3
-1.581, 2.702e-3
-1.582, 2.748e-3
-1.583, 2.798e-3
-1.584, 2.850e-3
-1.585, 2.898e-3
-1.586, 2.946e-3
-1.587, 2.998e-3
-1.588, 3.051e-3
-1.589, 3.106e-3
-1.590, 3.160e-3
-1.591, 3.211e-3
-1.592, 3.266e-3
-1.593, 3.317e-3
-1.594, 3.373e-3
-1.595, 3.428e-3
-1.596, 3.485e-3
-1.597, 3.542e-3
-1.598, 3.604e-3
-1.599, 3.666e-3
-1.600, 3.674e-3
-1.599, 3.639e-3
-1.598, 3.599e-3
-1.597, 3.563e-3
-1.596, 3.522e-3
-1.595, 3.479e-3
-1.594, 3.435e-3
-1.593, 3.395e-3
-1.592, 3.354e-3
-1.591, 3.314e-3
-1.590, 3.275e-3
-1.589, 3.233e-3
-1.588, 3.191e-3
-1.587, 3.149e-3
-1.586, 3.110e-3
-1.585, 3.069e-3
-1.584, 3.028e-3
-1.583, 2.987e-3
-1.582, 2.948e-3
-1.581, 2.907e-3
-1.580, 2.867e-3
-1.579, 2.825e-3
-1.578, 2.785e-3
-1.577, 2.746e-3
-1.576, 2.707e-3
-1.575, 2.665e-3
-1.574, 2.625e-3
-1.573, 2.584e-3
-1.572, 2.547e-3
-1.571, 2.509e-3
-1.570, 2.472e-3
-1.569, 2.436e-3
-1.568, 2.400e-3
-1.567, 2.365e-3
-1.566, 2.331e-3
-1.565, 2.294e-3
-1.564, 2.257e-3
-1.563, 2.221e-3
-1.562, 2.188e-3
-1.561, 2.156e-3
-1.560, 2.122e-3
-1.559, 2.087e-3
-1.558, 2.054e-3
-1.557, 2.026e-3
-1.556, 1.994e-3
-1.555, 1.961e-3
-1.554, 1.930e-3
-1.553, 1.898e-3
-1.552, 1.869e-3
-1.551, 1.841e-3
-1.550, 1.810e-3
-1.549, 1.777e-3
-1.548, 1.748e-3
-1.547, 1.723e-3
-1.546, 1.697e-3
-1.545, 1.667e-3
-1.544, 1.640e-3
-1.543, 1.612e-3
-1.542, 1.587e-3
-1.541, 1.561e-3
-1.540, 1.535e-3
-1.539, 1.510e-3
-1.538, 1.483e-3
-1.537, 1.459e-3
-1.536, 1.436e-3
-1.535, 1.411e-3
-1.534, 1.386e-3
-1.533, 1.363e-3
-1.532, 1.341e-3
-1.531, 1.319e-3
-1.530, 1.297e-3
-1.529, 1.273e-3
-1.528, 1.251e-3
-1.527, 1.230e-3
-1.526, 1.210e-3
-1.525, 1.189e-3
-1.524, 1.168e-3
-1.523, 1.147e-3
-1.522, 1.128e-3
-1.521, 1.110e-3
-1.520, 1.091e-3
-1.519, 1.070e-3
-1.518, 1.051e-3
-1.517, 1.034e-3
-1.516, 1.017e-3
-1.515, 9.982e-4
-1.514, 9.794e-4
-1.513, 9.622e-4
-1.512, 9.460e-4
-1.511, 9.305e-4
-1.510, 9.134e-4
-1.509, 8.957e-4
-1.508, 8.797e-4
-1.507, 8.642e-4
-1.506, 8.491e-4
-1.505, 8.329e-4
-1.504, 8.174e-4
-1.503, 8.024e-4
-1.502, 7.885e-4
-1.501, 7.751e-4
-1.500, 7.606e-4
-1.499, 7.458e-4
-1.498, 7.323e-4
-1.497, 7.204e-4
-1.496, 7.079e-4
-1.495, 6.944e-4
-1.494, 6.803e-4
-1.493, 6.673e-4
-1.492, 6.558e-4
-1.491, 6.437e-4
-1.490, 6.313e-4
-1.489, 6.183e-4
-1.488, 6.067e-4
-1.487, 5.962e-4
-1.486, 5.857e-4
-1.485, 5.748e-4
-1.484, 5.624e-4
-1.483, 5.507e-4
-1.482, 5.408e-4
-1.481, 5.310e-4
-1.480, 5.199e-4
-1.479, 5.093e-4
-1.478, 4.988e-4
-1.477, 4.903e-4
-1.476, 4.819e-4
-1.475, 4.710e-4
-1.474, 4.606e-4
-1.473, 4.513e-4
-1.472, 4.436e-4
-1.471, 4.354e-4
-1.470, 4.262e-4
-1.469, 4.168e-4
-1.468, 4.080e-4
-1.467, 4.004e-4
-1.466, 3.930e-4
-1.465, 3.844e-4
-1.464, 3.758e-4
-1.463, 3.678e-4
-1.462, 3.612e-4
-1.461, 3.546e-4
-1.460, 3.467e-4
-1.459, 3.384e-4
-1.458, 3.313e-4
-1.457, 3.249e-4
-1.456, 3.186e-4
-1.455, 3.115e-4
-1.454, 3.039e-4
-1.453, 2.973e-4
-1.452, 2.918e-4
-1.451, 2.864e-4
-1.450, 2.803e-4
-1.449, 2.733e-4
-1.448, 2.676e-4
-1.447, 2.628e-4
-1.446, 2.577e-4
-1.445, 2.520e-4
-1.444, 2.461e-4
-1.443, 2.402e-4
-1.442, 2.355e-4
-1.441, 2.307e-4
-1.440, 2.250e-4
-1.439, 2.190e-4
-1.438, 2.140e-4
-1.437, 2.099e-4
-1.436, 2.056e-4
-1.435, 2.003e-4
-1.434, 1.947e-4
-1.433, 1.902e-4
-1.432, 1.869e-4
-1.431, 1.835e-4
-1.430, 1.788e-4
-1.429, 1.743e-4
-1.428, 1.699e-4
-1.427, 1.668e-4
-1.426, 1.632e-4
-1.425, 1.588e-4
-1.424, 1.541e-4
-1.423, 1.502e-4
-1.422, 1.475e-4
-1.421, 1.449e-4
-1.420, 1.406e-4
-1.419, 1.361e-4
-1.418, 1.325e-4
-1.417, 1.303e-4
-1.416, 1.281e-4
-1.415, 1.247e-4
-1.414, 1.204e-4
-1.413, 1.175e-4
-1.412, 1.154e-4
-1.411, 1.130e-4
-1.410, 1.097e-4
-1.409, 1.060e-4
-1.408, 1.033e-4
-1.407, 1.017e-4
-1.406, 9.954e-5
-1.405, 9.638e-5
-1.404, 9.288e-5
-1.403, 8.983e-5
-1.402, 8.822e-5
-1.401, 8.669e-5
-1.400, 8.375e-5
-1.399, 8.037e-5
-1.398, 7.777e-5
-1.397, 7.679e-5
-1.396, 7.603e-5
-1.395, 7.419e-5
-1.394, 7.184e-5
-1.393, 6.997e-5
-1.392, 6.929e-5
-1.391, 6.805e-5
-1.390, 6.545e-5
-1.389, 6.262e-5
-1.388, 6.047e-5
-1.387, 5.969e-5
-1.386, 5.854e-5
-1.385, 5.597e-5
-1.384, 5.294e-5
-1.383, 5.093e-5
-1.382, 5.029e-5
-1.381, 4.951e-5
-1.380, 4.730e-5
-1.379, 4.467e-5
-1.378, 4.291e-5
-1.377, 4.256e-5
-1.376, 4.243e-5
-1.375, 4.064e-5
-1.374, 3.783e-5
-1.373, 3.638e-5
-1.372, 3.601e-5
-1.371, 3.542e-5
-1.370, 3.368e-5
-1.369, 3.116e-5
-1.368, 2.975e-5
-1.367, 2.935e-5
-1.366, 2.876e-5
-1.365, 2.710e-5
-1.364, 2.478e-5
-1.363, 2.354e-5
-1.362, 2.348e-5
-1.361, 2.319e-5
-1.360, 2.182e-5
-1.359, 1.966e-5
-1.358, 1.831e-5
-1.357, 1.812e-5
-1.356, 1.784e-5
-1.355, 1.619e-5
-1.354, 1.429e-5
-1.353, 1.318e-5
-1.352, 1.338e-5
-1.351, 1.348e-5
-1.350, 1.198e-5
-1.349, 1.015e-5
-1.348, 9.086e-6
-1.347, 9.242e-6
-1.346, 9.435e-6
-1.345, 7.986e-6
-1.344, 6.297e-6
-1.343, 5.161e-6
-1.342, 5.406e-6
-1.341, 5.733e-6
-1.340, 4.574e-6
-1.339, 2.785e-6
-1.338, 2.029e-6
-1.337, 2.374e-6
-1.336, 2.620e-6
-1.335, 1.536e-6
-1.334, -2.113e-7
-1.333, -8.704e-7
-1.332, -4.156e-7
-1.331, -2.281e-7
-1.330, -1.205e-6
-1.329, -3.012e-6
-1.328, -3.660e-6
-1.327, -3.176e-6
-1.326, -2.936e-6
-1.325, -3.797e-6
-1.324, -5.387e-6
-1.323, -6.171e-6
-1.322, -5.560e-6
-1.321, -5.273e-6
-1.320, -6.148e-6
-1.319, -7.585e-6
-1.318, -8.425e-6
-1.317, -7.826e-6
-1.316, -7.464e-6
-1.315, -8.472e-6
-1.314, -9.857e-6
-1.313, -1.054e-5
-1.312, -9.836e-6
-1.311, -9.374e-6
-1.310, -1.025e-5
-1.309, -1.169e-5
-1.308, -1.223e-5
-1.307, -1.169e-5
-1.306, -1.127e-5
-1.305, -1.213e-5
-1.304, -1.347e-5
-1.303, -1.395e-5
-1.302, -1.344e-5
-1.301, -1.264e-5
-1.300, -1.345e-5
-1.299, -1.488e-5
-1.298, -1.528e-5
-1.297, -1.469e-5
-1.296, -1.399e-5
-1.295, -1.475e-5
-1.294, -1.624e-5
-1.293, -1.667e-5
-1.292, -1.597e-5
-1.291, -1.540e-5
-1.290, -1.610e-5
-1.289, -1.755e-5
-1.288, -1.798e-5
-1.287, -1.732e-5
-1.286, -1.683e-5
-1.285, -1.745e-5
-1.284, -1.878e-5
-1.283, -1.933e-5
-1.282, -1.858e-5
-1.281, -1.800e-5
-1.280, -1.867e-5
-1.279, -1.991e-5
-1.278, -2.053e-5
-1.277, -1.979e-5
-1.276, -1.911e-5
-1.275, -1.985e-5
-1.274, -2.088e-5
-1.273, -2.169e-5
-1.272, -2.075e-5
-1.271, -2.007e-5
-1.270, -2.082e-5
-1.269, -2.204e-5
-1.268, -2.262e-5
-1.267, -2.202e-5
-1.266, -2.121e-5
-1.265, -2.187e-5
-1.264, -2.315e-5
-1.263, -2.351e-5
-1.262, -2.291e-5
-1.261, -2.209e-5
-1.260, -2.273e-5
-1.259, -2.418e-5
-1.258, -2.450e-5
-1.257, -2.383e-5
-1.256, -2.289e-5
-1.255, -2.365e-5
-1.254, -2.494e-5
-1.253, -2.536e-5
-1.252, -2.457e-5
-1.251, -2.393e-5
-1.250, -2.452e-5
-1.249, -2.580e-5
-1.248, -2.614e-5
-1.247, -2.529e-5
-1.246, -2.459e-5
-1.245, -2.507e-5
-1.244, -2.643e-5
-1.243, -2.697e-5
-1.242, -2.605e-5
-1.241, -2.541e-5
-1.240, -2.596e-5
-1.239, -2.714e-5
-1.238, -2.768e-5
-1.237, -2.680e-5
-1.236, -2.606e-5
-1.235, -2.666e-5
-1.234, -2.777e-5
-1.233, -2.839e-5
-1.232, -2.748e-5
-1.231, -2.675e-5
-1.230, -2.737e-5
-1.229, -2.875e-5
-1.228, -2.912e-5
-1.227, -2.838e-5
-1.226, -2.750e-5
-1.225, -2.810e-5
-1.224, -2.930e-5
-1.223, -2.972e-5
-1.222, -2.909e-5
-1.221, -2.823e-5
-1.220, -2.867e-5
-1.219, -2.997e-5
-1.218, -3.045e-5
-1.217, -2.965e-5
-1.216, -2.876e-5
-1.215, -2.933e-5
-1.214, -3.061e-5
-1.213, -3.093e-5
-1.212, -3.014e-5
-1.211, -2.949e-5
-1.210, -2.980e-5
-1.209, -3.115e-5
-1.208, -3.158e-5
-1.207, -3.087e-5
-1.206, -2.999e-5
-1.205, -3.038e-5
-1.204, -3.181e-5
-1.203, -3.229e-5
-1.202, -3.141e-5
-1.201, -3.060e-5
-1.200, -3.097e-5
-1.199, -3.226e-5
-1.198, -3.274e-5
-1.197, -3.201e-5
-1.196, -3.107e-5
-1.195, -3.168e-5
-1.194, -3.282e-5
-1.193, -3.333e-5
-1.192, -3.238e-5
-1.191, -3.161e-5
-1.190, -3.214e-5
-1.189, -3.326e-5
-1.188, -3.377e-5
-1.187, -3.299e-5
-1.186, -3.203e-5
-1.185, -3.268e-5
-1.184, -3.371e-5
-1.183, -3.412e-5
-1.182, -3.349e-5
-1.181, -3.253e-5
-1.180, -3.295e-5
-1.179, -3.422e-5
-1.178, -3.474e-5
-1.177, -3.397e-5
-1.176, -3.289e-5
-1.175, -3.342e-5
-1.174, -3.466e-5
-1.173, -3.495e-5
-1.172, -3.415e-5
-1.171, -3.327e-5
-1.170, -3.371e-5
-1.169, -3.492e-5
-1.168, -3.521e-5
-1.167, -3.442e-5
-1.166, -3.360e-5
-1.165, -3.396e-5
-1.164, -3.498e-5
-1.163, -3.560e-5
-1.162, -3.469e-5
-1.161, -3.394e-5
-1.160, -3.425e-5
-1.159, -3.530e-5
-1.158, -3.586e-5
-1.157, -3.493e-5
-1.156, -3.407e-5
-1.155, -3.447e-5
-1.154, -3.554e-5
-1.153, -3.605e-5
-1.152, -3.517e-5
-1.151, -3.424e-5
-1.150, -3.467e-5
-1.149, -3.569e-5
-1.148, -3.619e-5
-1.147, -3.539e-5
-1.146, -3.429e-5
-1.145, -3.478e-5
-1.144, -3.578e-5
-1.143, -3.626e-5
-1.142, -3.543e-5
-1.141, -3.438e-5
-1.140, -3.473e-5
-1.139, -3.605e-5
-1.138, -3.641e-5
-1.137, -3.559e-5
-1.136, -3.455e-5
-1.135, -3.490e-5
-1.134, -3.610e-5
-1.133, -3.639e-5
-1.132, -3.564e-5
-1.131, -3.484e-5
-1.130, -3.503e-5
-1.129, -3.631e-5
-1.128, -3.657e-5
-1.127, -3.577e-5
-1.126, -3.491e-5
-1.125, -3.516e-5
-1.124, -3.627e-5
-1.123, -3.689e-5
-1.122, -3.593e-5
-1.121, -3.506e-5
-1.120, -3.532e-5
-1.119, -3.646e-5
-1.118, -3.697e-5
-1.117, -3.598e-5
-1.116, -3.509e-5
-1.115, -3.558e-5
-1.114, -3.671e-5
-1.113, -3.718e-5
-1.112, -3.634e-5
-1.111, -3.528e-5
-1.110, -3.583e-5
-1.109, -3.686e-5
-1.108, -3.739e-5
-1.107, -3.659e-5
-1.106, -3.562e-5
-1.105, -3.600e-5
-1.104, -3.714e-5
-1.103, -3.755e-5
-1.102, -3.687e-5
-1.101, -3.579e-5
-1.100, -3.615e-5
-1.099, -3.747e-5
-1.098, -3.785e-5
-1.097, -3.712e-5
-1.096, -3.604e-5
-1.095, -3.640e-5
-1.094, -3.782e-5
-1.093, -3.815e-5
-1.092, -3.730e-5
-1.091, -3.638e-5
-1.090, -3.667e-5
-1.089, -3.807e-5
-1.088, -3.847e-5
-1.087, -3.766e-5
-1.086, -3.673e-5
-1.085, -3.702e-5
-1.084, -3.836e-5
-1.083, -3.901e-5
-1.082, -3.795e-5
-1.081, -3.710e-5
-1.080, -3.749e-5
-1.079, -3.877e-5
-1.078, -3.927e-5
-1.077, -3.830e-5
-1.076, -3.755e-5
-1.075, -3.802e-5
-1.074, -3.927e-5
-1.073, -3.981e-5
-1.072, -3.889e-5
-1.071, -3.784e-5
-1.070, -3.836e-5
-1.069, -3.960e-5
-1.068, -4.023e-5
-1.067, -3.954e-5
-1.066, -3.825e-5
-1.065, -3.889e-5
-1.064, -4.003e-5
-1.063, -4.063e-5
-1.062, -3.991e-5
-1.061, -3.880e-5
-1.060, -3.937e-5
-1.059, -4.080e-5
-1.058, -4.112e-5
-1.057, -4.044e-5
-1.056, -3.940e-5
-1.055, -3.991e-5
-1.054, -4.131e-5
-1.053, -4.168e-5
-1.052, -4.086e-5
-1.051, -4.007e-5
-1.050, -4.041e-5
-1.049, -4.185e-5
-1.048, -4.235e-5
-1.047, -4.148e-5
-1.046, -4.051e-5
-1.045, -4.106e-5
-1.044, -4.234e-5
-1.043, -4.296e-5
-1.042, -4.210e-5
-1.041, -4.112e-5
-1.040, -4.163e-5
-1.039, -4.292e-5
-1.038, -4.356e-5
-1.037, -4.272e-5
-1.036, -4.171e-5
-1.035, -4.230e-5
-1.034, -4.360e-5
-1.033, -4.428e-5
-1.032, -4.336e-5
-1.031, -4.237e-5
-1.030, -4.296e-5
-1.029, -4.421e-5
-1.028, -4.483e-5
-1.027, -4.412e-5
-1.026, -4.308e-5
-1.025, -4.370e-5
-1.024, -4.506e-5
-1.023, -4.565e-5
-1.022, -4.504e-5
-1.021, -4.379e-5
-1.020, -4.431e-5
-1.019, -4.588e-5
-1.018, -4.642e-5
-1.017, -4.574e-5
-1.016, -4.451e-5
-1.015, -4.508e-5
-1.014, -4.663e-5
-1.013, -4.712e-5
-1.012, -4.635e-5
-1.011, -4.544e-5
-1.010, -4.592e-5
-1.009, -4.739e-5
-1.008, -4.794e-5
-1.007, -4.705e-5
-1.006, -4.626e-5
-1.005, -4.650e-5
-1.004, -4.808e-5
-1.003, -4.892e-5
-1.002, -4.790e-5
-1.001, -4.697e-5
-1.000, -2.419e-5
-1.001, -1.356e-5
-1.002, -8.672e-6
-1.003, -4.013e-6
-1.004, 2.050e-7
-1.005, 2.052e-6
-1.006, 2.825e-6
-1.007, 4.129e-6
-1.008, 6.582e-6
-1.009, 9.205e-6
-1.010, 1.010e-5
-1.011, 9.936e-6
-1.012, 1.051e-5
-1.013, 1.253e-5
-1.014, 1.454e-5
-1.015, 1.500e-5
-1.016, 1.433e-5
-1.017, 1.466e-5
-1.018, 1.656e-5
-1.019, 1.816e-5
-1.020, 1.839e-5
-1.021, 1.771e-5
-1.022, 1.776e-5
-1.023, 1.936e-5
-1.024, 2.100e-5
-1.025, 2.094e-5
-1.026, 2.020e-5
-1.027, 2.010e-5
-1.028, 2.165e-5
-1.029, 2.304e-5
-1.030, 2.294e-5
-1.031, 2.219e-5
-1.032, 2.187e-5
-1.033, 2.327e-5
-1.034, 2.474e-5
-1.035, 2.450e-5
-1.036, 2.363e-5
-1.037, 2.353e-5
-1.038, 2.471e-5
-1.039, 2.615e-5
-1.040, 2.577e-5
-1.041, 2.482e-5
-1.042, 2.477e-5
-1.043, 2.595e-5
-1.044, 2.731e-5
-1.045, 2.698e-5
-1.046, 2.592e-5
-1.047, 2.582e-5
-1.048, 2.711e-5
-1.049, 2.828e-5
-1.050, 2.804e-5
-1.051, 2.669e-5
-1.052, 2.650e-5
-1.053, 2.779e-5
-1.054, 2.896e-5
-1.055, 2.885e-5
-1.056, 2.761e-5
-1.057, 2.742e-5
-1.058, 2.869e-5
-1.059, 2.977e-5
-1.060, 2.945e-5
-1.061, 2.833e-5
-1.062, 2.813e-5
-1.063, 2.941e-5
-1.064, 3.041e-5
-1.065, 2.998e-5
-1.066, 2.903e-5
-1.067, 2.872e-5
-1.068, 2.988e-5
-1.069, 3.100e-5
-1.070, 3.065e-5
-1.071, 2.957e-5
-1.072, 2.926e-5
-1.073, 3.046e-5
-1.074, 3.160e-5
-1.075, 3.123e-5
-1.076, 3.001e-5
-1.077, 2.983e-5
-1.078, 3.092e-5
-1.079, 3.211e-5
-1.080, 3.153e-5
-1.081, 3.044e-5
-1.082, 3.034e-5
-1.083, 3.132e-5
-1.084, 3.250e-5
-1.085, 3.195e-5
-1.086, 3.082e-5
-1.087, 3.086e-5
-1.088, 3.173e-5
-1.089, 3.284e-5
-1.090, 3.245e-5
-1.091, 3.121e-5
-1.092, 3.119e-5
-1.093, 3.225e-5
-1.094, 3.307e-5
-1.095, 3.286e-5
-1.096, 3.173e-5
-1.097, 3.153e-5
-1.098, 3.269e-5
-1.099, 3.361e-5
-1.100, 3.322e-5
-1.101, 3.203e-5
-1.102, 3.195e-5
-1.103, 3.313e-5
-1.104, 3.390e-5
-1.105, 3.345e-5
-1.106, 3.236e-5
-1.107, 3.206e-5
-1.108, 3.334e-5
-1.109, 3.423e-5
-1.110, 3.379e-5
-1.111, 3.268e-5
-1.112, 3.246e-5
-1.113, 3.362e-5
-1.114, 3.461e-5
-1.115, 3.404e-5
-1.116, 3.295e-5
-1.117, 3.274e-5
-1.118, 3.396e-5
-1.119, 3.489e-5
-1.120, 3.433e-5
-1.121, 3.319e-5
-1.122, 3.308e-5
-1.123, 3.424e-5
-1.124, 3.517e-5
-1.125, 3.454e-5
-1.126, 3.347e-5
-1.127, 3.342e-5
-1.128, 3.450e-5
-1.129, 3.532e-5
-1.130, 3.491e-5
-1.131, 3.366e-5
-1.132, 3.362e-5
-1.133, 3.475e-5
-1.134, 3.558e-5
-1.135, 3.506e-5
-1.136, 3.385e-5
-1.137, 3.377e-5
-1.138, 3.512e-5
-1.139, 3.581e-5
-1.140, 3.519e-5
-1.141, 3.424e-5
-1.142, 3.412e-5
-1.143, 3.532e-5
-1.144, 3.600e-5
-1.145, 3.546e-5
-1.146, 3.449e-5
-1.147, 3.431e-5
-1.148, 3.549e-5
-1.149, 3.642e-5
-1.150, 3.555e-5
-1.151, 3.477e-5
-1.152, 3.459e-5
-1.153, 3.574e-5
-1.154, 3.661e-5
-1.155, 3.577e-5
-1.156, 3.488e-5
-1.157, 3.483e-5
-1.158, 3.594e-5
-1.159, 3.679e-5
-1.160, 3.610e-5
-1.161, 3.507e-5
-1.162, 3.519e-5
-1.163, 3.613e-5
-1.164, 3.693e-5
-1.165, 3.634e-5
-1.166, 3.527e-5
-1.167, 3.541e-5
-1.168, 3.641e-5
-1.169, 3.718e-5
-1.170, 3.659e-5
-1.171, 3.551e-5
-1.172, 3.563e-5
-1.173, 3.680e-5
-1.174, 3.741e-5
-1.175, 3.693e-5
-1.176, 3.573e-5
-1.177, 3.599e-5
-1.178, 3.720e-5
-1.179, 3.773e-5
-1.180, 3.715e-5
-1.181, 3.611e-5
-1.182, 3.616e-5
-1.183, 3.740e-5
-1.184, 3.809e-5
-1.185, 3.734e-5
-1.186, 3.654e-5
-1.187, 3.636e-5
-1.188, 3.771e-5
-1.189, 3.835e-5
-1.190, 3.777e-5
-1.191, 3.680e-5
-1.192, 3.683e-5
-1.193, 3.802e-5
-1.194, 3.883e-5
-1.195, 3.796e-5
-1.196, 3.710e-5
-1.197, 3.719e-5
-1.198, 3.834e-5
-1.199, 3.911e-5
-1.200, 3.837e-5
-1.201, 3.736e-5
-1.202, 3.760e-5
-1.203, 3.868e-5
-1.204, 3.944e-5
-1.205, 3.876e-5
-1.206, 3.766e-5
-1.207, 3.797e-5
-1.208, 3.901e-5
-1.209, 3.970e-5
-1.210, 3.911e-5
-1.211, 3.798e-5
-1.212, 3.827e-5
-1.213, 3.941e-5
-1.214, 3.999e-5
-1.215, 3.948e-5
-1.216, 3.841e-5
-1.217, 3.857e-5
-1.218, 3.980e-5
-1.219, 4.028e-5
-1.220, 3.979e-5
-1.221, 3.874e-5
-1.222, 3.889e-5
-1.223, 4.010e-5
-1.224, 4.071e-5
-1.225, 3.998e-5
-1.226, 3.917e-5
-1.227, 3.935e-5
-1.228, 4.075e-5
-1.229, 4.137e-5
-1.230, 4.043e-5
-1.231, 3.963e-5
-1.232, 3.971e-5
-1.233, 4.091e-5
-1.234, 4.152e-5
-1.235, 4.075e-5
-1.236, 3.972e-5
-1.237, 4.006e-5
-1.238, 4.119e-5
-1.239, 4.193e-5
-1.240, 4.115e-5
-1.241, 4.014e-5
-1.242, 4.047e-5
-1.243, 4.145e-5
-1.244, 4.211e-5
-1.245, 4.133e-5
-1.246, 4.040e-5
-1.247, 4.061e-5
-1.248, 4.167e-5
-1.249, 4.228e-5
-1.250, 4.162e-5
-1.251, 4.047e-5
-1.252, 4.081e-5
-1.253, 4.205e-5
-1.254, 4.251e-5
-1.255, 4.179e-5
-1.256, 4.077e-5
-1.257, 4.109e-5
-1.258, 4.229e-5
-1.259, 4.259e-5
-1.260, 4.180e-5
-1.261, 4.105e-5
-1.262, 4.134e-5
-1.263, 4.259e-5
-1.264, 4.293e-5
-1.265, 4.215e-5
-1.266, 4.137e-5
-1.267, 4.162e-5
-1.268, 4.293e-5
-1.269, 4.332e-5
-1.270, 4.246e-5
-1.271, 4.174e-5
-1.272, 4.197e-5
-1.273, 4.313e-5
-1.274, 4.358e-5
-1.275, 4.274e-5
-1.276, 4.205e-5
-1.277, 4.237e-5
-1.278, 4.344e-5
-1.279, 4.389e-5
-1.280, 4.304e-5
-1.281, 4.213e-5
-1.282, 4.275e-5
-1.283, 4.383e-5
-1.284, 4.427e-5
-1.285, 4.343e-5
-1.286, 4.274e-5
-1.287, 4.330e-5
-1.288, 4.429e-5
-1.289, 4.478e-5
-1.290, 4.404e-5
-1.291, 4.319e-5
-1.292, 4.376e-5
-1.293, 4.499e-5
-1.294, 4.532e-5
-1.295, 4.467e-5
-1.296, 4.380e-5
-1.297, 4.439e-5
-1.298, 4.568e-5
-1.299, 4.602e-5
-1.300, 4.527e-5
-1.301, 4.454e-5
-1.302, 4.507e-5
-1.303, 4.642e-5
-1.304, 4.683e-5
-1.305, 4.590e-5
-1.306, 4.544e-5
-1.307, 4.589e-5
-1.308, 4.718e-5
-1.309, 4.763e-5
-1.310, 4.680e-5
-1.311, 4.620e-5
-1.312, 4.680e-5
-1.313, 4.804e-5
-1.314, 4.863e-5
-1.315, 4.776e-5
-1.316, 4.735e-5
-1.317, 4.801e-5
-1.318, 4.932e-5
-1.319, 4.979e-5
-1.320, 4.895e-5
-1.321, 4.843e-5
-1.322, 4.929e-5
-1.323, 5.051e-5
-1.324, 5.093e-5
-1.325, 5.024e-5
-1.326, 4.978e-5
-1.327, 5.065e-5
-1.328, 5.193e-5
-1.329, 5.239e-5
-1.330, 5.187e-5
-1.331, 5.121e-5
-1.332, 5.220e-5
-1.333, 5.360e-5
-1.334, 5.413e-5
-1.335, 5.354e-5
-1.336, 5.311e-5
-1.337, 5.388e-5
-1.338, 5.563e-5
-1.339, 5.609e-5
-1.340, 5.555e-5
-1.341, 5.535e-5
-1.342, 5.615e-5
-1.343, 5.786e-5
-1.344, 5.828e-5
-1.345, 5.782e-5
-1.346, 5.755e-5
-1.347, 5.846e-5
-1.348, 6.012e-5
-1.349, 6.078e-5
-1.350, 6.011e-5
-1.351, 6.005e-5
-1.352, 6.108e-5
-1.353, 6.272e-5
-1.354, 6.349e-5
-1.355, 6.292e-5
-1.356, 6.282e-5
-1.357, 6.407e-5
-1.358, 6.572e-5
-1.359, 6.653e-5
-1.360, 6.588e-5
-1.361, 6.587e-5
-1.362, 6.718e-5
-1.363, 6.894e-5
-1.364, 6.964e-5
-1.365, 6.934e-5
-1.366, 6.930e-5
-1.367, 7.074e-5
-1.368, 7.255e-5
-1.369, 7.324e-5
-1.370, 7.314e-5
-1.371, 7.319e-5
-1.372, 7.473e-5
-1.373, 7.680e-5
-1.374, 7.756e-5
-1.375, 7.752e-5
-1.376, 7.760e-5
-1.377, 7.927e-5
-1.378, 8.139e-5
-1.379, 8.219e-5
-1.380, 8.215e-5
-1.381, 8.261e-5
-1.382, 8.422e-5
-1.383, 8.643e-5
-1.384, 8.726e-5
-1.385, 8.736e-5
-1.386, 8.780e-5
-1.387, 8.955e-5
-1.388, 9.184e-5
-1.389, 9.304e-5
-1.390, 9.306e-5
-1.391, 9.369e-5
-1.392, 9.570e-5
-1.393, 9.817e-5
-1.394, 9.943e-5
-1.395, 9.954e-5
-1.396, 1.003e-4
-1.397, 1.024e-4
-1.398, 1.050e-4
-1.399, 1.065e-4
-1.400, 1.067e-4
-1.401, 1.076e-4
-1.402, 1.100e-4
-1.403, 1.127e-4
-1.404, 1.143e-4
-1.405, 1.147e-4
-1.406, 1.158e-4
-1.407, 1.183e-4
-1.408, 1.211e-4
-1.409, 1.226e-4
-1.410, 1.234e-4
-1.411, 1.248e-4
-1.412, 1.275e-4
-1.413, 1.306e-4
-1.414, 1.325e-4
-1.415, 1.333e-4
-1.416, 1.348e-4
-1.417, 1.375e-4
-1.418, 1.409e-4
-1.419, 1.427e-4
-1.420, 1.438e-4
-1.421, 1.456e-4
-1.422, 1.487e-4
-1.423, 1.523e-4
-1.424, 1.544e-4
-1.425, 1.559e-4
-1.426, 1.579e-4
-1.427, 1.612e-4
-1.428, 1.650e-4
-1.429, 1.675e-4
-1.430, 1.693e-4
-1.431, 1.718e-4
-1.432, 1.754e-4
-1.433, 1.797e-4
-1.434, 1.825e-4
-1.435, 1.846e-4
-1.436, 1.873e-4
-1.437, 1.910e-4
-1.438, 1.950e-4
-1.439, 1.981e-4
-1.440, 2.003e-4
-1.441, 2.033e-4
-1.442, 2.078e-4
-1.443, 2.123e-4
-1.444, 2.158e-4
-1.445, 2.185e-4
-1.446, 2.217e-4
-1.447, 2.265e-4
-1.448, 2.311e-4
-1.449, 2.345e-4
-1.450, 2.375e-4
-1.451, 2.413e-4
-1.452, 2.462e-4
-1.453, 2.514e-4
-1.454, 2.550e-4
-1.455, 2.585e-4
-1.456, 2.625e-4
-1.457, 2.679e-4
-1.458, 2.735e-4
-1.459, 2.779e-4
-1.460, 2.818e-4
-1.461, 2.864e-4
-1.462, 2.923e-4
-1.463, 2.987e-4
-1.464, 3.035e-4
-1.465, 3.077e-4
-1.466, 3.130e-4
-1.467, 3.193e-4
-1.468, 3.259e-4
-1.469, 3.312e-4
-1.470, 3.357e-4
-1.471, 3.415e-4
-1.472, 3.482e-4
-1.473, 3.554e-4
-1.474, 3.612e-4
-1.475, 3.663e-4
-1.476, 3.728e-4
-1.477, 3.807e-4
-1.478, 3.885e-4
-1.479, 3.950e-4
-1.480, 4.011e-4
-1.481, 4.081e-4
-1.482, 4.165e-4
-1.483, 4.245e-4
-1.484, 4.318e-4
-1.485, 4.380e-4
-1.486, 4.456e-4
-1.487, 4.548e-4
-1.488, 4.639e-4
-1.489, 4.716e-4
-1.490, 4.789e-4
-1.491, 4.874e-4
-1.492, 4.967e-4
-1.493, 5.063e-4
-1.494, 5.146e-4
-1.495, 5.230e-4
-1.496, 5.323e-4
-1.497, 5.426e-4
-1.498, 5.531e-4
-1.499, 5.624e-4
-1.500, 5.712e-4
-1.501, 5.810e-4
-1.502, 5.922e-4
-1.503, 6.037e-4
-1.504, 6.135e-4
-1.505, 6.232e-4
-1.506, 6.336e-4
-1.507, 6.460e-4
-1.508, 6.588e-4
-1.509, 6.704e-4
-1.510, 6.813e-4
-1.511, 6.927e-4
-1.512, 7.059e-4
-1.513, 7.194e-4
-1.514, 7.325e-4
-1.515, 7.448e-4
-1.516, 7.572e-4
-1.517, 7.720e-4
-1.518, 7.866e-4
-1.519, 7.999e-4
-1.520, 8.133e-4
-1.521, 8.280e-4
-1.522, 8.427e-4
-1.523, 8.585e-4
-1.524, 8.738e-4
-1.525, 8.888e-4
-1.526, 9.046e-4
-1.527, 9.220e-4
-1.528, 9.379e-4
-1.529, 9.538e-4
-1.530, 9.700e-4
-1.531, 9.873e-4
-1.532, 1.007e-3
-1.533, 1.026e-3
-1.534, 1.044e-3
-1.535, 1.062e-3
-1.536, 1.081e-3
-1.537, 1.102e-3
-1.538, 1.122e-3
-1.539, 1.142e-3
-1.540, 1.162e-3
-1.541, 1.182e-3
-1.542, 1.204e-3
-1.543, 1.227e-3
-1.544, 1.249e-3
-1.545, 1.271e-3
-1.546, 1.295e-3
-1.547, 1.319e-3
-1.548, 1.344e-3
-1.549, 1.367e-3
-1.550, 1.391e-3
-1.551, 1.416e-3
-1.552, 1.442e-3
-1.553, 1.470e-3
-1.554, 1.496e-3
-1.555, 1.522e-3
-1.556, 1.550e-3
-1.557, 1.580e-3
-1.558, 1.609e-3
-1.559, 1.638e-3
-1.560, 1.669e-3
-1.561, 1.700e-3
-1.562, 1.731e-3
-1.563, 1.763e-3
-1.564, 1.794e-3
-1.565, 1.826e-3
-1.566, 1.861e-3
-1.567, 1.896e-3
-1.568, 1.930e-3
-1.569, 1.966e-3
-1.570, 2.002e-3
-1.571, 2.037e-3
-1.572, 2.074e-3
-1.573, 2.115e-3
-1.574, 2.152e-3
-1.575, 2.189e-3
-1.576, 2.230e-3
-1.577, 2.272e-3
-1.578, 2.313e-3
-1.579, 2.355e-3
-1.580, 2.397e-3
-1.581, 2.440e-3
-1.582, 2.485e-3
-1.583, 2.530e-3
-1.584, 2.576e-3
-1.585, 2.622e-3
-1.586, 2.672e-3
-1.587, 2.722e-3
-1.588, 2.772e-3
-1.589, 2.822e-3
-1.590, 2.873e-3
-1.591, 2.922e-3
-1.592, 2.973e-3
-1.593, 3.028e-3
-1.594, 3.084e-3
-1.595, 3.140e-3
-1.596, 3.195e-3
-1.597, 3.254e-3
-1.598, 3.313e-3
-1.599, 3.369e-3
-1.600, 3.376e-3
-1.599, 3.336e-3
-1.598, 3.302e-3
-1.597, 3.266e-3
-1.596, 3.225e-3
-1.595, 3.187e-3
-1.594, 3.152e-3
-1.593, 3.118e-3
-1.592, 3.078e-3
-1.591, 3.032e-3
-1.590, 2.990e-3
-1.589, 2.941e-3
-1.588, 2.903e-3
-1.587, 2.863e-3
-1.586, 2.821e-3
-1.585, 2.783e-3
-1.584, 2.749e-3
-1.583, 2.709e-3
-1.582, 2.670e-3
-1.581, 2.631e-3
-1.580, 2.590e-3
-1.579, 2.549e-3
-1.578, 2.505e-3
-1.577, 2.467e-3
-1.576, 2.429e-3
-1.575, 2.389e-3
-1.574, 2.354e-3
-1.573, 2.319e-3
-1.572, 2.284e-3
-1.571, 2.249e-3
-1.570, 2.212e-3
-1.569, 2.178e-3
-1.568, 2.144e-3
-1.567, 2.108e-3
-1.566, 2.074e-3
-1.565, 2.041e-3
-1.564, 2.008e-3
-1.563, 1.977e-3
-1.562, 1.944e-3
-1.561, 1.913e-3
-1.560, 1.881e-3
-1.559, 1.850e-3
-1.558, 1.820e-3
-1.557, 1.789e-3
-1.556, 1.760e-3
-1.555, 1.729e-3
-1.554, 1.699e-3
-1.553, 1.672e-3
-1.552, 1.646e-3
-1.551, 1.619e-3
-1.550, 1.589e-3
-1.549, 1.562e-3
-1.548, 1.536e-3
-1.547, 1.510e-3
-1.546, 1.483e-3
-1.545, 1.457e-3
-1.544, 1.433e-3
-1.543, 1.409e-3
-1.542, 1.384e-3
-1.541, 1.360e-3
-1.540, 1.335e-3
-1.539, 1.313e-3
-1.538, 1.291e-3
-1.537, 1.269e-3
-1.536, 1.246e-3
-1.535, 1.225e-3
-1.534, 1.202e-3
-1.533, 1.182e-3
-1.532, 1.161e-3
-1.531, 1.140e-3
-1.530, 1.119e-3
-1.529, 1.099e-3
-1.528, 1.081e-3
-1.527, 1.062e-3
-1.526, 1.043e-3
-1.525, 1.023e-3
-1.524, 1.005e-3
-1.523, 9.878e-4
-1.522, 9.695e-4
-1.521, 9.508e-4
-1.520, 9.334e-4
-1.519, 9.167e-4
-1.518, 9.014e-4
-1.517, 8.849e-4
-1.516, 8.669e-4
-1.515, 8.502e-4
-1.514, 8.353e-4
-1.513, 8.206e-4
-1.512, 8.054e-4
-1.511, 7.895e-4
-1.510, 7.741e-4
-1.509, 7.601e-4
-1.508, 7.470e-4
-1.507, 7.329e-4
-1.506, 7.178e-4
-1.505, 7.035e-4
-1.504, 6.910e-4
-1.503, 6.791e-4
-1.502, 6.659e-4
-1.501, 6.526e-4
-1.500, 6.400e-4
-1.499, 6.278e-4
-1.498, 6.171e-4
-1.497, 6.051e-4
-1.496, 5.923e-4
-1.495, 5.804e-4
-1.494, 5.695e-4
-1.493, 5.599e-4
-1.492, 5.490e-4
-1.491, 5.370e-4
-1.490, 5.261e-4
-1.489, 5.162e-4
-1.488, 5.077e-4
-1.487, 4.976e-4
-1.486, 4.869e-4
-1.485, 4.766e-4
-1.484, 4.678e-4
-1.483, 4.593e-4
-1.482, 4.500e-4
-1.481, 4.401e-4
-1.480, 4.312e-4
-1.479, 4.233e-4
-1.478, 4.158e-4
-1.477, 4.076e-4
-1.476, 3.988e-4
-1.475, 3.903e-4
-1.474, 3.831e-4
-1.473, 3.761e-4
-1.472, 3.682e-4
-1.471, 3.596e-4
-1.470, 3.515e-4
-1.469, 3.451e-4
-1.468, 3.389e-4
-1.467, 3.318e-4
-1.466, 3.243e-4
-1.465, 3.171e-4
-1.464, 3.116e-4
-1.463, 3.060e-4
-1.462, 2.993e-4
-1.461, 2.922e-4
-1.460, 2.858e-4
-1.459, 2.806e-4
-1.458, 2.757e-4
-1.457, 2.696e-4
-1.456, 2.628e-4
-1.455, 2.570e-4
-1.454, 2.523e-4
-1.453, 2.479e-4
-1.452, 2.422e-4
-1.451, 2.359e-4
-1.450, 2.307e-4
-1.449, 2.268e-4
-1.448, 2.229e-4
-1.447, 2.174e-4
-1.446, 2.115e-4
-1.445, 2.067e-4
-1.444, 2.031e-4
-1.443, 1.995e-4
-1.442, 1.947e-4
-1.441, 1.894e-4
-1.440, 1.852e-4
-1.439, 1.820e-4
-1.438, 1.787e-4
-1.437, 1.744e-4
-1.436, 1.694e-4
-1.435, 1.653e-4
-1.434, 1.624e-4
-1.433, 1.598e-4
-1.432, 1.558e-4
-1.431, 1.511e-4
-1.430, 1.471e-4
-1.429, 1.449e-4
-1.428, 1.423e-4
-1.427, 1.385e-4
-1.426, 1.346e-4
-1.425, 1.311e-4
-1.424, 1.295e-4
-1.423, 1.272e-4
-1.422, 1.236e-4
-1.421, 1.197e-4
-1.420, 1.167e-4
-1.419, 1.147e-4
-1.418, 1.129e-4
-1.417, 1.095e-4
-1.416, 1.059e-4
-1.415, 1.032e-4
-1.414, 1.015e-4
-1.413, 9.990e-5
-1.412, 9.704e-5
-1.411, 9.351e-5
-1.410, 9.115e-5
-1.409, 8.964e-5
-1.408, 8.823e-5
-1.407, 8.544e-5
-1.406, 8.202e-5
-1.405, 7.973e-5
-1.404, 7.866e-5
-1.403, 7.715e-5
-1.402, 7.482e-5
-1.401, 7.167e-5
-1.400, 6.973e-5
-1.399, 6.880e-5
-1.398, 6.764e-5
-1.397, 6.520e-5
-1.396, 6.240e-5
-1.395, 6.032e-5
-1.394, 5.972e-5
-1.393, 5.864e-5
-1.392, 5.654e-5
-1.391, 5.389e-5
-1.390, 5.205e-5
-1.389, 5.174e-5
-1.388, 5.086e-5
-1.387, 4.856e-5
-1.386, 4.621e-5
-1.385, 4.465e-5
-1.384, 4.439e-5
-1.383, 4.355e-5
-1.382, 4.157e-5
-1.381, 3.934e-5
-1.380, 3.804e-5
-1.379, 3.768e-5
-1.378, 3.718e-5
-1.377, 3.533e-5
-1.376, 3.308e-5
-1.375, 3.192e-5
-1.374, 3.169e-5
-1.373, 3.137e-5
-1.372, 2.958e-5
-1.371, 2.733e-5
-1.370, 2.634e-5
-1.369, 2.631e-5
-1.368, 2.592e-5
-1.367, 2.429e-5
-1.366, 2.227e-5
-1.365, 2.142e-5
-1.364, 2.156e-5
-1.363, 2.117e-5
-1.362, 1.968e-5
-1.361, 1.764e-5
-1.360, 1.687e-5
-1.359, 1.711e-5
-1.358, 1.692e-5
-1.357, 1.547e-5
-1.356, 1.352e-5
-1.355, 1.285e-5
-1.354, 1.317e-5
-1.353, 1.299e-5
-1.352, 1.161e-5
-1.351, 9.988e-6
-1.350, 9.111e-6
-1.349, 9.465e-6
-1.348, 9.346e-6
-1.347, 7.919e-6
-1.346, 6.522e-6
-1.345, 5.755e-6
-1.344, 6.184e-6
-1.343, 6.202e-6
-1.342, 4.527e-6
-1.341, 3.064e-6
-1.340, 2.727e-6
-1.339, 3.172e-6
-1.338, 3.204e-6
-1.337, 1.730e-6
-1.336, 3.747e-7
-1.335, -7.321e-8
-1.334, 4.813e-7
-1.333, 6.125e-7
-1.332, -7.490e-7
-1.331, -2.226e-6
-1.330, -2.449e-6
-1.329, -1.954e-6
-1.328, -1.909e-6
-1.327, -3.212e-6
-1.326, -4.592e-6
-1.325, -4.686e-6
-1.324, -4.202e-6
-1.323, -4.282e-6
-1.322, -5.309e-6
-1.321, -6.779e-6
-1.320, -6.899e-6
-1.319, -6.280e-6
-1.318, -6.298e-6
-1.317, -7.382e-6
-1.316, -8.715e-6
-1.315, -9.023e-6
-1.314, -8.238e-6
-1.313, -8.141e-6
-1.312, -9.268e-6
-1.311, -1.060e-5
-1.310, -1.077e-5
-1.309, -9.932e-6
-1.308, -9.804e-6
-1.307, -1.108e-5
-1.306, -1.225e-5
-1.305, -1.244e-5
-1.304, -1.159e-5
-1.303, -1.149e-5
-1.302, -1.274e-5
-1.301, -1.394e-5
-1.300, -1.387e-5
-1.299, -1.318e-5
-1.298, -1.297e-5
-1.297, -1.420e-5
-1.296, -1.538e-5
-1.295, -1.533e-5
-1.294, -1.471e-5
-1.293, -1.455e-5
-1.292, -1.565e-5
-1.291, -1.698e-5
-1.290, -1.688e-5
-1.289, -1.609e-5
-1.288, -1.585e-5
-1.287, -1.698e-5
-1.286, -1.823e-5
-1.285, -1.810e-5
-1.284, -1.726e-5
-1.283, -1.723e-5
-1.282, -1.821e-5
-1.281, -1.953e-5
-1.280, -1.946e-5
-1.279, -1.853e-5
-1.278, -1.849e-5
-1.277, -1.939e-5
-1.276, -2.061e-5
-1.275, -2.059e-5
-1.274, -1.972e-5
-1.273, -1.958e-5
-1.272, -2.061e-5
-1.271, -2.175e-5
-1.270, -2.167e-5
-1.269, -2.069e-5
-1.268, -2.059e-5
-1.267, -2.178e-5
-1.266, -2.271e-5
-1.265, -2.272e-5
-1.264, -2.180e-5
-1.263, -2.151e-5
-1.262, -2.278e-5
-1.261, -2.367e-5
-1.260, -2.352e-5
-1.259, -2.273e-5
-1.258, -2.249e-5
-1.257, -2.371e-5
-1.256, -2.464e-5
-1.255, -2.451e-5
-1.254, -2.368e-5
-1.253, -2.342e-5
-1.252, -2.461e-5
-1.251, -2.574e-5
-1.250, -2.544e-5
-1.249, -2.450e-5
-1.248, -2.433e-5
-1.247, -2.550e-5
-1.246, -2.669e-5
-1.245, -2.631e-5
-1.244, -2.543e-5
-1.243, -2.526e-5
-1.242, -2.633e-5
-1.241, -2.743e-5
-1.240, -2.707e-5
-1.239, -2.614e-5
-1.238, -2.617e-5
-1.237, -2.712e-5
-1.236, -2.806e-5
-1.235, -2.796e-5
-1.234, -2.690e-5
-1.233, -2.689e-5
-1.232, -2.780e-5
-1.231, -2.874e-5
-1.230, -2.854e-5
-1.229, -2.787e-5
-1.228, -2.750e-5
-1.227, -2.849e-5
-1.226, -2.953e-5
-1.225, -2.929e-5
-1.224, -2.816e-5
-1.223, -2.812e-5
-1.222, -2.929e-5
-1.221, -3.013e-5
-1.220, -2.980e-5
-1.219, -2.887e-5
-1.218, -2.872e-5
-1.217, -2.994e-5
-1.216, -3.074e-5
-1.215, -3.035e-5
-1.214, -2.942e-5
-1.213, -2.933e-5
-1.212, -3.032e-5
-1.211, -3.134e-5
-1.210, -3.093e-5
-1.209, -2.995e-5
-1.208, -2.978e-5
-1.207, -3.092e-5
-1.206, -3.197e-5
-1.205, -3.135e-5
-1.204, -3.034e-5
-1.203, -3.043e-5
-1.202, -3.150e-5
-1.201, -3.239e-5
-1.200, -3.184e-5
-1.199, -3.076e-5
-1.198, -3.089e-5
-1.197, -3.195e-5
-1.196, -3.272e-5
-1.195, -3.243e-5
-1.194, -3.130e-5
-1.193, -3.134e-5
-1.192, -3.235e-5
-1.191, -3.327e-5
-1.190, -3.281e-5
-1.189, -3.172e-5
-1.188, -3.176e-5
-1.187, -3.292e-5
-1.186, -3.367e-5
-1.185, -3.321e-5
-1.184, -3.218e-5
-1.183, -3.206e-5
-1.182, -3.341e-5
-1.181, -3.399e-5
-1.180, -3.361e-5
-1.179, -3.251e-5
-1.178, -3.268e-5
-1.177, -3.372e-5
-1.176, -3.445e-5
-1.175, -3.394e-5
-1.174, -3.301e-5
-1.173, -3.289e-5
-1.172, -3.405e-5
-1.171, -3.491e-5
-1.170, -3.435e-5
-1.169, -3.329e-5
-1.168, -3.323e-5
-1.167, -3.440e-5
-1.166, -3.522e-5
-1.165, -3.460e-5
-1.164, -3.356e-5
-1.163, -3.365e-5
-1.162, -3.474e-5
-1.161, -3.558e-5
-1.160, -3.505e-5
-1.159, -3.383e-5
-1.158, -3.407e-5
-1.157, -3.507e-5
-1.156, -3.582e-5
-1.155, -3.537e-5
-1.154, -3.424e-5
-1.153, -3.437e-5
-1.152, -3.545e-5
-1.151, -3.621e-5
-1.150, -3.574e-5
-1.149, -3.449e-5
-1.148, -3.466e-5
-1.147, -3.582e-5
-1.146, -3.662e-5
-1.145, -3.606e-5
-1.144, -3.489e-5
-1.143, -3.503e-5
-1.142, -3.622e-5
-1.141, -3.685e-5
-1.140, -3.616e-5
-1.139, -3.510e-5
-1.138, -3.537e-5
-1.137, -3.656e-5
-1.136, -3.726e-5
-1.135, -3.663e-5
-1.134, -3.569e-5
-1.133, -3.559e-5
-1.132, -3.683e-5
-1.131, -3.766e-5
-1.130, -3.695e-5
-1.129, -3.588e-5
-1.128, -3.595e-5
-1.127, -3.718e-5
-1.126, -3.795e-5
-1.125, -3.726e-5
-1.124, -3.613e-5
-1.123, -3.647e-5
-1.122, -3.753e-5
-1.121, -3.833e-5
-1.120, -3.758e-5
-1.119, -3.644e-5
-1.118, -3.676e-5
-1.117, -3.791e-5
-1.116, -3.867e-5
-1.115, -3.793e-5
-1.114, -3.673e-5
-1.113, -3.725e-5
-1.112, -3.835e-5
-1.111, -3.910e-5
-1.110, -3.839e-5
-1.109, -3.725e-5
-1.108, -3.742e-5
-1.107, -3.878e-5
-1.106, -3.950e-5
-1.105, -3.886e-5
-1.104, -3.763e-5
-1.103, -3.778e-5
-1.102, -3.930e-5
-1.101, -3.989e-5
-1.100, -3.921e-5
-1.099, -3.814e-5
-1.098, -3.830e-5
-1.097, -3.981e-5
-1.096, -4.033e-5
-1.095, -3.961e-5
-1.094, -3.866e-5
-1.093, -3.874e-5
-1.092, -4.016e-5
-1.091, -4.096e-5
-1.090, -4.006e-5
-1.089, -3.912e-5
-1.088, -3.928e-5
-1.087, -4.080e-5
-1.086, -4.147e-5
-1.085, -4.055e-5
-1.084, -3.951e-5
-1.083, -3.987e-5
-1.082, -4.108e-5
-1.081, -4.200e-5
-1.080, -4.110e-5
-1.079, -4.013e-5
-1.078, -4.059e-5
-1.077, -4.166e-5
-1.076, -4.248e-5
-1.075, -4.187e-5
-1.074, -4.068e-5
-1.073, -4.113e-5
-1.072, -4.238e-5
-1.071, -4.311e-5
-1.070, -4.237e-5
-1.069, -4.121e-5
-1.068, -4.159e-5
-1.067, -4.305e-5
-1.066, -4.370e-5
-1.065, -4.291e-5
-1.064, -4.181e-5
-1.063, -4.222e-5
-1.062, -4.383e-5
-1.061, -4.430e-5
-1.060, -4.360e-5
-1.059, -4.246e-5
-1.058, -4.288e-5
-1.057, -4.447e-5
-1.056, -4.492e-5
-1.055, -4.415e-5
-1.054, -4.329e-5
-1.053, -4.356e-5
-1.052, -4.504e-5
-1.051, -4.580e-5
-1.050, -4.490e-5
-1.049, -4.380e-5
-1.048, -4.436e-5
-1.047, -4.586e-5
-1.046, -4.653e-5
-1.045, -4.563e-5
-1.044, -4.454e-5
-1.043, -4.521e-5
-1.042, -4.651e-5
-1.041, -4.728e-5
-1.040, -4.646e-5
-1.039, -4.533e-5
-1.038, -4.591e-5
-1.037, -4.731e-5
-1.036, -4.810e-5
-1.035, -4.720e-5
-1.034, -4.605e-5
-1.033, -4.679e-5
-1.032, -4.833e-5
-1.031, -4.893e-5
-1.030, -4.826e-5
-1.029, -4.699e-5
-1.028, -4.758e-5
-1.027, -4.925e-5
-1.026, -4.978e-5
-1.025, -4.900e-5
-1.024, -4.800e-5
-1.023, -4.845e-5
-1.022, -5.028e-5
-1.021, -5.074e-5
-1.020, -4.982e-5
-1.019, -4.890e-5
-1.018, -4.942e-5
-1.017, -5.113e-5
-1.016, -5.163e-5
-1.015, -5.065e-5
-1.014, -4.988e-5
-1.013, -5.030e-5
-1.012, -5.190e-5
-1.011, -5.274e-5
-1.010, -5.181e-5
-1.009, -5.079e-5
-1.008, -5.131e-5
-1.007, -5.289e-5
-1.006, -5.373e-5
-1.005, -5.258e-5
-1.004, -5.168e-5
-1.003, -5.237e-5
-1.002, -5.392e-5
-1.001, -5.464e-5
-1.000, -2.956e-5
-1.001, -1.528e-5
-1.002, -9.894e-6
-1.003, -7.217e-6
-1.004, -4.509e-6
-1.005, -7.234e-7
-1.006, 2.533e-6
-1.007, 4.096e-6
-1.008, 4.199e-6
-1.009, 5.544e-6
-1.010, 8.103e-6
-1.011, 1.040e-5
-1.012, 1.097e-5
-1.013, 1.077e-5
-1.014, 1.142e-5
-1.015, 1.354e-5
-1.016, 1.544e-5
-1.017, 1.574e-5
-1.018, 1.524e-5
-1.019, 1.545e-5
-1.020, 1.748e-5
-1.021, 1.903e-5
-1.022, 1.919e-5
-1.023, 1.861e-5
-1.024, 1.869e-5
-1.025, 2.037e-5
-1.026, 2.200e-5
-1.027, 2.184e-5
-1.028, 2.104e-5
-1.029, 2.113e-5
-1.030, 2.266e-5
-1.031, 2.428e-5
-1.032, 2.386e-5
-1.033, 2.304e-5
-1.034, 2.316e-5
-1.035, 2.462e-5
-1.036, 2.602e-5
-1.037, 2.572e-5
-1.038, 2.469e-5
-1.039, 2.492e-5
-1.040, 2.619e-5
-1.041, 2.737e-5
-1.042, 2.715e-5
-1.043, 2.611e-5
-1.044, 2.619e-5
-1.045, 2.760e-5
-1.046, 2.869e-5
-1.047, 2.848e-5
-1.048, 2.716e-5
-1.049, 2.729e-5
-1.050, 2.876e-5
-1.051, 2.980e-5
-1.052, 2.936e-5
-1.053, 2.829e-5
-1.054, 2.832e-5
-1.055, 2.971e-5
-1.056, 3.067e-5
-1.057, 3.028e-5
-1.058, 2.929e-5
-1.059, 2.913e-5
-1.060, 3.058e-5
-1.061, 3.150e-5
-1.062, 3.103e-5
-1.063, 3.000e-5
-1.064, 2.999e-5
-1.065, 3.121e-5
-1.066, 3.229e-5
-1.067, 3.175e-5
-1.068, 3.067e-5
-1.069, 3.068e-5
-1.070, 3.195e-5
-1.071, 3.300e-5
-1.072, 3.241e-5
-1.073, 3.107e-5
-1.074, 3.162e-5
-1.075, 3.274e-5
-1.076, 3.354e-5
-1.077, 3.281e-5
-1.078, 3.173e-5
-1.079, 3.193e-5
-1.080, 3.314e-5
-1.081, 3.413e-5
-1.082, 3.346e-5
-1.083, 3.221e-5
-1.084, 3.225e-5
-1.085, 3.365e-5
-1.086, 3.450e-5
-1.087, 3.390e-5
-1.088, 3.268e-5
-1.089, 3.292e-5
-1.090, 3.427e-5
-1.091, 3.485e-5
-1.092, 3.430e-5
-1.093, 3.306e-5
-1.094, 3.332e-5
-1.095, 3.461e-5
-1.096, 3.527e-5
-1.097, 3.454e-5
-1.098, 3.367e-5
-1.099, 3.370e-5
-1.100, 3.502e-5
-1.101, 3.578e-5
-1.102, 3.502e-5
-1.103, 3.402e-5
-1.104, 3.399e-5
-1.105, 3.532e-5
-1.106, 3.615e-5
-1.107, 3.530e-5
-1.108, 3.428e-5
-1.109, 3.445e-5
-1.110, 3.560e-5
-1.111, 3.645e-5
-1.112, 3.559e-5
-1.113, 3.461e-5
-1.114, 3.484e-5
-1.115, 3.599e-5
-1.116, 3.673e-5
-1.117, 3.587e-5
-1.118, 3.498e-5
-1.119, 3.522e-5
-1.120, 3.629e-5
-1.121, 3.704e-5
-1.122, 3.632e-5
-1.123, 3.523e-5
-1.124, 3.539e-5
-1.125, 3.662e-5
-1.126, 3.734e-5
-1.127, 3.658e-5
-1.128, 3.541e-5
-1.129, 3.562e-5
-1.130, 3.698e-5
-1.131, 3.753e-5
-1.132, 3.671e-5
-1.133, 3.567e-5
-1.134, 3.592e-5
-1.135, 3.723e-5
-1.136, 3.778e-5
-1.137, 3.689e-5
-1.138, 3.596e-5
-1.139, 3.615e-5
-1.140, 3.743e-5
-1.141, 3.795e-5
-1.142, 3.723e-5
-1.143, 3.625e-5
-1.144, 3.643e-5
-1.145, 3.765e-5
-1.146, 3.833e-5
-1.147, 3.742e-5
-1.148, 3.650e-5
-1.149, 3.676e-5
-1.150, 3.801e-5
-1.151, 3.862e-5
-1.152, 3.763e-5
-1.153, 3.673e-5
-1.154, 3.706e-5
-1.155, 3.812e-5
-1.156, 3.875e-5
-1.157, 3.791e-5
-1.158, 3.693e-5
-1.159, 3.726e-5
-1.160, 3.839e-5
-1.161, 3.898e-5
-1.162, 3.815e-5
-1.163, 3.706e-5
-1.164, 3.748e-5
-1.165, 3.871e-5
-1.166, 3.920e-5
-1.167, 3.836e-5
-1.168, 3.729e-5
-1.169, 3.769e-5
-1.170, 3.895e-5
-1.171, 3.933e-5
-1.172, 3.853e-5
-1.173, 3.756e-5
-1.174, 3.786e-5
-1.175, 3.920e-5
-1.176, 3.966e-5
-1.177, 3.882e-5
-1.178, 3.793e-5
-1.179, 3.813e-5
-1.180, 3.944e-5
-1.181, 3.997e-5
-1.182, 3.896e-5
-1.183, 3.815e-5
-1.184, 3.833e-5
-1.185, 3.961e-5
-1.186, 4.020e-5
-1.187, 3.917e-5
-1.188, 3.835e-5
-1.189, 3.877e-5
-1.190, 3.994e-5
-1.191, 4.052e-5
-1.192, 3.943e-5
-1.193, 3.856e-5
-1.194, 3.916e-5
-1.195, 4.019e-5
-1.196, 4.068e-5
-1.197, 3.982e-5
-1.198, 3.892e-5
-1.199, 3.938e-5
-1.200, 4.052e-5
-1.201, 4.098e-5
-1.202, 4.002e-5
-1.203, 3.930e-5
-1.204, 3.971e-5
-1.205, 4.089e-5
-1.206, 4.125e-5
-1.207, 4.048e-5
-1.208, 3.942e-5
-1.209, 3.989e-5
-1.210, 4.134e-5
-1.211, 4.154e-5
-1.212, 4.071e-5
-1.213, 3.989e-5
-1.214, 4.032e-5
-1.215, 4.157e-5
-1.216, 4.194e-5
-1.217, 4.093e-5
-1.218, 4.029e-5
-1.219, 4.072e-5
-1.220, 4.196e-5
-1.221, 4.231e-5
-1.222, 4.125e-5
-1.223, 4.051e-5
-1.224, 4.098e-5
-1.225, 4.218e-5
-1.226, 4.259e-5
-1.227, 4.162e-5
-1.228, 4.105e-5
-1.229, 4.153e-5
-1.230, 4.264e-5
-1.231, 4.286e-5
-1.232, 4.190e-5
-1.233, 4.107e-5
-1.234, 4.175e-5
-1.235, 4.278e-5
-1.236, 4.313e-5
-1.237, 4.218e-5
-1.238, 4.132e-5
-1.239, 4.199e-5
-1.240, 4.308e-5
-1.241, 4.338e-5
-1.242, 4.242e-5
-1.243, 4.159e-5
-1.244, 4.218e-5
-1.245, 4.340e-5
-1.246, 4.347e-5
-1.247, 4.263e-5
-1.248, 4.184e-5
-1.249, 4.240e-5
-1.250, 4.371e-5
-1.251, 4.372e-5
-1.252, 4.278e-5
-1.253, 4.205e-5
-1.254, 4.253e-5
-1.255, 4.396e-5
-1.256, 4.395e-5
-1.257, 4.294e-5
-1.258, 4.233e-5
-1.259, 4.276e-5
-1.260, 4.422e-5
-1.261, 4.431e-5
-1.262, 4.310e-5
-1.263, 4.252e-5
-1.264, 4.305e-5
-1.265, 4.417e-5
-1.266, 4.430e-5
-1.267, 4.335e-5
-1.268, 4.268e-5
-1.269, 4.325e-5
-1.270, 4.451e-5
-1.271, 4.457e-5
-1.272, 4.348e-5
-1.273, 4.281e-5
-1.274, 4.349e-5
-1.275, 4.459e-5
-1.276, 4.468e-5
-1.277, 4.368e-5
-1.278, 4.301e-5
-1.279, 4.382e-5
-1.280, 4.498e-5
-1.281, 4.503e-5
-1.282, 4.410e-5
-1.283, 4.330e-5
-1.284, 4.408e-5
-1.285, 4.529e-5
-1.286, 4.527e-5
-1.287, 4.429e-5
-1.288, 4.370e-5
-1.289, 4.438e-5
-1.290, 4.569e-5
-1.291, 4.557e-5
-1.292, 4.476e-5
-1.293, 4.424e-5
-1.294, 4.493e-5
-1.295, 4.633e-5
-1.296, 4.617e-5
-1.297, 4.515e-5
-1.298, 4.464e-5
-1.299, 4.536e-5
-1.300, 4.675e-5
-1.301, 4.676e-5
-1.302, 4.562e-5
-1.303, 4.521e-5
-1.304, 4.587e-5
-1.305, 4.720e-5
-1.306, 4.734e-5
-1.307, 4.636e-5
-1.308, 4.592e-5
-1.309, 4.674e-5
-1.310, 4.799e-5
-1.311, 4.824e-5
-1.312, 4.718e-5
-1.313, 4.672e-5
-1.314, 4.764e-5
-1.315, 4.890e-5
-1.316, 4.901e-5
-1.317, 4.820e-5
-1.318, 4.765e-5
-1.319, 4.871e-5
-1.320, 4.990e-5
-1.321, 5.006e-5
-1.322, 4.929e-5
-1.323, 4.874e-5
-1.324, 4.981e-5
-1.325, 5.110e-5
-1.326, 5.132e-5
-1.327, 5.047e-5
-1.328, 5.006e-5
-1.329, 5.107e-5
-1.330, 5.266e-5
-1.331, 5.269e-5
-1.332, 5.188e-5
-1.333, 5.160e-5
-1.334, 5.279e-5
-1.335, 5.416e-5
-1.336, 5.439e-5
-1.337, 5.361e-5
-1.338, 5.353e-5
-1.339, 5.448e-5
-1.340, 5.617e-5
-1.341, 5.634e-5
-1.342, 5.559e-5
-1.343, 5.555e-5
-1.344, 5.666e-5
-1.345, 5.827e-5
-1.346, 5.870e-5
-1.347, 5.798e-5
-1.348, 5.798e-5
-1.349, 5.930e-5
-1.350, 6.078e-5
-1.351, 6.112e-5
-1.352, 6.039e-5
-1.353, 6.043e-5
-1.354, 6.180e-5
-1.355, 6.335e-5
-1.356, 6.368e-5
-1.357, 6.327e-5
-1.358, 6.315e-5
-1.359, 6.471e-5
-1.360, 6.637e-5
-1.361, 6.677e-5
-1.362, 6.642e-5
-1.363, 6.645e-5
-1.364, 6.796e-5
-1.365, 6.975e-5
-1.366, 7.009e-5
-1.367, 6.972e-5
-1.368, 7.001e-5
-1.369, 7.159e-5
-1.370, 7.351e-5
-1.371, 7.399e-5
-1.372, 7.364e-5
-1.373, 7.403e-5
-1.374, 7.570e-5
-1.375, 7.766e-5
-1.376, 7.803e-5
-1.377, 7.801e-5
-1.378, 7.852e-5
-1.379, 8.013e-5
-1.380, 8.211e-5
-1.381, 8.274e-5
-1.382, 8.271e-5
-1.383, 8.316e-5
-1.384, 8.492e-5
-1.385, 8.706e-5
-1.386, 8.790e-5
-1.387, 8.771e-5
-1.388, 8.846e-5
-1.389, 9.051e-5
-1.390, 9.263e-5
-1.391, 9.359e-5
-1.392, 9.344e-5
-1.393, 9.433e-5
-1.394, 9.649e-5
-1.395, 9.875e-5
-1.396, 9.966e-5
-1.397, 9.983e-5
-1.398, 1.006e-4
-1.399, 1.030e-4
-1.400, 1.054e-4
-1.401, 1.065e-4
-1.402, 1.069e-4
-1.403, 1.081e-4
-1.404, 1.104e-4
-1.405, 1.127e-4
-1.406, 1.140e-4
-1.407, 1.145e-4
-1.408, 1.160e-4
-1.409, 1.184e-4
-1.410, 1.211e-4
-1.411, 1.223e-4
-1.412, 1.231e-4
-1.413, 1.247e-4
-1.414, 1.273e-4
-1.415, 1.301e-4
-1.416, 1.316e-4
-1.417, 1.325e-4
-1.418, 1.344e-4
-1.419, 1.374e-4
-1.420, 1.403e-4
-1.421, 1.420e-4
-1.422, 1.425e-4
-1.423, 1.448e-4
-1.424, 1.477e-4
-1.425, 1.509e-4
-1.426, 1.529e-4
-1.427, 1.541e-4
-1.428, 1.563e-4
-1.429, 1.595e-4
-1.430, 1.630e-4
-1.431, 1.652e-4
-1.432, 1.664e-4
-1.433, 1.689e-4
-1.434, 1.726e-4
-1.435, 1.760e-4
-1.436, 1.784e-4
-1.437, 1.801e-4
-1.438, 1.827e-4
-1.439, 1.866e-4
-1.440, 1.903e-4
-1.441, 1.928e-4
-1.442, 1.949e-4
-1.443, 1.977e-4
-1.444, 2.020e-4
-1.445, 2.062e-4
-1.446, 2.090e-4
-1.447, 2.114e-4
-1.448, 2.147e-4
-1.449, 2.193e-4
-1.450, 2.238e-4
-1.451, 2.270e-4
-1.452, 2.301e-4
-1.453, 2.340e-4
-1.454, 2.391e-4
-1.455, 2.441e-4
-1.456, 2.478e-4
-1.457, 2.509e-4
-1.458, 2.551e-4
-1.459, 2.604e-4
-1.460, 2.658e-4
-1.461, 2.700e-4
-1.462, 2.736e-4
-1.463, 2.782e-4
-1.464, 2.840e-4
-1.465, 2.900e-4
-1.466, 2.949e-4
-1.467, 2.987e-4
-1.468, 3.038e-4
-1.469, 3.101e-4
-1.470, 3.165e-4
-1.471, 3.220e-4
-1.472, 3.269e-4
-1.473, 3.326e-4
-1.474, 3.400e-4
-1.475, 3.471e-4
-1.476, 3.530e-4
-1.477, 3.585e-4
-1.478, 3.652e-4
-1.479, 3.730e-4
-1.480, 3.803e-4
-1.481, 3.869e-4
-1.482, 3.929e-4
-1.483, 3.997e-4
-1.484, 4.081e-4
-1.485, 4.168e-4
-1.486, 4.238e-4
-1.487, 4.306e-4
-1.488, 4.384e-4
-1.489, 4.478e-4
-1.490, 4.568e-4
-1.491, 4.646e-4
-1.492, 4.723e-4
-1.493, 4.805e-4
-1.494, 4.902e-4
-1.495, 5.001e-4
-1.496, 5.086e-4
-1.497, 5.171e-4
-1.498, 5.264e-4
-1.499, 5.370e-4
-1.500, 5.481e-4
-1.501, 5.576e-4
-1.502, 5.671e-4
-1.503, 5.778e-4
-1.504, 5.892e-4
-1.505, 6.006e-4
-1.506, 6.111e-4
-1.507, 6.212e-4
-1.508, 6.324e-4
-1.509, 6.453e-4
-1.510, 6.577e-4
-1.511, 6.693e-4
-1.512, 6.808e-4
-1.513, 6.940e-4
-1.514, 7.077e-4
-1.515, 7.213e-4
-1.516, 7.344e-4
-1.517, 7.473e-4
-1.518, 7.606e-4
-1.519, 7.750e-4
-1.520, 7.900e-4
-1.521, 8.045e-4
-1.522, 8.188e-4
-1.523, 8.336e-4
-1.524, 8.494e-4
-1.525, 8.657e-4
-1.526, 8.812e-4
-1.527, 8.965e-4
-1.528, 9.127e-4
-1.529, 9.302e-4
-1.530, 9.479e-4
-1.531, 9.648e-4
-1.532, 9.821e-4
-1.533, 1.001e-3
-1.534, 1.020e-3
-1.535, 1.040e-3
-1.536, 1.058e-3
-1.537, 1.076e-3
-1.538, 1.094e-3
-1.539, 1.114e-3
-1.540, 1.136e-3
-1.541, 1.156e-3
-1.542, 1.178e-3
-1.543, 1.200e-3
-1.544, 1.223e-3
-1.545, 1.246e-3
-1.546, 1.269e-3
-1.547, 1.291e-3
-1.548, 1.314e-3
-1.549, 1.339e-3
-1.550, 1.367e-3
-1.551, 1.390e-3
-1.552, 1.414e-3
-1.553, 1.441e-3
-1.554, 1.468e-3
-1.555, 1.494e-3
-1.556, 1.522e-3
-1.557, 1.552e-3
-1.558, 1.580e-3
-1.559, 1.609e-3
-1.560, 1.639e-3
-1.561, 1.670e-3
-1.562, 1.699e-3
-1.563, 1.730e-3
-1.564, 1.763e-3
-1.565, 1.797e-3
-1.566, 1.831e-3
-1.567, 1.865e-3
-1.568, 1.899e-3
-1.569, 1.935e-3
-1.570, 1.972e-3
-1.571, 2.008e-3
-1.572, 2.044e-3
-1.573, 2.081e-3
-1.574, 2.121e-3
-1.575, 2.162e-3
-1.576, 2.202e-3
-1.577, 2.243e-3
-1.578, 2.284e-3
-1.579, 2.327e-3
-1.580, 2.370e-3
-1.581, 2.416e-3
-1.582, 2.460e-3
-1.583, 2.506e-3
-1.584, 2.556e-3
-1.585, 2.604e-3
-1.586, 2.652e-3
-1.587, 2.701e-3
-1.588, 2.749e-3
-1.589, 2.800e-3
-1.590, 2.853e-3
-1.591, 2.904e-3
-1.592, 2.953e-3
-1.593, 3.006e-3
-1.594, 3.063e-3
-1.595, 3.117e-3
-1.596, 3.174e-3
-1.597, 3.233e-3
-1.598, 3.294e-3
-1.599, 3.353e-3
-1.600, 3.362e-3
-1.599, 3.323e-3
-1.598, 3.283e-3
-1.597, 3.242e-3
-1.596, 3.201e-3
-1.595, 3.162e-3
-1.594, 3.121e-3
-1.593, 3.080e-3
-1.592, 3.039e-3
-1.591, 3.001e-3
-1.590, 2.964e-3
-1.589, 2.923e-3
-1.588, 2.874e-3
-1.587, 2.829e-3
-1.586, 2.788e-3
-1.585, 2.750e-3
-1.584, 2.709e-3
-1.583, 2.666e-3
-1.582, 2.626e-3
-1.581, 2.589e-3
-1.580, 2.551e-3
-1.579, 2.512e-3
-1.578, 2.471e-3
-1.577, 2.432e-3
-1.576, 2.394e-3
-1.575, 2.358e-3
-1.574, 2.321e-3
-1.573, 2.282e-3
-1.572, 2.245e-3
-1.571, 2.211e-3
-1.570, 2.177e-3
-1.569, 2.140e-3
-1.568, 2.104e-3
-1.567, 2.069e-3
-1.566, 2.036e-3
-1.565, 2.004e-3
-1.564, 1.970e-3
-1.563, 1.937e-3
-1.562, 1.905e-3
-1.561, 1.872e-3
-1.560, 1.842e-3
-1.559, 1.813e-3
-1.558, 1.781e-3
-1.557, 1.750e-3
-1.556, 1.723e-3
-1.555, 1.693e-3
-1.554, 1.665e-3
-1.553, 1.634e-3
-1.552, 1.604e-3
-1.551, 1.575e-3
-1.550, 1.547e-3
-1.549, 1.520e-3
-1.548, 1.492e-3
-1.547, 1.466e-3
-1.546, 1.441e-3
-1.545, 1.417e-3
-1.544, 1.391e-3
-1.543, 1.364e-3
-1.542, 1.340e-3
-1.541, 1.317e-3
-1.540, 1.294e-3
-1.539, 1.270e-3
-1.538, 1.246e-3
-1.537, 1.224e-3
-1.536, 1.203e-3
-1.535, 1.182e-3
-1.534, 1.159e-3
-1.533, 1.137e-3
-1.532, 1.116e-3
-1.531, 1.097e-3
-1.530, 1.078e-3
-1.529, 1.058e-3
-1.528, 1.038e-3
-1.527, 1.020e-3
-1.526, 9.999e-4
-1.525, 9.818e-4
-1.524, 9.631e-4
-1.523, 9.448e-4
-1.522, 9.268e-4
-1.521, 9.106e-4
-1.520, 8.945e-4
-1.519, 8.766e-4
-1.518, 8.590e-4
-1.517, 8.431e-4
-1.516, 8.280e-4
-1.515, 8.129e-4
-1.514, 7.971e-4
-1.513, 7.811e-4
-1.512, 7.669e-4
-1.511, 7.529e-4
-1.510, 7.388e-4
-1.509, 7.234e-4
-1.508, 7.083e-4
-1.507, 6.950e-4
-1.506, 6.830e-4
-1.505, 6.698e-4
-1.504, 6.558e-4
-1.503, 6.422e-4
-1.502, 6.301e-4
-1.501, 6.188e-4
-1.500, 6.071e-4
-1.499, 5.940e-4
-1.498, 5.813e-4
-1.497, 5.702e-4
-1.496, 5.601e-4
-1.495, 5.492e-4
-1.494, 5.372e-4
-1.493, 5.258e-4
-1.492, 5.158e-4
-1.491, 5.065e-4
-1.490, 4.968e-4
-1.489, 4.859e-4
-1.488, 4.752e-4
-1.487, 4.658e-4
-1.486, 4.570e-4
-1.485, 4.479e-4
-1.484, 4.379e-4
-1.483, 4.281e-4
-1.482, 4.198e-4
-1.481, 4.122e-4
-1.480, 4.039e-4
-1.479, 3.946e-4
-1.478, 3.854e-4
-1.477, 3.780e-4
-1.476, 3.713e-4
-1.475, 3.640e-4
-1.474, 3.555e-4
-1.473, 3.470e-4
-1.472, 3.403e-4
-1.471, 3.342e-4
-1.470, 3.273e-4
-1.469, 3.196e-4
-1.468, 3.118e-4
-1.467, 3.057e-4
-1.466, 3.008e-4
-1.465, 2.941e-4
-1.464, 2.870e-4
-1.463, 2.802e-4
-1.462, 2.746e-4
-1.461, 2.699e-4
-1.460, 2.643e-4
-1.459, 2.575e-4
-1.458, 2.514e-4
-1.457, 2.463e-4
-1.456, 2.422e-4
-1.455, 2.368e-4
-1.454, 2.306e-4
-1.453, 2.250e-4
-1.452, 2.206e-4
-1.451, 2.168e-4
-1.450, 2.122e-4
-1.449, 2.063e-4
-1.448, 2.011e-4
-1.447, 1.974e-4
-1.446, 1.940e-4
-1.445, 1.897e-4
-1.444, 1.844e-4
-1.443, 1.796e-4
-1.442, 1.763e-4
-1.441, 1.732e-4
-1.440, 1.695e-4
-1.439, 1.646e-4
-1.438, 1.600e-4
-1.437, 1.570e-4
-1.436, 1.545e-4
-1.435, 1.507e-4
-1.434, 1.462e-4
-1.433, 1.421e-4
-1.432, 1.396e-4
-1.431, 1.373e-4
-1.430, 1.339e-4
-1.429, 1.299e-4
-1.428, 1.262e-4
-1.427, 1.238e-4
-1.426, 1.217e-4
-1.425, 1.186e-4
-1.424, 1.147e-4
-1.423, 1.113e-4
-1.422, 1.091e-4
-1.421, 1.077e-4
-1.420, 1.049e-4
-1.419, 1.012e-4
-1.418, 9.812e-5
-1.417, 9.620e-5
-1.416, 9.494e-5
-1.415, 9.245e-5
-1.414, 8.886e-5
-1.413, 8.600e-5
-1.412, 8.446e-5
-1.411, 8.326e-5
-1.410, 8.108e-5
-1.409, 7.776e-5
-1.408, 7.531e-5
-1.407, 7.385e-5
-1.406, 7.272e-5
-1.405, 7.069e-5
-1.404, 6.754e-5
-1.403, 6.520e-5
-1.402, 6.418e-5
-1.401, 6.333e-5
-1.400, 6.142e-5
-1.399, 5.865e-5
-1.398, 5.634e-5
-1.397, 5.543e-5
-1.396, 5.482e-5
-1.395, 5.295e-5
-1.394, 5.034e-5
-1.393, 4.829e-5
-1.392, 4.769e-5
-1.391, 4.718e-5
-1.390, 4.540e-5
-1.389, 4.302e-5
-1.388, 4.115e-5
-1.387, 4.044e-5
-1.386, 4.030e-5
-1.385, 3.864e-5
-1.384, 3.631e-5
-1.383, 3.448e-5
-1.382, 3.397e-5
-1.381, 3.389e-5
-1.380, 3.248e-5
-1.379, 3.017e-5
-1.378, 2.900e-5
-1.377, 2.908e-5
-1.376, 2.940e-5
-1.375, 2.810e-5
-1.374, 2.588e-5
-1.373, 2.452e-5
-1.372, 2.424e-5
-1.371, 2.416e-5
-1.370, 2.298e-5
-1.369, 2.090e-5
-1.368, 1.956e-5
-1.367, 1.947e-5
-1.366, 1.944e-5
-1.365, 1.825e-5
-1.364, 1.635e-5
-1.363, 1.492e-5
-1.362, 1.508e-5
-1.361, 1.514e-5
-1.360, 1.405e-5
-1.359, 1.223e-5
-1.358, 1.097e-5
-1.357, 1.115e-5
-1.356, 1.137e-5
-1.355, 1.023e-5
-1.354, 8.524e-6
-1.353, 7.385e-6
-1.352, 7.599e-6
-1.351, 7.894e-6
-1.350, 6.733e-6
-1.349, 5.212e-6
-1.348, 4.184e-6
-1.347, 4.399e-6
-1.346, 4.832e-6
-1.345, 3.689e-6
-1.344, 2.119e-6
-1.343, 1.273e-6
-1.342, 1.475e-6
-1.341, 1.948e-6
-1.340, 9.331e-7
-1.339, -7.737e-7
-1.338, -1.482e-6
-1.337, -1.174e-6
-1.336, -6.356e-7
-1.335, -1.582e-6
-1.334, -3.292e-6
-1.333, -3.901e-6
-1.332, -3.527e-6
-1.331, -3.078e-6
-1.330, -3.886e-6
-1.329, -5.549e-6
-1.328, -6.164e-6
-1.327, -5.679e-6
-1.326, -5.332e-6
-1.325, -6.144e-6
-1.324, -7.577e-6
-1.323, -8.346e-6
-1.322, -7.751e-6
-1.321, -7.281e-6
-1.320, -8.082e-6
-1.319, -9.685e-6
-1.318, -1.043e-5
-1.317, -9.836e-6
-1.316, -9.149e-6
-1.315, -1.001e-5
-1.314, -1.144e-5
-1.313, -1.212e-5
-1.312, -1.149e-5
-1.311, -1.087e-5
-1.310, -1.180e-5
-1.309, -1.295e-5
-1.308, -1.367e-5
-1.307, -1.309e-5
-1.306, -1.253e-5
-1.305, -1.344e-5
-1.304, -1.471e-5
-1.303, -1.525e-5
-1.302, -1.468e-5
-1.301, -1.408e-5
-1.300, -1.481e-5
-1.299, -1.622e-5
-1.298, -1.661e-5
-1.297, -1.603e-5
-1.296, -1.527e-5
-1.295, -1.607e-5
-1.294, -1.748e-5
-1.293, -1.786e-5
-1.292, -1.716e-5
-1.291, -1.662e-5
-1.290, -1.729e-5
-1.289, -1.879e-5
-1.288, -1.909e-5
-1.287, -1.830e-5
-1.286, -1.781e-5
-1.285, -1.842e-5
-1.284, -1.966e-5
-1.283, -2.025e-5
-1.282, -1.943e-5
-1.281, -1.889e-5
-1.280, -1.961e-5
-1.279, -2.096e-5
-1.278, -2.142e-5
-1.277, -2.042e-5
-1.276, -1.991e-5
-1.275, -2.070e-5
-1.274, -2.193e-5
-1.273, -2.233e-5
-1.272, -2.142e-5
-1.271, -2.081e-5
-1.270, -2.165e-5
-1.269, -2.290e-5
-1.268, -2.320e-5
-1.267, -2.247e-5
-1.266, -2.172e-5
-1.265, -2.259e-5
-1.264, -2.382e-5
-1.263, -2.407e-5
-1.262, -2.339e-5
-1.261, -2.269e-5
-1.260, -2.348e-5
-1.259, -2.475e-5
-1.258, -2.497e-5
-1.257, -2.420e-5
-1.256, -2.350e-5
-1.255, -2.421e-5
-1.254, -2.557e-5
-1.253, -2.574e-5
-1.252, -2.491e-5
-1.251, -2.453e-5
-1.250, -2.505e-5
-1.249, -2.612e-5
-1.248, -2.614e-5
-1.247, -2.573e-5
-1.246, -2.516e-5
-1.245, -2.574e-5
-1.244, -2.703e-5
-1.243, -2.742e-5
-1.242, -2.651e-5
-1.241, -2.592e-5
-1.240, -2.695e-5
-1.239, -2.799e-5
-1.238, -2.813e-5
-1.237, -2.707e-5
-1.236, -2.644e-5
-1.235, -2.732e-5
-1.234, -2.837e-5
-1.233, -2.859e-5
-1.232, -2.756e-5
-1.231, -2.696e-5
-1.230, -2.791e-5
-1.229, -2.915e-5
-1.228, -2.911e-5
-1.227, -2.828e-5
-1.226, -2.764e-5
-1.225, -2.843e-5
-1.224, -2.958e-5
-1.223, -2.971e-5
-1.222, -2.888e-5
-1.221, -2.822e-5
-1.220, -2.894e-5
-1.219, -3.018e-5
-1.218, -3.014e-5
-1.217, -2.940e-5
-1.216, -2.868e-5
-1.215, -2.943e-5
-1.214, -3.072e-5
-1.213, -3.073e-5
-1.212, -2.978e-5
-1.211, -2.930e-5
-1.210, -2.995e-5
-1.209, -3.118e-5
-1.208, -3.120e-5
-1.207, -3.027e-5
-1.206, -2.990e-5
-1.205, -3.041e-5
-1.204, -3.159e-5
-1.203, -3.170e-5
-1.202, -3.073e-5
-1.201, -3.025e-5
-1.200, -3.074e-5
-1.199, -3.196e-5
-1.198, -3.225e-5
-1.197, -3.108e-5
-1.196, -3.052e-5
-1.195, -3.137e-5
-1.194, -3.237e-5
-1.193, -3.257e-5
-1.192, -3.151e-5
-1.191, -3.095e-5
-1.190, -3.174e-5
-1.189, -3.290e-5
-1.188, -3.289e-5
-1.187, -3.188e-5
-1.186, -3.128e-5
-1.185, -3.212e-5
-1.184, -3.320e-5
-1.183, -3.325e-5
-1.182, -3.224e-5
-1.181, -3.159e-5
-1.180, -3.244e-5
-1.179, -3.377e-5
-1.178, -3.375e-5
-1.177, -3.258e-5
-1.176, -3.196e-5
-1.175, -3.261e-5
-1.174, -3.390e-5
-1.173, -3.448e-5
-1.172, -3.293e-5
-1.171, -3.245e-5
-1.170, -3.310e-5
-1.169, -3.435e-5
-1.168, -3.423e-5
-1.167, -3.321e-5
-1.166, -3.281e-5
-1.165, -3.359e-5
-1.164, -3.481e-5
-1.163, -3.480e-5
-1.162, -3.369e-5
-1.161, -3.325e-5
-1.160, -3.412e-5
-1.159, -3.509e-5
-1.158, -3.522e-5
-1.157, -3.396e-5
-1.156, -3.352e-5
-1.155, -3.454e-5
-1.154, -3.545e-5
-1.153, -3.550e-5
-1.152, -3.441e-5
-1.151, -3.390e-5
-1.150, -3.483e-5
-1.149, -3.574e-5
-1.148, -3.577e-5
-1.147, -3.479e-5
-1.146, -3.431e-5
-1.145, -3.513e-5
-1.144, -3.626e-5
-1.143, -3.610e-5
-1.142, -3.517e-5
-1.141, -3.447e-5
-1.140, -3.548e-5
-1.139, -3.664e-5
-1.138, -3.655e-5
-1.137, -3.548e-5
-1.136, -3.489e-5
-1.135, -3.576e-5
-1.134, -3.702e-5
-1.133, -3.686e-5
-1.132, -3.585e-5
-1.131, -3.541e-5
-1.130, -3.615e-5
-1.129, -3.742e-5
-1.128, -3.727e-5
-1.127, -3.620e-5
-1.126, -3.580e-5
-1.125, -3.658e-5
-1.124, -3.776e-5
-1.123, -3.771e-5
-1.122, -3.660e-5
-1.121, -3.619e-5
-1.120, -3.696e-5
-1.119, -3.812e-5
-1.118, -3.819e-5
-1.117, -3.705e-5
-1.116, -3.653e-5
-1.115, -3.759e-5
-1.114, -3.871e-5
-1.113, -3.871e-5
-1.112, -3.756e-5
-1.111, -3.703e-5
-1.110, -3.812e-5
-1.109, -3.913e-5
-1.108, -3.902e-5
-1.107, -3.804e-5
-1.106, -3.747e-5
-1.105, -3.854e-5
-1.104, -3.962e-5
-1.103, -3.956e-5
-1.102, -3.858e-5
-1.101, -3.805e-5
-1.100, -3.905e-5
-1.099, -4.031e-5
-1.098, -4.013e-5
-1.097, -3.902e-5
-1.096, -3.859e-5
-1.095, -3.953e-5
-1.094, -4.082e-5
-1.093, -4.059e-5
-1.092, -3.956e-5
-1.091, -3.923e-5
-1.090, -4.007e-5
-1.089, -4.128e-5
-1.088, -4.125e-5
-1.087, -4.010e-5
-1.086, -3.976e-5
-1.085, -4.079e-5
-1.084, -4.194e-5
-1.083, -4.198e-5
-1.082, -4.069e-5
-1.081, -4.038e-5
-1.080, -4.132e-5
-1.079, -4.251e-5
-1.078, -4.257e-5
-1.077, -4.135e-5
-1.076, -4.103e-5
-1.075, -4.210e-5
-1.074, -4.324e-5
-1.073, -4.327e-5
-1.072, -4.202e-5
-1.071, -4.153e-5
-1.070, -4.274e-5
-1.069, -4.383e-5
-1.068, -4.374e-5
-1.067, -4.269e-5
-1.066, -4.220e-5
-1.065, -4.342e-5
-1.064, -4.449e-5
-1.063, -4.447e-5
-1.062, -4.359e-5
-1.061, -4.290e-5
-1.060, -4.402e-5
-1.059, -4.533e-5
-1.058, -4.526e-5
-1.057, -4.419e-5
-1.056, -4.359e-5
-1.055, -4.462e-5
-1.054, -4.622e-5
-1.053, -4.591e-5
-1.052, -4.484e-5
-1.051, -4.461e-5
-1.050, -4.561e-5
-1.049, -4.703e-5
-1.048, -4.681e-5
-1.047, -4.543e-5
-1.046, -4.531e-5
-1.045, -4.632e-5
-1.044, -4.767e-5
-1.043, -4.769e-5
-1.042, -4.635e-5
-1.041, -4.621e-5
-1.040, -4.742e-5
-1.039, -4.858e-5
-1.038, -4.858e-5
-1.037, -4.726e-5
-1.036, -4.685e-5
-1.035, -4.822e-5
-1.034, -4.942e-5
-1.033, -4.938e-5
-1.032, -4.813e-5
-1.031, -4.784e-5
-1.030, -4.921e-5
-1.029, -5.031e-5
-1.028, -5.028e-5
-1.027, -4.922e-5
-1.026, -4.872e-5
-1.025, -5.005e-5
-1.024, -5.136e-5
-1.023, -5.143e-5
-1.022, -5.033e-5
-1.021, -4.971e-5
-1.020, -5.097e-5
-1.019, -5.265e-5
-1.018, -5.225e-5
-1.017, -5.119e-5
-1.016, -5.083e-5
-1.015, -5.192e-5
-1.014, -5.352e-5
-1.013, -5.326e-5
-1.012, -5.225e-5
-1.011, -5.198e-5
-1.010, -5.307e-5
-1.009, -5.455e-5
-1.008, -5.444e-5
-1.007, -5.319e-5
-1.006, -5.311e-5
-1.005, -5.413e-5
-1.004, -5.561e-5
-1.003, -5.552e-5
-1.002, -5.425e-5
-1.001, -5.407e-5
