Potential V vs RHE, Current mA cm-2
0.013299999999999867,-0.6564260431373771
0.012299999999999978,-1.6594563547416883
0.011299999999999866,-2.095187435100119
0.010299999999999976,-2.3569090255751513
0.009299999999999864,-2.576189277054232
0.008299999999999974,-2.706342716641815
0.007299999999999862,-2.8379108675292635
0.006299999999999972,-2.924208256821031
0.00529999999999986,-2.968064307116847
0.0042999999999999705,-3.0119203574126634
0.0032999999999998586,-3.0996324580042955
0.0022999999999999687,-3.0996324580042955
0.0012999999999998568,-3.1420737970002466
0.00029999999999996696,-3.1859298472960624
-0.000700000000000145,-3.2297858975918787
-0.0017000000000000348,-3.317497998183511
-0.0027000000000001467,-3.403795387475278
-0.0037000000000000366,-3.4915074880669104
-0.0047000000000001485,-3.5353635383627267
-0.005700000000000038,-3.623075638954359
-0.00670000000000015,-3.7093730282461257
-0.00770000000000004,-3.7532290785419424
-0.008700000000000152,-3.7532290785419424
-0.009700000000000042,-3.7970851288377587
-0.010700000000000154,-3.7970851288377587
-0.011700000000000044,-3.7970851288377587
-0.012700000000000156,-3.7970851288377587
-0.013700000000000045,-3.7970851288377587
-0.014700000000000157,-3.840941179133574
-0.015700000000000047,-3.840941179133574
-0.01670000000000016,-3.884797229429391
-0.01770000000000005,-3.927238568425342
-0.01870000000000016,-3.971094618721158
-0.01970000000000005,-4.0588067193127895
-0.020700000000000163,-4.146518819904423
-0.021700000000000053,-4.146518819904423
-0.022700000000000164,-4.1889601589003735
-0.023700000000000054,-4.23281620919619
-0.024700000000000166,-4.1889601589003735
-0.025700000000000056,-4.1889601589003735
-0.026700000000000168,-4.1889601589003735
-0.027700000000000058,-4.146518819904423
-0.02870000000000017,-4.146518819904423
-0.02970000000000006,-4.1889601589003735
-0.03070000000000017,-4.1889601589003735
-0.03170000000000006,-4.1889601589003735
-0.03270000000000017,-4.23281620919619
-0.03370000000000006,-4.3205283097878215
-0.034700000000000175,-4.364384360083638
-0.035700000000000065,-4.406825699079589
-0.03670000000000018,-4.450681749375406
-0.03770000000000007,-4.450681749375406
-0.03870000000000018,-4.494537799671222
-0.03970000000000007,-4.450681749375406
-0.04070000000000018,-4.450681749375406
-0.04170000000000007,-4.406825699079589
-0.04270000000000018,-4.406825699079589
-0.04370000000000007,-4.406825699079589
-0.044700000000000184,-4.406825699079589
-0.045700000000000074,-4.406825699079589
-0.046700000000000186,-4.450681749375406
-0.047700000000000076,-4.494537799671222
-0.04870000000000019,-4.538393849967037
-0.04970000000000008,-4.582249900262854
-0.05070000000000019,-4.626105950558669
-0.05170000000000008,-4.668547289554621
-0.05270000000000019,-4.668547289554621
-0.05370000000000008,-4.668547289554621
-0.05470000000000019,-4.668547289554621
-0.05570000000000008,-4.626105950558669
-0.056700000000000195,-4.626105950558669
-0.057700000000000085,-4.582249900262854
-0.058700000000000196,-4.582249900262854
-0.059700000000000086,-4.582249900262854
-0.0607000000000002,-4.582249900262854
-0.06170000000000009,-4.626105950558669
-0.0627000000000002,-4.668547289554621
-0.06370000000000009,-4.712403339850438
-0.0647000000000002,-4.756259390146253
-0.06570000000000009,-4.800115440442069
-0.0667000000000002,-4.800115440442069
-0.0677000000000001,-4.843971490737885
-0.0687000000000002,-4.843971490737885
-0.0697000000000001,-4.800115440442069
-0.07070000000000021,-4.800115440442069
-0.0717000000000001,-4.756259390146253
-0.07270000000000021,-4.756259390146253
-0.0737000000000001,-4.756259390146253
-0.07470000000000021,-4.712403339850438
-0.0757000000000001,-4.756259390146253
-0.07670000000000021,-4.756259390146253
-0.0777000000000001,-4.800115440442069
-0.07870000000000021,-4.843971490737885
-0.0797000000000001,-4.887827541033701
-0.08070000000000022,-4.9302688800296535
-0.0817000000000001,-4.974124930325469
-0.08270000000000022,-4.974124930325469
-0.08370000000000011,-4.974124930325469
-0.08470000000000022,-4.9302688800296535
-0.08570000000000011,-4.9302688800296535
-0.08670000000000022,-4.9302688800296535
-0.08770000000000011,-4.887827541033701
-0.08870000000000022,-4.843971490737885
-0.08970000000000011,-4.843971490737885
-0.09070000000000022,-4.843971490737885
-0.09170000000000011,-4.887827541033701
-0.09270000000000023,-4.9302688800296535
-0.09370000000000012,-4.974124930325469
-0.09470000000000023,-5.017980980621284
-0.09570000000000012,-5.0618370309171015
-0.09670000000000023,-5.0618370309171015
-0.09770000000000012,-5.105693081212917
-0.09870000000000023,-5.0618370309171015
-0.09970000000000012,-5.105693081212917
-0.10070000000000023,-5.0618370309171015
-0.10170000000000012,-5.017980980621284
-0.10270000000000024,-5.017980980621284
-0.10370000000000013,-4.974124930325469
-0.10470000000000024,-4.974124930325469
-0.10570000000000013,-5.017980980621284
-0.10670000000000024,-5.017980980621284
-0.10770000000000013,-5.0618370309171015
-0.10870000000000024,-5.105693081212917
-0.10970000000000013,-5.149549131508733
-0.11070000000000024,-5.191990470504685
-0.11170000000000013,-5.191990470504685
-0.11270000000000002,-5.235846520800501
-0.11370000000000013,-5.191990470504685
-0.11470000000000002,-5.191990470504685
-0.11570000000000014,-5.191990470504685
-0.11670000000000003,-5.191990470504685
-0.11770000000000014,-5.105693081212917
-0.11870000000000003,-5.105693081212917
-0.11970000000000014,-5.105693081212917
-0.12070000000000003,-5.149549131508733
-0.12170000000000014,-5.149549131508733
-0.12270000000000003,-5.149549131508733
-0.12370000000000014,-5.235846520800501
-0.12470000000000003,-5.279702571096316
-0.12570000000000014,-5.279702571096316
-0.12670000000000003,-5.323558621392133
-0.12770000000000015,-5.323558621392133
-0.12870000000000004,-5.367414671687949
-0.12970000000000015,-5.323558621392133
-0.13070000000000004,-5.279702571096316
-0.13170000000000015,-5.279702571096316
-0.13270000000000004,-5.279702571096316
-0.13370000000000015,-5.235846520800501
-0.13470000000000004,-5.235846520800501
-0.13570000000000015,-5.235846520800501
-0.13670000000000004,-5.279702571096316
-0.13770000000000016,-5.323558621392133
-0.13870000000000005,-5.367414671687949
-0.13970000000000016,-5.411270721983764
-0.14070000000000005,-5.411270721983764
-0.14170000000000016,-5.453712060979717
-0.14270000000000005,-5.497568111275533
-0.14370000000000016,-5.453712060979717
-0.14470000000000005,-5.453712060979717
-0.14570000000000016,-5.453712060979717
-0.14670000000000005,-5.411270721983764
-0.14770000000000016,-5.411270721983764
-0.14870000000000005,-5.367414671687949
-0.14970000000000017,-5.367414671687949
-0.15070000000000006,-5.367414671687949
-0.15170000000000017,-5.367414671687949
-0.15270000000000006,-5.411270721983764
-0.15370000000000017,-5.453712060979717
-0.15470000000000006,-5.497568111275533
-0.15570000000000017,-5.5414241615713475
-0.15670000000000006,-5.585280211867165
-0.15770000000000017,-5.585280211867165
-0.15870000000000006,-5.585280211867165
-0.15970000000000018,-5.585280211867165
-0.16070000000000007,-5.5414241615713475
-0.16170000000000018,-5.5414241615713475
-0.16270000000000007,-5.497568111275533
-0.16370000000000018,-5.497568111275533
-0.16470000000000007,-5.497568111275533
-0.16570000000000018,-5.497568111275533
-0.16670000000000007,-5.497568111275533
-0.16770000000000018,-5.5414241615713475
-0.16870000000000007,-5.585280211867165
-0.16970000000000018,-5.629136262162981
-0.17070000000000007,-5.672992312458796
-0.17170000000000019,-5.672992312458796
-0.17270000000000008,-5.672992312458796
-0.1737000000000002,-5.715433651454749
-0.17470000000000008,-5.715433651454749
-0.1757000000000002,-5.672992312458796
-0.17670000000000008,-5.629136262162981
-0.1777000000000002,-5.629136262162981
-0.17870000000000008,-5.585280211867165
-0.1797000000000002,-5.585280211867165
-0.18070000000000008,-5.585280211867165
-0.1817000000000002,-5.585280211867165
-0.18270000000000008,-5.629136262162981
-0.1837000000000002,-5.672992312458796
-0.1847000000000001,-5.715433651454749
-0.1857000000000002,-5.759289701750564
-0.1867000000000001,-5.759289701750564
-0.1877000000000002,-5.759289701750564
-0.1887000000000001,-5.80314575204638
-0.1897000000000002,-5.80314575204638
-0.1907000000000001,-5.759289701750564
-0.1917000000000001,-5.715433651454749
-0.19269999999999998,-5.715433651454749
-0.1937000000000001,-5.715433651454749
-0.19469999999999998,-5.672992312458796
-0.1957000000000001,-5.715433651454749
-0.19669999999999999,-5.672992312458796
-0.1977000000000001,-5.759289701750564
-0.1987,-5.759289701750564
-0.1997000000000001,-5.80314575204638
-0.2007,-5.890857852638012
-0.2017000000000001,-5.890857852638012
-0.2027,-5.890857852638012
-0.2037000000000001,-5.890857852638012
-0.2047,-5.847001802342197
-0.2057000000000001,-5.847001802342197
-0.2067,-5.847001802342197
-0.2077000000000001,-5.80314575204638
-0.2087,-5.759289701750564
-0.2097000000000001,-5.80314575204638
-0.2107,-5.80314575204638
-0.2117000000000001,-5.80314575204638
-0.2127,-5.847001802342197
-0.2137000000000001,-5.890857852638012
-0.2147,-5.9347139029338285
-0.2157000000000001,-6.021011292225596
-0.2167,-5.977155241929781
-0.21770000000000012,-6.021011292225596
-0.2187,-5.977155241929781
-0.21970000000000012,-5.977155241929781
-0.2207,-5.9347139029338285
-0.22170000000000012,-5.9347139029338285
-0.2227,-5.890857852638012
-0.22370000000000012,-5.890857852638012
-0.2247,-5.890857852638012
-0.22570000000000012,-5.890857852638012
-0.2267,-5.890857852638012
-0.22770000000000012,-5.9347139029338285
-0.22870000000000001,-5.977155241929781
-0.22970000000000013,-6.021011292225596
-0.23070000000000002,-6.064867342521412
-0.23170000000000013,-6.064867342521412
-0.23270000000000002,-6.108723392817228
-0.23370000000000013,-6.108723392817228
-0.23470000000000002,-6.064867342521412
-0.23570000000000013,-6.064867342521412
-0.23670000000000002,-6.021011292225596
-0.2376999999999999,-5.977155241929781
-0.23870000000000002,-6.021011292225596
-0.2396999999999999,-5.977155241929781
-0.24070000000000003,-5.977155241929781
-0.24169999999999991,-5.977155241929781
-0.24270000000000003,-6.021011292225596
-0.24369999999999992,-6.064867342521412
-0.24470000000000003,-6.108723392817228
-0.24569999999999992,-6.152579443113044
-0.24670000000000003,-6.196435493408861
-0.24769999999999992,-6.196435493408861
-0.24870000000000003,-6.196435493408861
-0.24969999999999992,-6.196435493408861
-0.25070000000000003,-6.152579443113044
-0.2516999999999999,-6.152579443113044
-0.25270000000000004,-6.108723392817228
-0.2536999999999999,-6.108723392817228
-0.25470000000000004,-6.108723392817228
-0.2556999999999999,-6.064867342521412
-0.25670000000000004,-6.108723392817228
-0.25769999999999993,-6.152579443113044
-0.25870000000000004,-6.196435493408861
-0.25969999999999993,-6.238876832404812
-0.26070000000000004,-6.282732882700628
-0.26169999999999993,-6.282732882700628
-0.26270000000000004,-6.326588932996443
-0.26369999999999993,-6.282732882700628
-0.26470000000000005,-6.282732882700628
-0.26569999999999994,-6.282732882700628
-0.26670000000000005,-6.238876832404812
-0.26769999999999994,-6.238876832404812
-0.26870000000000005,-6.196435493408861
-0.26969999999999994,-6.196435493408861
-0.27070000000000005,-6.196435493408861
-0.27169999999999994,-6.238876832404812
-0.27270000000000005,-6.282732882700628
-0.27369999999999994,-6.326588932996443
-0.27470000000000006,-6.37044498329226
-0.27569999999999995,-6.414301033588076
-0.27670000000000006,-6.414301033588076
-0.27769999999999995,-6.458157083883892
-0.27870000000000006,-6.458157083883892
-0.27969999999999995,-6.458157083883892
-0.28070000000000006,-6.414301033588076
-0.28169999999999995,-6.37044498329226
-0.28270000000000006,-6.37044498329226
-0.28369999999999995,-6.326588932996443
-0.28470000000000006,-6.326588932996443
-0.28569999999999995,-6.37044498329226
-0.28670000000000007,-6.414301033588076
-0.28769999999999996,-6.414301033588076
-0.28870000000000007,-6.458157083883892
-0.28969999999999996,-6.500598422879844
-0.29070000000000007,-6.54445447317566
-0.29169999999999996,-6.588310523471475
-0.29270000000000007,-6.632166573767292
-0.29369999999999996,-6.588310523471475
-0.2947000000000001,-6.588310523471475
-0.29569999999999996,-6.588310523471475
-0.2967000000000001,-6.588310523471475
-0.29769999999999996,-6.54445447317566
-0.2987000000000001,-6.54445447317566
-0.29969999999999997,-6.54445447317566
-0.3007000000000001,-6.54445447317566
-0.30169999999999997,-6.588310523471475
-0.3027000000000001,-6.632166573767292
-0.30369999999999997,-6.632166573767292
-0.3047000000000001,-6.719878674358924
-0.30569999999999997,-6.762320013354876
-0.3067000000000001,-6.762320013354876
-0.3077,-6.806176063650692
-0.3087000000000001,-6.806176063650692
-0.3097,-6.806176063650692
-0.3107000000000001,-6.806176063650692
-0.3117,-6.762320013354876
-0.3127000000000001,-6.762320013354876
-0.3137,-6.762320013354876
-0.3147000000000001,-6.762320013354876
-0.3157,-6.762320013354876
-0.3167000000000001,-6.762320013354876
-0.3177,-6.850032113946507
-0.3187000000000001,-6.893888164242324
-0.3197,-6.93774421453814
-0.3207000000000001,-6.981600264833956
-0.3217,-7.024041603829907
-0.3227000000000001,-7.067897654125724
-0.3237,-7.067897654125724
-0.3247000000000001,-7.067897654125724
-0.3257,-7.024041603829907
-0.3267000000000001,-7.024041603829907
-0.3277,-7.024041603829907
-0.3287000000000001,-6.981600264833956
-0.3297,-7.024041603829907
-0.3307000000000001,-7.024041603829907
-0.3317,-7.067897654125724
-0.3327000000000001,-7.111753704421539
-0.3337,-7.155609754717355
-0.3347000000000001,-7.199465805013171
-0.3357,-7.28576319430494
-0.3367000000000001,-7.329619244600755
-0.3377,-7.37347529489657
-0.3387000000000001,-7.37347529489657
-0.3397,-7.37347529489657
-0.3407000000000001,-7.37347529489657
-0.3417,-7.37347529489657
-0.3427000000000001,-7.37347529489657
-0.3437,-7.329619244600755
-0.3447000000000001,-7.329619244600755
-0.3457,-7.37347529489657
-0.3467000000000001,-7.4173313451923875
-0.3477,-7.461187395488204
-0.3487000000000001,-7.50504344578402
-0.3497,-7.591340835075788
-0.3507000000000001,-7.635196885371603
-0.3517,-7.679052935667419
-0.3527000000000001,-7.722908985963235
-0.3537,-7.722908985963235
-0.3547000000000001,-7.7653503249591855
-0.3557,-7.722908985963235
-0.35670000000000013,-7.722908985963235
-0.3577,-7.722908985963235
-0.35870000000000013,-7.7653503249591855
-0.3597,-7.7653503249591855
-0.36070000000000013,-7.7653503249591855
-0.3617,-7.809206375255003
-0.3626999999999999,-7.853062425550818
-0.3637,-7.940774526142452
-0.3646999999999999,-8.027071915434218
-0.3657,-8.070927965730034
-0.3666999999999999,-8.11478401602585
-0.3677,-8.158640066321666
-0.3686999999999999,-8.202496116617484
-0.36970000000000003,-8.246352166913299
-0.3706999999999999,-8.202496116617484
-0.37170000000000003,-8.202496116617484
-0.3726999999999999,-8.202496116617484
-0.37370000000000003,-8.202496116617484
-0.3746999999999999,-8.246352166913299
-0.37570000000000003,-8.288793505909249
-0.3766999999999999,-8.332649556205066
-0.37770000000000004,-8.376505606500881
-0.3786999999999999,-8.464217707092514
-0.37970000000000004,-8.55051509638428
-0.3806999999999999,-8.594371146680096
-0.38170000000000004,-8.638227196975913
-0.38269999999999993,-8.725939297567548
-0.38370000000000004,-8.725939297567548
-0.38469999999999993,-8.769795347863363
-0.38570000000000004,-8.769795347863363
-0.38669999999999993,-8.812236686859313
-0.38770000000000004,-8.812236686859313
-0.38869999999999993,-8.812236686859313
-0.38970000000000005,-8.85609273715513
-0.39069999999999994,-8.85609273715513
-0.39170000000000005,-8.943804837746763
-0.39269999999999994,-8.987660888042578
-0.39370000000000005,-9.073958277334345
-0.39469999999999994,-9.161670377925978
-0.39570000000000005,-9.24938247851761
-0.39669999999999994,-9.335679867809377
-0.39770000000000005,-9.379535918105192
-0.39869999999999994,-9.423391968401008
-0.39970000000000006,-9.423391968401008
-0.40069999999999995,-9.467248018696827
-0.40170000000000006,-9.467248018696827
-0.40269999999999995,-9.511104068992642
-0.40370000000000006,-9.55496011928846
-0.40469999999999995,-9.55496011928846
-0.40570000000000006,-9.59740145828441
-0.40669999999999995,-9.685113558876042
-0.40770000000000006,-9.728969609171857
-0.40869999999999995,-9.85912304875944
-0.40970000000000006,-9.946835149351072
-0.41069999999999995,-10.034547249942705
-0.41170000000000007,-10.120844639234473
-0.41269999999999996,-10.164700689530287
-0.41370000000000007,-10.25241279012192
-0.41469999999999996,-10.25241279012192
-0.41570000000000007,-10.296268840417738
-0.41669999999999996,-10.340124890713554
-0.41770000000000007,-10.340124890713554
-0.41869999999999996,-10.382566229709504
-0.4197000000000001,-10.470278330301136
-0.42069999999999996,-10.514134380596953
-0.4217000000000001,-10.601846481188586
-0.42269999999999996,-10.688143870480351
-0.4237000000000001,-10.775855971071984
-0.42469999999999997,-10.863568071663616
-0.4257000000000001,-10.993721511251199
-0.42669999999999997,-11.081433611842833
-0.4277000000000001,-11.1677310011346
-0.42869999999999997,-11.211587051430415
-0.4297000000000001,-11.299299152022046
-0.43069999999999997,-11.343155202317865
-0.4317000000000001,-11.385596541313816
-0.4327,-11.385596541313816
-0.4337000000000001,-11.42945259160963
-0.4347,-11.517164692201263
-0.4357000000000001,-11.604876792792895
-0.4367,-11.691174182084664
-0.4377000000000001,-11.778886282676295
-0.4387,-11.909039722263879
-0.4397000000000001,-11.996751822855511
-0.4407,-12.12831997374296
-0.4417000000000001,-12.214617363034726
-0.4427,-12.346185513922174
-0.4437000000000001,-12.432482903213943
-0.4447,-12.476338953509758
-0.4457000000000001,-12.56405105410139
-0.4467,-12.607907104397206
-0.4477000000000001,-12.651763154693022
-0.4487,-12.694204493688973
-0.4497000000000001,-12.781916594280606
-0.4507,-12.869628694872238
-0.4517000000000001,-12.99978213445982
-0.4527,-13.087494235051453
-0.4537000000000001,-13.217647674639037
-0.4547,-13.349215825526485
-0.4557000000000001,-13.47936926511407
-0.4567,-13.610937416001518
-0.4577000000000001,-13.741090855589102
-0.4587,-13.828802956180734
-0.4597000000000001,-13.916515056772363
-0.4607,-14.002812446064135
-0.4617000000000001,-14.090524546655764
-0.4627,-14.13438059695158
-0.4637000000000001,-14.217848563643619
-0.4647,-14.30273124163552
-0.4657000000000001,-14.444202371622024
-0.4667,-14.529085049613924
-0.4677000000000001,-14.69885040559773
-0.4687,-14.826174422585586
-0.4697000000000001,-14.967645552572087
-0.4707,-15.137410908555893
-0.4717000000000001,-15.307176264539699
-0.4727,-15.3920589425316
-0.4737000000000001,-15.575971411514052
-0.4747,-15.660854089505953
-0.4757000000000001,-15.74573676749786
-0.4767,-15.830619445489761
-0.4777000000000001,-15.91550212348166
-0.4787,-16.056973253468165
-0.4797000000000001,-16.141855931460068
-0.4807,-16.22673860945197
-0.48170000000000013,-16.396503965435777
-0.4827,-16.580416434418233
-0.48370000000000013,-16.750181790402035
-0.4847,-16.919947146385837
-0.48570000000000013,-17.103859615368293
-0.4867,-17.231183632356142
-0.4876999999999999,-17.40094898833995
-0.4887,-17.542420118326454
-0.4896999999999999,-17.669744135314307
-0.4907,-17.797068152302163
-0.4916999999999999,-17.881950830294063
-0.4927,-18.009274847281915
-0.4936999999999999,-18.15074597726842
-0.49470000000000003,-18.27806999425627
-0.4956999999999999,-18.40539401124413
-0.49670000000000003,-18.589306480226583
-0.4976999999999999,-18.80151317520634
-0.49870000000000003,-18.97127853119014
-0.4996999999999999,-19.197632339168546
-0.5007,-19.409839034148305
-0.5016999999999999,-19.579604390132108
-0.5027,-19.805958198110513
-0.5036999999999999,-19.93328221509837
-0.5047,-20.10304757108217
-0.5056999999999999,-20.286960040064624
-0.5067,-20.414284057052477
-0.5076999999999999,-20.541608074040333
-0.5087,-20.72552054302279
-0.5096999999999999,-20.89528589900659
-0.5107,-21.065051254990397
-0.5116999999999999,-21.248963723972853
