Potential V vs RHE, Current mA cm-2
0.4132999999999999,0.015901355010483013
0.4122999999999999,0.013984421199165886
0.4112999999999999,0.013383168896723247
0.4102999999999999,0.013062029431653884
0.4092999999999999,0.012779087171680878
0.4082999999999999,0.012473509530910027
0.4072999999999999,0.012141052375441745
0.4062999999999999,0.011882160207566444
0.4052999999999999,0.011708150717683045
0.4042999999999999,0.011515749980901399
0.4032999999999999,0.011285152039023397
0.4022999999999999,0.01100786862424985
0.4012999999999999,0.010788588372770769
0.4002999999999999,0.010668337912282241
0.3992999999999999,0.010480181309400191
0.3982999999999999,0.01026373048052084
0.3972999999999999,0.010020400136944056
0.3962999999999999,0.009819511132363219
0.3952999999999999,0.009727554897871993
0.3942999999999999,0.009557789541888188
0.39329999999999987,0.009382365340704923
0.39229999999999987,0.009157426244026382
0.39129999999999987,0.008976343197643658
0.39029999999999987,0.008890045808351892
0.38929999999999987,0.008734427565366736
0.38829999999999987,0.008563247498083066
0.38729999999999987,0.008352455514403176
0.38629999999999987,0.008188349003618832
0.38529999999999986,0.008090733923928143
0.38429999999999986,0.007959165773040696
0.38329999999999986,0.0077837415718574315
0.38229999999999986,0.007587096701176191
0.38129999999999986,0.007451284416389148
0.38029999999999986,0.007342351646299541
0.37929999999999986,0.007251810123108177
0.37829999999999986,0.007093362457523294
0.37729999999999986,0.006898132298141919
0.37629999999999986,0.0067863701054525815
0.37529999999999986,0.006688755025761894
0.37429999999999986,0.006592554657371071
0.37329999999999985,0.006435521703086052
0.37229999999999985,0.006240291543704677
0.37129999999999985,0.0061356029075146645
0.37029999999999985,0.006056379074722222
0.36929999999999985,0.0059502757272323435
0.36829999999999985,0.005813048731145435
0.36729999999999985,0.005614989149164331
0.36629999999999985,0.005515959358173779
0.36529999999999985,0.005445223793180526
0.36429999999999985,0.005330632177891458
0.36329999999999985,0.005207552294803201
0.36229999999999984,0.0050392016501192615
0.36129999999999984,0.0049147070557311375
0.36029999999999984,0.004858118603736536
0.35929999999999984,0.004747771122347063
0.35829999999999984,0.004633179507057995
0.35729999999999984,0.00446341415107419
0.35629999999999984,0.0043445784018855274
0.35529999999999984,0.004310625330688767
0.35429999999999984,0.004224327941396999
0.35329999999999984,0.004075783254911171
0.35229999999999984,0.003945629815323587
0.35129999999999983,0.003825379354835059
0.35029999999999983,0.0037900115723384334
0.34929999999999983,0.00369381120394761
0.34829999999999983,0.003573560743459083
0.34729999999999983,0.003395307119676088
0.34629999999999983,0.0033302303998822965
0.34529999999999983,0.0032892037721862105
0.34429999999999983,0.003217053495893093
0.3432999999999998,0.003088314767605375
0.3422999999999998,0.002942599503719276
0.3412999999999998,0.0028449844240285888
0.3402999999999998,0.002805372507632368
0.3392999999999998,0.0027289780974396557
0.3382999999999998,0.0026115570595508578
0.3372999999999998,0.0024644270843648943
0.3362999999999998,0.002395106230671507
0.3352999999999998,0.0023342736447773105
0.3342999999999998,0.002238073276386488
0.3332999999999998,0.0021531905983945858
0.3322999999999998,0.0019933282215098365
0.3312999999999998,0.001925422079116315
0.3302999999999998,0.0018589306480226583
0.3292999999999998,0.001810830463827247
0.3282999999999998,0.001690580003338719
0.3272999999999998,0.0015307176264539697
0.3262999999999998,0.0014797880196588285
0.3252999999999999,0.0014288584128636871
0.3242999999999999,0.0013694405382693557
0.3232999999999999,0.0012523024426405306
0.3222999999999999,0.0010945621327055788
0.3212999999999999,0.001026090105792111
0.3202999999999999,0.000985629362615971
0.3192999999999999,0.0009228161809019634
0.3182999999999999,0.0008307184752807496
0.3172999999999999,0.0006814664331449881
0.3162999999999999,0.0006199264916008591
0.3152999999999999,0.0005670162889859066
0.3142999999999999,0.0005125499039411028
0.3132999999999999,0.0003938556258824262
0.3122999999999999,0.0002779907704234797
0.3112999999999999,0.00020131341797079472
0.3102999999999999,0.0001706141827637234
0.3092999999999999,0.00012170761312738909
0.3082999999999999,-1.2282523505428247e-05
0.3072999999999999,-0.00012953096661564274
0.3062999999999999,-0.00019367397695152353
0.3052999999999999,-0.00023837885402725866
0.3042999999999999,-0.00028449844240285887
0.3032999999999999,-0.0003806988107936814
0.3022999999999999,-0.0005077398855215617
0.3012999999999999,-0.0005705530672355692
0.3002999999999999,-0.0006138432330114394
0.2992999999999999,-0.0006557186874874446
0.2982999999999999,-0.0007756862057159997
0.2972999999999999,-0.0009027272804438799
0.2962999999999999,-0.0009600230880884139
0.2952999999999999,-0.0010088306279337576
0.2942999999999999,-0.0010367004405410988
0.2932999999999999,-0.0011582241411995057
0.2922999999999999,-0.0012781916594280607
0.2912999999999999,-0.0013369021783724599
0.2902999999999999,-0.0013702893650492745
0.2892999999999999,-0.001408062156755671
0.2882999999999999,-0.0015293029151541046
0.2872999999999999,-0.0016481386643427678
0.2862999999999999,-0.0016962388485381793
0.2852999999999999,-0.0017287772084350749
0.2842999999999999,-0.0017966833508285967
0.2832999999999999,-0.0019056161209182044
0.2822999999999999,-0.0020103047571082173
0.2812999999999999,-0.0020782108995017388
0.2802999999999999,-0.0020739667656021438
0.2792999999999999,-0.0021517758870947205
0.2782999999999999,-0.0022564645232847334
0.2772999999999999,-0.0023639825820744764
0.2762999999999999,-0.002424815167968673
0.2752999999999999,-0.002429059301868268
0.2742999999999999,-0.002506868423360845
0.2732999999999999,-0.002595995235252342
0.2722999999999999,-0.002723319252240196
0.2712999999999999,-0.002784151838134392
0.2702999999999999,-0.0027954695285333122
0.2692999999999999,-0.002842155001428859
0.26829999999999987,-0.0029553319054180615
0.26729999999999987,-0.0030642646755076695
0.26629999999999987,-0.0031123648597030807
0.26529999999999987,-0.0031449032195999763
0.26429999999999987,-0.0031887592698957926
0.26329999999999987,-0.0033090097303843206
0.26229999999999987,-0.0034193572117737934
0.26129999999999987,-0.0034717015298688
0.26029999999999986,-0.003498581044566236
0.25929999999999986,-0.003542437094862052
0.25829999999999986,-0.0036499551536517947
0.25729999999999986,-0.0037871821497387033
0.25629999999999986,-0.003811232241836409
0.25529999999999986,-0.003822549932235329
0.25429999999999986,-0.0038748942503303353
0.25329999999999986,-0.003982412309120079
0.25229999999999986,-0.004112565748707661
0.25129999999999986,-0.0041521776651038825
0.25029999999999986,-0.004167739489402398
0.24929999999999986,-0.004205936694498754
0.24829999999999985,-0.0043148694645883615
0.24729999999999985,-0.0044436081928760805
0.24629999999999985,-0.004461999439774325
0.24529999999999985,-0.004508684912669872
0.24429999999999985,-0.004552540962965688
0.24329999999999985,-0.004647326620056645
0.24229999999999985,-0.004753429967546524
0.24129999999999985,-0.004801530151741934
0.24029999999999985,-0.004824165532539775
0.23929999999999985,-0.004875095139334916
0.23829999999999985,-0.004979783775524929
0.23729999999999984,-0.005087301834314672
0.23629999999999984,-0.005139646152409678
0.23529999999999984,-0.005129743173310623
0.23429999999999984,-0.005189161047904954
0.23329999999999984,-0.0052910202614952365
0.23229999999999984,-0.005397123608985115
0.23129999999999984,-0.005455126772279582
0.23029999999999984,-0.005460785617479041
0.22929999999999984,-0.005503226956474992
0.22829999999999984,-0.005619233283063926
0.22729999999999984,-0.005711189517555153
0.22629999999999983,-0.005750801433951375
0.22529999999999983,-0.005770607392149484
0.22429999999999983,-0.005801731040746516
0.22329999999999983,-0.005923396212534909
0.22229999999999983,-0.006021011292225596
0.22129999999999983,-0.0060493055182228965
0.22029999999999983,-0.006094576279818579
0.21929999999999983,-0.006132773484914935
0.21829999999999983,-0.006241706255004542
0.21729999999999983,-0.00634215075729496
0.21629999999999983,-0.006363371426792935
0.21529999999999982,-0.006391665652790235
0.21429999999999982,-0.006415715744887941
0.21329999999999982,-0.006533136782776739
0.21229999999999982,-0.006639240130266616
0.21129999999999982,-0.006651972531965403
0.21029999999999982,-0.006695828582261218
0.20929999999999982,-0.006722708096958655
0.20829999999999982,-0.006821737887949208
0.20729999999999982,-0.006929255946738949
0.20629999999999982,-0.00696886786313517
0.20529999999999982,-0.006975941419634496
0.20429999999999982,-0.007046676984627748
0.20329999999999981,-0.007118827260920864
0.2022999999999998,-0.007227760031010472
0.2012999999999998,-0.007277274926505748
0.20029999999999992,-0.007263127813507099
0.19929999999999992,-0.00732820453330089
0.19829999999999992,-0.007418746056492252
0.19729999999999992,-0.007533337671781321
0.19629999999999992,-0.007554558341279296
0.19529999999999992,-0.0075786084333770015
0.19429999999999992,-0.007683297069567014
0.19329999999999992,-0.007789400417056893
0.19229999999999992,-0.007847403580351358
0.19129999999999991,-0.007891259630647175
0.1902999999999999,-0.007903992032345961
0.1892999999999999,-0.007923797990544072
0.1882999999999999,-0.008038389605833139
0.1872999999999999,-0.008143078242023153
0.1862999999999999,-0.008172787179320318
0.1852999999999999,-0.008171372468020452
0.1842999999999999,-0.008225131497415323
0.1832999999999999,-0.008334064267504932
0.1822999999999999,-0.008435923481095214
0.1812999999999999,-0.008469876552291974
0.1802999999999999,-0.008489682510490084
0.1792999999999999,-0.008519391447787251
0.1782999999999999,-0.008617006527477938
0.1772999999999999,-0.008737256987966466
0.1762999999999999,-0.008735842276666602
0.1752999999999999,-0.008762721791364036
0.1742999999999999,-0.008800918996460395
0.1732999999999999,-0.008918340034349192
0.1722999999999999,-0.009013125691440148
0.1712999999999999,-0.009031516938338395
0.1702999999999999,-0.00904990818523664
0.1692999999999999,-0.009090934812932725
0.1682999999999999,-0.00921542940732085
0.1672999999999999,-0.009320118043510862
0.1662999999999999,-0.009348412269508161
0.1652999999999999,-0.009359729959907083
0.1642999999999999,-0.009413488989301954
0.1632999999999999,-0.009487053976894935
0.1622999999999999,-0.009614377993882789
0.1612999999999999,-0.00964833106507955
0.1602999999999999,-0.0096341839520809
0.1592999999999999,-0.009703504805774286
0.15829999999999989,-0.009789802195066054
0.15729999999999988,-0.009898734965155663
0.15629999999999988,-0.009944005726751342
0.15529999999999988,-0.00993410274765229
0.15429999999999988,-0.009986447065747294
0.15329999999999988,-0.010074159166338926
0.15229999999999988,-0.010174603668629344
0.15129999999999988,-0.010200068472026914
0.15029999999999988,-0.010214215585025565
0.14929999999999988,-0.01025807163532138
0.14829999999999988,-0.01036983382801072
0.14729999999999988,-0.01045188708340289
0.14629999999999987,-0.010483010731999922
0.14529999999999987,-0.010512719669297088
0.14429999999999987,-0.010546672740493849
0.14329999999999987,-0.010683899736580757
0.14229999999999987,-0.010777270682371849
0.14129999999999987,-0.01080556490836915
0.14029999999999987,-0.010809809042268746
0.13929999999999987,-0.010856494515164291
0.13829999999999987,-0.010972500841753226
0.13729999999999987,-0.011055968808445261
0.13629999999999987,-0.011075774766643372
0.13529999999999986,-0.011105483703940539
0.13429999999999986,-0.011149339754236355
0.13329999999999986,-0.011280907905123802
0.13229999999999986,-0.01138135240741422
0.13129999999999986,-0.011402573076912195
0.13029999999999986,-0.011428037880309766
0.12929999999999986,-0.011493114600103558
0.12829999999999986,-0.011576582566795595
0.12729999999999986,-0.011681271202985608
0.12629999999999986,-0.011708150717683045
0.12529999999999986,-0.011718053696782098
0.12429999999999986,-0.011787374550475486
0.12329999999999985,-0.011879330784966714
0.12229999999999985,-0.011985434132456592
0.12129999999999985,-0.012008069513254432
0.12029999999999985,-0.012032119605352137
0.11929999999999985,-0.012066072676548897
0.11829999999999985,-0.01219339669353675
0.11729999999999985,-0.012282523505428248
0.11629999999999985,-0.012313647154025277
0.11529999999999985,-0.012330623689623661
0.11429999999999985,-0.01238721214161826
0.11329999999999985,-0.012515950869905978
0.11229999999999984,-0.012581027589699771
0.11129999999999984,-0.012617810083496262
0.11029999999999984,-0.012637616041694373
0.10929999999999984,-0.012694204493688974
0.10829999999999984,-0.012817284376777233
0.10729999999999984,-0.012899337632169404
0.10629999999999984,-0.01292904656946657
0.10529999999999984,-0.012964414351963197
0.10429999999999984,-0.013012514536158608
0.10329999999999984,-0.01313983855314646
0.10229999999999984,-0.013231794787637688
0.10129999999999983,-0.013236038921537283
0.10029999999999983,-0.013275650837933504
0.09929999999999983,-0.013335068712527836
0.09829999999999983,-0.01346239272951569
0.09729999999999983,-0.0135387871397084
0.09629999999999983,-0.013567081365705703
0.09529999999999983,-0.01360810799340179
0.09429999999999983,-0.01365903760019693
0.09329999999999983,-0.013766555658986672
0.09229999999999983,-0.013865585449977224
0.09129999999999983,-0.01387831785167601
0.09029999999999982,-0.013905197366373445
0.08929999999999982,-0.013967444663567507
0.08829999999999982,-0.014082036278856576
0.08729999999999982,-0.014175407224647668
0.08629999999999982,-0.014203701450644968
0.08529999999999982,-0.01426028990263957
0.08429999999999982,-0.01430273124163552
0.08329999999999982,-0.014415908145624722
0.08229999999999982,-0.014514937936615275
0.08129999999999982,-0.014543232162612576
0.08029999999999982,-0.014571526388609878
0.07929999999999982,-0.014642261953603129
0.07829999999999981,-0.014769585970590984
0.07729999999999981,-0.014840321535584235
0.07629999999999981,-0.014882762874580187
0.07529999999999992,-0.014896909987578835
0.07429999999999992,-0.014967645552572089
0.07329999999999992,-0.015080822456561293
0.07229999999999992,-0.015151558021554544
0.07129999999999992,-0.015208146473549147
0.07029999999999992,-0.015236440699546445
0.06929999999999992,-0.015293029151541045
0.06829999999999992,-0.015406206055530251
0.06729999999999992,-0.015505235846520802
0.06629999999999991,-0.015533530072518101
0.06529999999999991,-0.015561824298515404
0.06429999999999991,-0.015618412750510005
0.06329999999999991,-0.015745736767497857
0.06229999999999991,-0.01583061944548976
0.06129999999999991,-0.01584476655848841
0.06029999999999991,-0.01588720789748436
0.05929999999999991,-0.015943796349478963
0.05829999999999991,-0.016071120366466816
0.05729999999999991,-0.016170150157457368
0.056299999999999906,-0.016170150157457368
0.055299999999999905,-0.016226738609451972
0.054299999999999904,-0.016283327061446574
0.0532999999999999,-0.016410651078434424
0.0522999999999999,-0.01652382798242363
0.0512999999999999,-0.01652382798242363
0.0502999999999999,-0.01656626932141958
0.0492999999999999,-0.016637004886412832
0.0482999999999999,-0.016764328903400686
0.0472999999999999,-0.016863358694391237
0.0462999999999999,-0.01687750580738989
0.045299999999999896,-0.01693409425938449
0.044299999999999895,-0.017004829824377742
0.043299999999999894,-0.017103859615368294
0.04229999999999989,-0.017231183632356147
0.04129999999999989,-0.017231183632356147
0.04029999999999989,-0.0173019191973494
0.03929999999999989,-0.017372654762342652
0.03829999999999989,-0.017499978779330502
0.03729999999999989,-0.017556567231325104
0.03629999999999989,-0.017599008570321057
0.03529999999999989,-0.017641449909317007
0.034299999999999886,-0.01772633258730891
0.033299999999999885,-0.017896097943292714
0.032299999999999884,-0.017952686395287316
0.031299999999999883,-0.017995127734283266
0.030299999999999883,-0.018009274847281917
0.02929999999999988,-0.018094157525273817
0.02829999999999988,-0.018249775768258973
0.02729999999999988,-0.018320511333252226
0.02629999999999988,-0.018362952672248176
0.025299999999999878,-0.018405394011244126
0.024299999999999877,-0.01847612957623738
0.023299999999999876,-0.018617600706223883
0.022299999999999875,-0.018702483384215783
0.021299999999999875,-0.018744924723211737
0.020299999999999874,-0.018787366062207687
0.019299999999999873,-0.01887224874019959
0.018299999999999872,-0.019013719870186095
0.01729999999999987,-0.019098602548177995
0.01629999999999987,-0.019126896774175294
0.01529999999999987,-0.019197632339168547
0.014299999999999868,-0.01928251501716045
0.013299999999999867,-0.0194098390341483
0.012299999999999978,-0.01950886882513886
0.011299999999999866,-0.01950886882513886
0.010299999999999976,-0.01959375150313076
0.009299999999999864,-0.019664487068124008
0.008299999999999974,-0.019791811085111865
0.007299999999999862,-0.019904987989101064
0.006299999999999972,-0.019947429328097017
0.00529999999999986,-0.019989870667092968
0.0042999999999999705,-0.02008890045808352
0.0032999999999998586,-0.020216224475071376
0.0022999999999999687,-0.020315254266061927
0.0012999999999998568,-0.020357695605057877
0.00029999999999996696,-0.020400136944053827
-0.000700000000000145,-0.020499166735044382
-0.0017000000000000348,-0.020626490752032236
-0.0027000000000001467,-0.02073966765602144
-0.0037000000000000366,-0.020767961882018737
-0.0047000000000001485,-0.020810403221014687
-0.005700000000000038,-0.020909433012005242
-0.00670000000000015,-0.021050904141991744
-0.00770000000000004,-0.021149933932982302
-0.008700000000000152,-0.02122066949797555
-0.009700000000000042,-0.0212631108369715
-0.010700000000000154,-0.021376287740960703
-0.011700000000000044,-0.02150361175794856
-0.012700000000000156,-0.02163093577493641
-0.013700000000000045,-0.02167337711393236
-0.014700000000000157,-0.021729965565926962
-0.015700000000000047,-0.021800701130920214
-0.01670000000000016,-0.021956319373905367
-0.01770000000000005,-0.02204120205189727
-0.01870000000000016,-0.022069496277894573
-0.01970000000000005,-0.022140231842887825
-0.020700000000000163,-0.022225114520879725
-0.021700000000000053,-0.02239487987686353
-0.022700000000000164,-0.022479762554855433
-0.023700000000000054,-0.022522203893851383
-0.024700000000000166,-0.022592939458844635
-0.025700000000000056,-0.02267782213683654
-0.026700000000000168,-0.02280514615382439
-0.027700000000000058,-0.022918323057813595
-0.02870000000000017,-0.022946617283810897
-0.02970000000000006,-0.0230032057358055
-0.03070000000000017,-0.02313052975279335
-0.03170000000000006,-0.02324370665678255
-0.03270000000000017,-0.023342736447773106
-0.03370000000000006,-0.023356883560771757
-0.034700000000000175,-0.023427619125765006
-0.035700000000000065,-0.02352664891675556
-0.03670000000000018,-0.023682267159740714
-0.03770000000000007,-0.02378129695073127
-0.03870000000000018,-0.023823738289727222
-0.03970000000000007,-0.02388032674172182
-0.04070000000000018,-0.023993503645711022
-0.04170000000000007,-0.024106680549700225
-0.04270000000000018,-0.024219857453689427
-0.04370000000000007,-0.02426229879268538
-0.044700000000000184,-0.024304740131681327
-0.045700000000000074,-0.024432064148669184
-0.046700000000000186,-0.024559388165657038
-0.047700000000000076,-0.024644270843648942
-0.04870000000000019,-0.02471500640864219
-0.04970000000000008,-0.02474330063463949
-0.05070000000000019,-0.024856477538628696
-0.05170000000000008,-0.024983801555616546
-0.05270000000000019,-0.02506868423360845
-0.05370000000000008,-0.0251111255726044
-0.05470000000000019,-0.025181861137597652
-0.05570000000000008,-0.025295038041586858
-0.056700000000000195,-0.025422362058574708
-0.057700000000000085,-0.025493097623567964
-0.058700000000000196,-0.02554968607556256
-0.059700000000000086,-0.02562042164055581
-0.0607000000000002,-0.025705304318547718
-0.06170000000000009,-0.025889216787530173
-0.0627000000000002,-0.025988246578520724
