Potential V vs RHE, Current mA cm-2
0.4132999999999999,0.004723721030249358
0.4122999999999999,0.0029496730602186013
0.4112999999999999,0.002405009209770562
0.4102999999999999,0.0020824550334013338
0.4092999999999999,0.001897127853119014
0.4082999999999999,0.001737265476234265
0.4072999999999999,0.0015646706976507304
0.4062999999999999,0.0013360533515925407
0.4052999999999999,0.0011461990951506526
0.4042999999999999,0.001040095747660775
0.4032999999999999,0.0009242308922018285
0.4022999999999999,0.0008000192400736783
0.4012999999999999,0.0006032328982624517
0.4002999999999999,0.00046925973816523263
0.3992999999999999,0.000349150748806691
0.3982999999999999,0.00026822926245441094
0.3972999999999999,0.00015802325219492459
0.3962999999999999,-1.2282523505428247e-05
0.3952999999999999,-0.00014203701450644967
0.3942999999999999,-0.0002202705493889862
0.39329999999999987,-0.0003011920357412663
0.39229999999999987,-0.0003806988107936814
0.39129999999999987,-0.0005370244094287679
0.39029999999999987,-0.0006514745535878494
0.38929999999999987,-0.000715702446601722
0.38829999999999987,-0.0007896918475846634
0.38729999999999987,-0.0008567491631982661
0.38629999999999987,-0.0010256656924021515
0.38529999999999986,-0.0011525652960000454
0.38429999999999986,-0.0012056169697449842
0.38329999999999986,-0.0012865384560972644
0.38229999999999986,-0.0013298286218731345
0.38129999999999986,-0.0014783733083589632
0.38029999999999986,-0.0016042826140469516
0.37929999999999986,-0.0016311621287443871
0.37829999999999986,-0.001694824137238314
0.37729999999999986,-0.0017881950830294063
0.37629999999999986,-0.0019169338113171246
0.37529999999999986,-0.0020272812927065974
0.37429999999999986,-0.0020640637865030884
0.37329999999999985,-0.0021036757028993097
0.37229999999999985,-0.002199876071290132
0.37129999999999985,-0.002321541243078525
0.37029999999999985,-0.0024262298792685376
0.36929999999999985,-0.0024389622809673234
0.36829999999999985,-0.0024601829504652985
0.36729999999999985,-0.0025719451431546365
0.36629999999999985,-0.0026893661810434345
0.36529999999999985,-0.002785566549434257
0.36429999999999985,-0.0028308373110299385
0.36329999999999985,-0.0028492285579281838
0.36229999999999984,-0.0029185494116215705
0.36129999999999984,-0.003060020541608074
0.36029999999999984,-0.0031548061986990316
0.35929999999999984,-0.003185929847296063
0.35829999999999984,-0.0032184682071929585
0.35729999999999984,-0.003287789060886345
0.35629999999999984,-0.0034221866343735236
0.35529999999999984,-0.0034999957558661007
0.35429999999999984,-0.0035381929609624566
0.35329999999999984,-0.0035707313208593527
0.35229999999999984,-0.0036244903502542234
0.35129999999999983,-0.0037631320576409976
0.35029999999999983,-0.0038352823339341145
0.34929999999999983,-0.0038678206938310106
0.34829999999999983,-0.003911676744126826
0.34729999999999983,-0.004016365380316839
0.34629999999999983,-0.004099833347008876
0.34529999999999983,-0.004207351405798619
0.34429999999999983,-0.004197448426699564
0.3432999999999998,-0.004231401497896325
0.3422999999999998,-0.004299307640289847
0.3412999999999998,-0.00442380223467797
0.3402999999999998,-0.004528490870867982
0.3392999999999998,-0.004528490870867982
0.3382999999999998,-0.004548296829066094
0.3372999999999998,-0.004611958837560019
0.3362999999999998,-0.004735038720648278
0.3352999999999998,-0.00481992139864018
0.3342999999999998,-0.004825580243839641
0.3332999999999998,-0.004843971490737885
0.3322999999999998,-0.004928854168729789
0.3312999999999998,-0.005029298671020205
0.3302999999999998,-0.005109937215112512
0.3292999999999998,-0.005126913750710893
0.3282999999999998,-0.005133987307210219
0.3272999999999998,-0.00521038171740293
0.3262999999999998,-0.005319314487492538
0.3252999999999999,-0.005397123608985115
0.3242999999999999,-0.005405611876784306
0.3232999999999999,-0.005422588412382685
0.3222999999999999,-0.005494738688675803
0.3212999999999999,-0.005609330303964871
0.3202999999999999,-0.005680065868958122
0.3192999999999999,-0.005697042404556503
0.3182999999999999,-0.005687139425457448
0.3172999999999999,-0.005764948546950025
0.3162999999999999,-0.0058823695848388225
0.3152999999999999,-0.005944616882032884
0.3142999999999999,-0.00597149639673032
0.3132999999999999,-0.0059856435097289705
0.3122999999999999,-0.006018181869625865
0.3112999999999999,-0.006151164731813179
0.3102999999999999,-0.006214826740307106
0.3092999999999999,-0.006220485585506566
0.3082999999999999,-0.006253023945403462
0.3072999999999999,-0.006289806439199953
0.3062999999999999,-0.006415715744887941
0.3052999999999999,-0.0064822071759815985
0.3042999999999999,-0.006485036598581328
0.3032999999999999,-0.006510501401978899
0.3022999999999999,-0.00654162505057593
0.3012999999999999,-0.006656216665864997
0.3002999999999999,-0.006736855209957304
0.2992999999999999,-0.006736855209957304
0.2982999999999999,-0.006742514055156764
0.2972999999999999,-0.006810420197550286
0.2962999999999999,-0.0069278412354390854
0.2952999999999999,-0.007004235645631797
0.2942999999999999,-0.006992917955232876
0.2932999999999999,-0.007028285737729501
0.2922999999999999,-0.007097606591422889
0.2912999999999999,-0.007190977537213981
0.2902999999999999,-0.007250395411808312
0.2892999999999999,-0.007258883679607504
0.2882999999999999,-0.007248980700508447
0.2872999999999999,-0.007323960399401295
0.2862999999999999,-0.007438552014690363
0.2852999999999999,-0.007486652198885773
0.2842999999999999,-0.007509287579683614
0.2832999999999999,-0.007513531713583209
0.2822999999999999,-0.007568705454277946
0.2812999999999999,-0.007687541203466609
0.2802999999999999,-0.007738470810261752
0.2792999999999999,-0.007754032634560265
0.2782999999999999,-0.0077497885006606705
0.2772999999999999,-0.007812035797854733
0.2762999999999999,-0.007920968567944341
0.2752999999999999,-0.00798604528773813
0.2742999999999999,-0.007974727597339212
0.2732999999999999,-0.008015754225035298
0.2722999999999999,-0.008055366141431519
0.2712999999999999,-0.008172787179320318
0.2702999999999999,-0.008242108033013704
0.2692999999999999,-0.008220887363515728
0.26829999999999987,-0.008247766878213164
0.26729999999999987,-0.008281719949409926
0.26629999999999987,-0.008382164451700343
0.26529999999999987,-0.008457144150593189
0.26429999999999987,-0.008440167614994809
0.26329999999999987,-0.008464217707092514
0.26229999999999987,-0.00851373260258779
0.26129999999999987,-0.008615591816178074
0.26029999999999986,-0.00869623036027038
0.25929999999999986,-0.008675009690772404
0.25829999999999986,-0.00869623036027038
0.25729999999999986,-0.008762721791364036
0.25629999999999986,-0.008857507448454996
0.25529999999999986,-0.008936731281247438
0.25429999999999986,-0.008918340034349192
0.25329999999999986,-0.008933901858647708
0.25229999999999986,-0.009004637423640958
0.25129999999999986,-0.009095178946832322
0.25029999999999986,-0.009161670377925977
0.24929999999999986,-0.009146108553627462
0.24829999999999985,-0.009160255666626113
0.24729999999999985,-0.009226747097719768
0.24629999999999985,-0.009328606311310052
0.24529999999999985,-0.00941490370060182
0.24429999999999985,-0.00943470965879993
0.24329999999999985,-0.009402171298903033
0.24229999999999985,-0.009491298110794532
0.24129999999999985,-0.009570521943586973
0.24029999999999985,-0.009618622127782386
0.23929999999999985,-0.009646916353779685
0.23829999999999985,-0.00963984279728036
0.23729999999999984,-0.009710578362273611
0.23629999999999984,-0.009812437575863895
0.23529999999999984,-0.009880343718257415
0.23429999999999984,-0.00986761131655863
0.23329999999999984,-0.009874684873057957
0.23229999999999984,-0.009927029191152962
0.23129999999999984,-0.010037376672542436
0.23029999999999984,-0.010096794547136767
0.22929999999999984,-0.010079818011538386
0.22829999999999984,-0.010118015216634742
0.22729999999999984,-0.01017318895732948
0.22629999999999983,-0.010287780572618546
0.22529999999999983,-0.01033588075681396
0.22429999999999983,-0.010318904221215576
0.22329999999999983,-0.010347198447212878
0.22229999999999983,-0.010410860455706805
0.22129999999999983,-0.010505646112797763
0.22029999999999983,-0.010565063987392095
0.21929999999999983,-0.010579211100390744
0.21829999999999983,-0.0105891140794898
0.21729999999999983,-0.010648531954084132
0.21629999999999983,-0.010736244054675765
0.21529999999999982,-0.01079424721797023
0.21429999999999982,-0.0107914177953705
0.21329999999999982,-0.010815467887468205
0.21229999999999982,-0.010884788741161593
0.21129999999999982,-0.010964012573954034
0.21029999999999982,-0.01102767458244796
0.20929999999999982,-0.011023430448548366
0.20829999999999982,-0.011023430448548366
0.20729999999999982,-0.011113971971739729
0.20629999999999982,-0.01120734291753082
0.20529999999999982,-0.01125544310172623
0.20429999999999982,-0.01124129598872758
0.20329999999999981,-0.01125544310172623
0.2022999999999998,-0.01132476395541962
0.2012999999999998,-0.011453502683707338
0.20029999999999992,-0.011487455754904098
0.19929999999999992,-0.011486041043604234
0.19829999999999992,-0.011484626332304368
0.19729999999999992,-0.011558191319897349
0.19629999999999992,-0.011679856491685743
0.19529999999999992,-0.011736444943680344
0.19429999999999992,-0.01178595983917562
0.19329999999999992,-0.011819912910372382
0.19229999999999992,-0.011834060023371031
0.19129999999999991,-0.011935919236961313
0.1902999999999999,-0.011967042885558346
0.1892999999999999,-0.011959969329059019
0.1882999999999999,-0.012006654801954566
0.1872999999999999,-0.012057584408749707
0.1862999999999999,-0.012175005446638505
0.1852999999999999,-0.012213202651734862
0.1842999999999999,-0.012207543806535402
0.1832999999999999,-0.012233008609932972
0.1822999999999999,-0.01226554696982987
0.1812999999999999,-0.012409847522416103
0.1802999999999999,-0.012456532995311648
0.1792999999999999,-0.012457947706611513
0.1782999999999999,-0.012474924242209893
0.1772999999999999,-0.01252443913770517
0.1762999999999999,-0.012634786619094642
0.1752999999999999,-0.012672983824190999
0.1742999999999999,-0.01267581324679073
0.1732999999999999,-0.01270410747278803
0.1722999999999999,-0.012753622368283304
0.1712999999999999,-0.012873872828771834
0.1702999999999999,-0.01291772887906765
0.1692999999999999,-0.012913484745168053
0.1682999999999999,-0.012933290703366164
0.1672999999999999,-0.013028076360457124
0.1662999999999999,-0.013121447306248216
0.1652999999999999,-0.013162473933944301
0.1642999999999999,-0.013163888645244166
0.1632999999999999,-0.013180865180842547
0.1622999999999999,-0.01326291843623472
0.1612999999999999,-0.013374680628924057
0.1602999999999999,-0.013411463122720546
0.1592999999999999,-0.013425610235719199
0.15829999999999989,-0.013442586771317579
0.15729999999999988,-0.013517566470210424
0.15629999999999988,-0.013612352127301384
0.15529999999999988,-0.01365054933239774
0.15429999999999988,-0.013644890487198278
0.15329999999999988,-0.013684502403594501
0.15229999999999988,-0.013735432010389643
0.15129999999999988,-0.013855682470878171
0.15029999999999988,-0.013896709098574253
0.14929999999999988,-0.01389812380987412
0.14829999999999988,-0.013920759190671962
0.14729999999999988,-0.013983006487866021
0.14629999999999987,-0.014099012814454956
0.14529999999999987,-0.014138624730851175
0.14429999999999987,-0.014135795308251445
0.14329999999999987,-0.014175407224647668
0.14229999999999987,-0.01426028990263957
0.14129999999999987,-0.014359319693630123
0.14029999999999987,-0.014415908145624722
0.13929999999999987,-0.014387613919627423
0.13829999999999987,-0.014401761032626074
0.13729999999999987,-0.014500790823616624
0.13629999999999987,-0.014585673501608528
0.13529999999999986,-0.014670556179600431
0.13429999999999986,-0.01465640906660178
0.13329999999999986,-0.014684703292599082
0.13229999999999986,-0.014769585970590984
0.13129999999999986,-0.014854468648582884
0.13029999999999986,-0.014925204213576137
0.12929999999999986,-0.014925204213576137
0.12829999999999986,-0.014953498439573438
0.12729999999999986,-0.01503838111756534
0.12629999999999986,-0.015123263795557243
0.12529999999999986,-0.015165705134553195
0.12429999999999986,-0.015193999360550494
0.12329999999999985,-0.015208146473549147
0.12229999999999985,-0.015293029151541045
0.12129999999999985,-0.015406206055530251
0.12029999999999985,-0.01543450028152755
0.11929999999999985,-0.015448647394526203
0.11829999999999985,-0.015476941620523503
0.11729999999999985,-0.015547677185516754
0.11629999999999985,-0.015675001202504608
0.11529999999999985,-0.015703295428501907
0.11429999999999985,-0.015717442541500558
0.11329999999999985,-0.01575988388049651
0.11229999999999984,-0.01578817810649381
0.11129999999999984,-0.015929649236480315
0.11029999999999984,-0.01597209057547626
0.10929999999999984,-0.01597209057547626
0.10829999999999984,-0.016000384801473564
0.10729999999999984,-0.016071120366466816
0.10629999999999984,-0.016170150157457368
0.10529999999999984,-0.016226738609451972
0.10429999999999984,-0.016226738609451972
0.10329999999999984,-0.01629747417444522
0.10229999999999984,-0.016354062626439823
0.10129999999999983,-0.01646723953042903
0.10029999999999983,-0.01652382798242363
0.09929999999999983,-0.01650968086942498
0.09829999999999983,-0.016537975095422278
0.09729999999999983,-0.01662285777341418
0.09629999999999983,-0.016721887564404736
0.09529999999999983,-0.016792623129397985
0.09429999999999983,-0.016778476016399334
0.09329999999999983,-0.01683506446839394
0.09229999999999983,-0.01691994714638584
0.09129999999999983,-0.017018976937376393
0.09029999999999982,-0.01706141827637234
0.08929999999999982,-0.017089712502369642
0.08829999999999982,-0.017118006728366945
0.08729999999999982,-0.017202889406358845
0.08629999999999982,-0.01731606631034805
0.08529999999999982,-0.017372654762342652
0.08429999999999982,-0.0173868018753413
0.08329999999999982,-0.0173868018753413
0.08229999999999982,-0.01748583166633185
0.08129999999999982,-0.017599008570321057
0.08029999999999982,-0.017641449909317007
0.07929999999999982,-0.01765559702231566
0.07829999999999981,-0.01768389124831296
0.07729999999999981,-0.017782921039303512
0.07629999999999981,-0.017896097943292714
0.07529999999999992,-0.017938539282288665
0.07429999999999992,-0.017938539282288665
0.07329999999999992,-0.017980980621284618
0.07229999999999992,-0.018080010412275173
0.07129999999999992,-0.01817904020326572
0.07029999999999992,-0.018249775768258973
0.06929999999999992,-0.018249775768258973
0.06829999999999992,-0.018292217107254923
0.06729999999999992,-0.018348805559249524
0.06629999999999991,-0.01851857091523333
0.06529999999999991,-0.01856101225422928
0.06429999999999991,-0.01856101225422928
0.06329999999999991,-0.01858930648022658
0.06229999999999991,-0.018674189158218484
0.06129999999999991,-0.018787366062207687
0.06029999999999991,-0.01885810162720094
0.05929999999999991,-0.01885810162720094
0.05829999999999991,-0.01891469007919554
0.05729999999999991,-0.018985425644188793
0.056299999999999906,-0.019126896774175294
0.055299999999999905,-0.0191834852261699
0.054299999999999904,-0.019169338113171244
0.0532999999999999,-0.01922592656516585
0.0522999999999999,-0.01933910346915505
0.0512999999999999,-0.019452280373144254
0.0502999999999999,-0.01950886882513886
0.0492999999999999,-0.01950886882513886
0.0482999999999999,-0.019551310164134805
0.0472999999999999,-0.019622045729128058
0.0462999999999999,-0.019777663972113214
0.045299999999999896,-0.019820105311109164
0.044299999999999895,-0.019834252424107815
0.043299999999999894,-0.019876693763103765
0.04229999999999989,-0.01997572355409432
0.04129999999999989,-0.02011719468408082
0.04029999999999989,-0.020187930249074077
0.03929999999999989,-0.02020207736207272
0.03829999999999989,-0.020230371588070024
0.03729999999999989,-0.02032940137906058
0.03629999999999989,-0.020470872509047083
0.03529999999999989,-0.020513313848043033
0.034299999999999886,-0.020569902300037635
0.033299999999999885,-0.020584049413036282
0.032299999999999884,-0.020697226317025485
0.031299999999999883,-0.020824550334013342
0.030299999999999883,-0.02088113878600794
0.02929999999999988,-0.020895285899006594
0.02829999999999988,-0.020951874351001196
0.02729999999999988,-0.021050904141991744
0.02629999999999988,-0.0211782281589796
0.025299999999999878,-0.02124896372397285
0.024299999999999877,-0.02124896372397285
0.023299999999999876,-0.021319699288966102
0.022299999999999875,-0.021404581966958002
0.021299999999999875,-0.021546053096944507
0.020299999999999874,-0.021602641548939108
0.019299999999999873,-0.02163093577493641
0.018299999999999872,-0.021687524226931015
0.01729999999999987,-0.021800701130920214
0.01629999999999987,-0.021928025147908068
0.01529999999999987,-0.02198461359990267
0.014299999999999868,-0.022027054938898623
0.013299999999999867,-0.022069496277894573
0.012299999999999978,-0.022196820294882423
0.011299999999999866,-0.022295850085872978
0.010299999999999976,-0.02238073276386488
0.009299999999999864,-0.02240902698986218
0.008299999999999974,-0.022479762554855433
0.007299999999999862,-0.022592939458844635
0.006299999999999972,-0.02270611636283384
0.00529999999999986,-0.02276270481482844
0.0042999999999999705,-0.02280514615382439
0.0032999999999998586,-0.022847587492820343
0.0022999999999999687,-0.022960764396809545
0.0012999999999998568,-0.023116382639794698
0.00029999999999996696,-0.023144676865792004
-0.000700000000000145,-0.0232012653177866
-0.0017000000000000348,-0.02324370665678255
-0.0027000000000001467,-0.023342736447773106
-0.0037000000000000366,-0.023498354690758262
-0.0047000000000001485,-0.02352664891675556
-0.005700000000000038,-0.023583237368750162
-0.00670000000000015,-0.023639825820744764
-0.00770000000000004,-0.02373885561173532
-0.008700000000000152,-0.02389447385472047
-0.009700000000000042,-0.02393691519371642
-0.010700000000000154,-0.02400765075870967
-0.011700000000000044,-0.024078386323702922
-0.012700000000000156,-0.024149121888696175
-0.013700000000000045,-0.024304740131681327
-0.014700000000000157,-0.02434718147067728
-0.015700000000000047,-0.024375475696674583
-0.01670000000000016,-0.024446211261667832
-0.01770000000000005,-0.024587682391654337
-0.01870000000000016,-0.024700859295643543
-0.01970000000000005,-0.024785741973635443
-0.020700000000000163,-0.024785741973635443
-0.021700000000000053,-0.024856477538628696
-0.022700000000000164,-0.024983801555616546
-0.023700000000000054,-0.0251111255726044
-0.024700000000000166,-0.025181861137597652
-0.025700000000000056,-0.025210155363594954
-0.026700000000000168,-0.025266743815589552
-0.027700000000000058,-0.02537992071957876
-0.02870000000000017,-0.025507244736566608
-0.02970000000000006,-0.025577980301559864
-0.03070000000000017,-0.025606274527557166
-0.03170000000000006,-0.025677010092550415
-0.03270000000000017,-0.02580433410953827
-0.03370000000000006,-0.025931658126526123
-0.034700000000000175,-0.02600239369151937
-0.035700000000000065,-0.026044835030515325
-0.03670000000000018,-0.026101423482509926
-0.03770000000000007,-0.02622874749949778
-0.03870000000000018,-0.026384365742482933
-0.03970000000000007,-0.026426807081478886
-0.04070000000000018,-0.02645510130747619
-0.04170000000000007,-0.02652583687246944
-0.04270000000000018,-0.026639013776458643
-0.04370000000000007,-0.02682292624544109
-0.044700000000000184,-0.026851220471438397
-0.045700000000000074,-0.026893661810434347
-0.046700000000000186,-0.02695025026242895
-0.047700000000000076,-0.027049280053419503
-0.04870000000000019,-0.027219045409403307
-0.04970000000000008,-0.027261486748399254
-0.05070000000000019,-0.02730392808739521
-0.05170000000000008,-0.02736051653938981
-0.05270000000000019,-0.02750198766937631
-0.05370000000000008,-0.02762931168636417
-0.05470000000000019,-0.02768590013835877
-0.05570000000000008,-0.027714194364356067
-0.056700000000000195,-0.027784929929349323
-0.057700000000000085,-0.027912253946337173
-0.058700000000000196,-0.028053725076323675
-0.059700000000000086,-0.02811031352831828
-0.0607000000000002,-0.02813860775431558
-0.06170000000000009,-0.028237637545306133
-0.0627000000000002,-0.028379108675292634
