Potential V vs RHE, Current mA cm-2
0.013299999999999867,-0.5692798270656908
0.012299999999999978,-1.8334658446250875
0.011299999999999866,-2.662486666345999
0.010299999999999976,-3.2297858975918787
0.009299999999999864,-3.623075638954359
0.008299999999999974,-3.927238568425342
0.007299999999999862,-4.146518819904423
0.006299999999999972,-4.276672259492005
0.00529999999999986,-4.406825699079589
0.0042999999999999705,-4.494537799671222
0.0032999999999998586,-4.538393849967037
0.0022999999999999687,-4.582249900262854
0.0012999999999998568,-4.626105950558669
0.00029999999999996696,-4.626105950558669
-0.000700000000000145,-4.668547289554621
-0.0017000000000000348,-4.668547289554621
-0.0027000000000001467,-4.668547289554621
-0.0037000000000000366,-4.712403339850438
-0.0047000000000001485,-4.756259390146253
-0.005700000000000038,-4.756259390146253
-0.00670000000000015,-4.800115440442069
-0.00770000000000004,-4.800115440442069
-0.008700000000000152,-4.800115440442069
-0.009700000000000042,-4.800115440442069
-0.010700000000000154,-4.800115440442069
-0.011700000000000044,-4.756259390146253
-0.012700000000000156,-4.756259390146253
-0.013700000000000045,-4.756259390146253
-0.014700000000000157,-4.756259390146253
-0.015700000000000047,-4.756259390146253
-0.01670000000000016,-4.800115440442069
-0.01770000000000005,-4.843971490737885
-0.01870000000000016,-4.887827541033701
-0.01970000000000005,-4.843971490737885
-0.020700000000000163,-4.843971490737885
-0.021700000000000053,-4.843971490737885
-0.022700000000000164,-4.843971490737885
-0.023700000000000054,-4.843971490737885
-0.024700000000000166,-4.800115440442069
-0.025700000000000056,-4.800115440442069
-0.026700000000000168,-4.800115440442069
-0.027700000000000058,-4.800115440442069
-0.02870000000000017,-4.800115440442069
-0.02970000000000006,-4.843971490737885
-0.03070000000000017,-4.843971490737885
-0.03170000000000006,-4.887827541033701
-0.03270000000000017,-4.887827541033701
-0.03370000000000006,-4.843971490737885
-0.034700000000000175,-4.843971490737885
-0.035700000000000065,-4.843971490737885
-0.03670000000000018,-4.843971490737885
-0.03770000000000007,-4.843971490737885
-0.03870000000000018,-4.843971490737885
-0.03970000000000007,-4.843971490737885
-0.04070000000000018,-4.887827541033701
-0.04170000000000007,-4.887827541033701
-0.04270000000000018,-4.887827541033701
-0.04370000000000007,-4.887827541033701
-0.044700000000000184,-4.887827541033701
-0.045700000000000074,-4.843971490737885
-0.046700000000000186,-4.843971490737885
-0.047700000000000076,-4.800115440442069
-0.04870000000000019,-4.800115440442069
-0.04970000000000008,-4.843971490737885
-0.05070000000000019,-4.843971490737885
-0.05170000000000008,-4.887827541033701
-0.05270000000000019,-4.887827541033701
-0.05370000000000008,-4.9302688800296535
-0.05470000000000019,-4.9302688800296535
-0.05570000000000008,-4.887827541033701
-0.056700000000000195,-4.887827541033701
-0.057700000000000085,-4.843971490737885
-0.058700000000000196,-4.843971490737885
-0.059700000000000086,-4.800115440442069
-0.0607000000000002,-4.800115440442069
-0.06170000000000009,-4.800115440442069
-0.0627000000000002,-4.843971490737885
-0.06370000000000009,-4.887827541033701
-0.0647000000000002,-4.887827541033701
-0.06570000000000009,-4.9302688800296535
-0.0667000000000002,-4.9302688800296535
-0.0677000000000001,-4.9302688800296535
-0.0687000000000002,-4.887827541033701
-0.0697000000000001,-4.887827541033701
-0.07070000000000021,-4.843971490737885
-0.0717000000000001,-4.843971490737885
-0.07270000000000021,-4.843971490737885
-0.0737000000000001,-4.843971490737885
-0.07470000000000021,-4.843971490737885
-0.0757000000000001,-4.887827541033701
-0.07670000000000021,-4.887827541033701
-0.0777000000000001,-4.887827541033701
-0.07870000000000021,-4.887827541033701
-0.0797000000000001,-4.887827541033701
-0.08070000000000022,-4.887827541033701
-0.0817000000000001,-4.887827541033701
-0.08270000000000022,-4.887827541033701
-0.08370000000000011,-4.887827541033701
-0.08470000000000022,-4.887827541033701
-0.08570000000000011,-4.887827541033701
-0.08670000000000022,-4.9302688800296535
-0.08770000000000011,-4.9302688800296535
-0.08870000000000022,-4.9302688800296535
-0.08970000000000011,-4.9302688800296535
-0.09070000000000022,-4.9302688800296535
-0.09170000000000011,-4.887827541033701
-0.09270000000000023,-4.887827541033701
-0.09370000000000012,-4.887827541033701
-0.09470000000000023,-4.887827541033701
-0.09570000000000012,-4.887827541033701
-0.09670000000000023,-4.9302688800296535
-0.09770000000000012,-4.9302688800296535
-0.09870000000000023,-4.9302688800296535
-0.09970000000000012,-4.974124930325469
-0.10070000000000023,-4.974124930325469
-0.10170000000000012,-4.9302688800296535
-0.10270000000000024,-4.9302688800296535
-0.10370000000000013,-4.887827541033701
-0.10470000000000024,-4.887827541033701
-0.10570000000000013,-4.887827541033701
-0.10670000000000024,-4.887827541033701
-0.10770000000000013,-4.9302688800296535
-0.10870000000000024,-4.9302688800296535
-0.10970000000000013,-4.974124930325469
-0.11070000000000024,-4.974124930325469
-0.11170000000000013,-4.974124930325469
-0.11270000000000002,-4.974124930325469
-0.11370000000000013,-4.974124930325469
-0.11470000000000002,-4.974124930325469
-0.11570000000000014,-4.9302688800296535
-0.11670000000000003,-4.9302688800296535
-0.11770000000000014,-4.9302688800296535
-0.11870000000000003,-4.9302688800296535
-0.11970000000000014,-4.9302688800296535
-0.12070000000000003,-4.974124930325469
-0.12170000000000014,-5.017980980621284
-0.12270000000000003,-5.017980980621284
-0.12370000000000014,-5.0618370309171015
-0.12470000000000003,-5.0618370309171015
-0.12570000000000014,-5.0618370309171015
-0.12670000000000003,-5.017980980621284
-0.12770000000000015,-5.017980980621284
-0.12870000000000004,-4.974124930325469
-0.12970000000000015,-4.974124930325469
-0.13070000000000004,-4.974124930325469
-0.13170000000000015,-4.974124930325469
-0.13270000000000004,-5.017980980621284
-0.13370000000000015,-5.017980980621284
-0.13470000000000004,-5.0618370309171015
-0.13570000000000015,-5.105693081212917
-0.13670000000000004,-5.105693081212917
-0.13770000000000016,-5.105693081212917
-0.13870000000000005,-5.105693081212917
-0.13970000000000016,-5.105693081212917
-0.14070000000000005,-5.0618370309171015
-0.14170000000000016,-5.0618370309171015
-0.14270000000000005,-5.0618370309171015
-0.14370000000000016,-5.017980980621284
-0.14470000000000005,-5.017980980621284
-0.14570000000000016,-5.0618370309171015
-0.14670000000000005,-5.017980980621284
-0.14770000000000016,-5.0618370309171015
-0.14870000000000005,-5.0618370309171015
-0.14970000000000017,-5.105693081212917
-0.15070000000000006,-5.149549131508733
-0.15170000000000017,-5.149549131508733
-0.15270000000000006,-5.191990470504685
-0.15370000000000017,-5.191990470504685
-0.15470000000000006,-5.191990470504685
-0.15570000000000017,-5.235846520800501
-0.15670000000000006,-5.235846520800501
-0.15770000000000017,-5.235846520800501
-0.15870000000000006,-5.235846520800501
-0.15970000000000018,-5.235846520800501
-0.16070000000000007,-5.191990470504685
-0.16170000000000018,-5.191990470504685
-0.16270000000000007,-5.235846520800501
-0.16370000000000018,-5.235846520800501
-0.16470000000000007,-5.279702571096316
-0.16570000000000018,-5.279702571096316
-0.16670000000000007,-5.367414671687949
-0.16770000000000018,-5.367414671687949
-0.16870000000000007,-5.411270721983764
-0.16970000000000018,-5.411270721983764
-0.17070000000000007,-5.411270721983764
-0.17170000000000019,-5.411270721983764
-0.17270000000000008,-5.411270721983764
-0.1737000000000002,-5.411270721983764
-0.17470000000000008,-5.367414671687949
-0.1757000000000002,-5.367414671687949
-0.17670000000000008,-5.411270721983764
-0.1777000000000002,-5.411270721983764
-0.17870000000000008,-5.453712060979717
-0.1797000000000002,-5.5414241615713475
-0.18070000000000008,-5.585280211867165
-0.1817000000000002,-5.629136262162981
-0.18270000000000008,-5.715433651454749
-0.1837000000000002,-5.715433651454749
-0.1847000000000001,-5.715433651454749
-0.1857000000000002,-5.715433651454749
-0.1867000000000001,-5.672992312458796
-0.1877000000000002,-5.672992312458796
-0.1887000000000001,-5.672992312458796
-0.1897000000000002,-5.672992312458796
-0.1907000000000001,-5.715433651454749
-0.1917000000000001,-5.759289701750564
-0.19269999999999998,-5.80314575204638
-0.1937000000000001,-5.847001802342197
-0.19469999999999998,-5.9347139029338285
-0.1957000000000001,-5.977155241929781
-0.19669999999999999,-5.977155241929781
-0.1977000000000001,-5.977155241929781
-0.1987,-6.021011292225596
-0.1997000000000001,-6.021011292225596
-0.2007,-6.064867342521412
-0.2017000000000001,-6.064867342521412
-0.2027,-6.152579443113044
-0.2037000000000001,-6.196435493408861
-0.2047,-6.238876832404812
-0.2057000000000001,-6.238876832404812
-0.2067,-6.326588932996443
-0.2077000000000001,-6.326588932996443
-0.2087,-6.37044498329226
-0.2097000000000001,-6.37044498329226
-0.2107,-6.414301033588076
-0.2117000000000001,-6.500598422879844
-0.2127,-6.500598422879844
-0.2137000000000001,-6.588310523471475
-0.2147,-6.6760226240631075
-0.2157000000000001,-6.762320013354876
-0.2167,-6.806176063650692
-0.21770000000000012,-6.850032113946507
-0.2187,-6.893888164242324
-0.21970000000000012,-6.93774421453814
-0.2207,-6.981600264833956
-0.22170000000000012,-6.981600264833956
-0.2227,-7.024041603829907
-0.22370000000000012,-7.067897654125724
-0.2247,-7.155609754717355
-0.22570000000000012,-7.199465805013171
-0.2267,-7.28576319430494
-0.22770000000000012,-7.37347529489657
-0.22870000000000001,-7.50504344578402
-0.22970000000000013,-7.5474847847799715
-0.23070000000000002,-7.635196885371603
-0.23170000000000013,-7.679052935667419
-0.23270000000000002,-7.7653503249591855
-0.23370000000000013,-7.809206375255003
-0.23470000000000002,-7.853062425550818
-0.23570000000000013,-7.940774526142452
-0.23670000000000002,-8.027071915434218
-0.2376999999999999,-8.11478401602585
-0.23870000000000002,-8.246352166913299
-0.2396999999999999,-8.332649556205066
-0.24070000000000003,-8.464217707092514
-0.24169999999999991,-8.508073757388331
-0.24270000000000003,-8.594371146680096
-0.24369999999999992,-8.68208324727173
-0.24470000000000003,-8.725939297567548
-0.24569999999999992,-8.812236686859313
-0.24670000000000003,-8.899948787450944
-0.24769999999999992,-8.987660888042578
-0.24870000000000003,-9.11781432763016
-0.24969999999999992,-9.293238528813426
-0.25070000000000003,-9.423391968401008
-0.2516999999999999,-9.59740145828441
-0.25270000000000004,-9.685113558876042
-0.2536999999999999,-9.81668170976349
-0.25470000000000004,-9.946835149351072
-0.2556999999999999,-10.034547249942705
-0.25670000000000004,-10.120844639234473
-0.25769999999999993,-10.208556739826104
-0.25870000000000004,-10.340124890713554
-0.25969999999999993,-10.470278330301136
-0.26070000000000004,-10.644287820184536
-0.26169999999999993,-10.775855971071984
-0.26270000000000004,-10.949865460955383
-0.26369999999999993,-11.123874950838783
-0.26470000000000005,-11.299299152022046
-0.26569999999999994,-11.473308641905447
-0.26670000000000005,-11.604876792792895
-0.26769999999999994,-11.73503023238048
-0.26870000000000005,-11.909039722263879
-0.26969999999999994,-12.084463923447142
-0.27070000000000005,-12.258473413330542
-0.27169999999999994,-12.432482903213943
-0.27270000000000005,-12.607907104397206
-0.27369999999999994,-12.781916594280606
-0.27470000000000006,-12.99978213445982
-0.27569999999999995,-13.175206335643086
-0.27670000000000006,-13.30535977523067
-0.27769999999999995,-13.523225315409885
-0.27870000000000006,-13.698649516593148
-0.27969999999999995,-13.828802956180734
-0.28070000000000006,-14.046668496359947
-0.28169999999999995,-14.30273124163552
-0.28270000000000006,-14.529085049613924
-0.28369999999999995,-14.783733083589633
-0.28470000000000006,-15.01008689156804
-0.28569999999999995,-15.264734925543747
-0.28670000000000007,-15.533530072518102
-0.28769999999999996,-15.74573676749786
-0.28870000000000007,-15.972090575476265
-0.28969999999999996,-16.184297270456018
-0.29070000000000007,-16.396503965435777
-0.29169999999999996,-16.622857773414182
-0.29270000000000007,-16.835064468393938
-0.29369999999999996,-17.061418276372343
-0.2947000000000001,-17.316066310348052
-0.29569999999999996,-17.627302796318357
-0.2967000000000001,-17.966833508285966
-0.29769999999999996,-18.320511333252224
-0.2987000000000001,-18.843954514202288
-0.29969999999999997,-19.056161209182044
-0.3007000000000001,-19.3249563561564
-0.30169999999999997,-19.579604390132108
-0.3027000000000001,-19.890840876102416
-0.30369999999999997,-20.10304757108217
-0.3047000000000001,-20.371842718056527
-0.30569999999999997,-20.626490752032236
-0.3067000000000001,-20.93772723800254
-0.3077,-21.248963723972853
-0.3087000000000001,-21.63093577493641
-0.3097,-22.027054938898623
-0.3107000000000001,-22.46561544185678
-0.3117,-22.861734605818995
-0.3127000000000001,-23.24370665678255
-0.3137,-23.639825820744765
-0.3147000000000001,-24.035944984706973
-0.3157,-24.432064148669184
-0.3167000000000001,-24.814036199632742
-0.3177,-25.210155363594954
-0.3187000000000001,-25.563833188561212
-0.3197,-25.91751101352747
-0.3207000000000001,-26.29948306449103
-0.3217,-26.69560222845324
-0.3227000000000001,-27.091721392415455
-0.3237,-27.530281895373616
-0.3247000000000001,-27.954695285333123
-0.3257,-28.393255788291288
-0.3267000000000001,-28.8742576302454
-0.3277,-29.31281813320356
-0.3287000000000001,-29.836261314153624
-0.3297,-30.274821817111786
-0.3307000000000001,-30.7558236590659
-0.3317,-31.23682550102001
-0.3327000000000001,-31.661238890979522
-0.3337,-32.09979939393769
-0.3347000000000001,-32.58080123589179
-0.3357,-33.01936173884996
-0.3367000000000001,-33.58524625879597
-0.3377,-34.193572117737936
-0.3387000000000001,-34.8018979766799
-0.3397,-35.42437094862052
-0.3407000000000001,-35.99025546856653
-0.3417,-36.5136986495166
-0.3427000000000001,-36.99470049147071
-0.3437,-37.51814367242077
-0.3447000000000001,-38.04158685337084
-0.3457,-38.5650300343209
-0.3467000000000001,-39.130914554266916
-0.3477,-39.739240413208876
-0.3487000000000001,-40.34756627215084
-0.3497,-40.95589213109281
-0.3507000000000001,-41.66324778102533
-0.3517,-42.31401497896325
-0.3527000000000001,-43.007223515897124
-0.3537,-43.70043205283099
-0.3547000000000001,-44.36534636376755
-0.3557,-45.01611356170547
-0.35670000000000013,-45.70932209863933
-0.3577,-46.3176479575813
-0.35870000000000013,-46.982562268517874
-0.3597,-47.590888127459834
-0.36070000000000013,-48.24165532539775
-0.3617,-48.84998118433972
-0.3626999999999999,-49.50074838227763
-0.3637,-50.20810403221015
-0.3646999999999999,-50.943753908139975
-0.3657,-51.69355089706845
-0.3666999999999999,-52.514083450990164
-0.3677,-53.348763117910536
-0.3686999999999999,-54.2117370108282
-0.36970000000000003,-55.003975338752625
-0.3706999999999999,-55.838655005673
-0.37170000000000003,-56.61674622059877
-0.3726999999999999,-57.30995475753264
-0.37370000000000003,-58.10219308545706
-0.3746999999999999,-58.71051894439902
-0.37570000000000003,-59.31884480334099
-0.3766999999999999,-59.92717066228296
-0.37770000000000004,-60.63452631221547
-0.3786999999999999,-61.37017618814529
-0.37970000000000004,-62.20485585506566
-0.3806999999999999,-63.06782974798333
-0.38170000000000004,-63.98739209289561
-0.38269999999999993,-64.94939577680383
-0.38370000000000004,-65.86895812171612
-0.38469999999999993,-66.77437335362974
-0.38570000000000004,-67.65149435954605
-0.38669999999999993,-67.34025787357575
-0.38570000000000004,-65.43039761875795
-0.38469999999999993,-64.11471610988345
-0.38370000000000004,-63.06782974798333
-0.38269999999999993,-62.11997317707376
-0.38170000000000004,-61.28529351015339
-0.3806999999999999,-60.45061384323302
-0.37970000000000004,-59.67252262830725
-0.3786999999999999,-58.880284300382826
-0.37770000000000004,-58.10219308545706
-0.3766999999999999,-57.352396096528594
-0.37570000000000003,-56.61674622059877
-0.3746999999999999,-55.9235376836649
-0.37370000000000003,-55.21618203373238
-0.3726999999999999,-54.60785617479041
-0.37170000000000003,-53.91464763785655
-0.3706999999999999,-53.16485064892808
-0.36970000000000003,-52.386759434002315
-0.3686999999999999,-51.55207976708194
-0.3677,-50.77398855215617
-0.3666999999999999,-49.98175022423175
-0.3657,-49.24610034830193
-0.3646999999999999,-48.55289181136806
-0.3637,-47.84553616143554
-0.3626999999999999,-47.23721030249357
-0.3617,-46.628884443551605
-0.36070000000000013,-46.02055858460964
-0.3597,-45.36979138667173
-0.35870000000000013,-44.74731841473111
-0.3577,-44.054109877797245
-0.35670000000000013,-43.40334267985933
-0.3557,-42.653545690930855
-0.3547000000000001,-41.91789581500104
-0.3537,-41.139804600075266
-0.3527000000000001,-40.43244895014274
-0.3517,-39.78168175220483
-0.3507000000000001,-39.21579723225882
-0.3497,-38.6499127123128
-0.3487000000000001,-38.08402819236679
-0.3477,-37.47570233342482
-0.3467000000000001,-36.8532293614842
-0.3457,-36.20246216354629
-0.3447000000000001,-35.55169496560837
-0.3437,-34.85848642867451
-0.3427000000000001,-34.193572117737936
-0.3417,-33.50036358080407
-0.3407000000000001,-32.84959638286615
-0.3397,-32.283711862920136
-0.3387000000000001,-31.76026868197007
-0.3377,-31.23682550102001
-0.3367000000000001,-30.7558236590659
-0.3357,-30.232380478115836
-0.3347000000000001,-29.708937297165768
-0.3337,-29.18549411621571
-0.3327000000000001,-28.619609596269694
-0.3317,-28.05372507632368
-0.3307000000000001,-27.487840556377662
-0.3297,-26.9643973754276
-0.3287000000000001,-26.440954194477534
-0.3277,-25.959952352523427
-0.3267000000000001,-25.478950510569312
-0.3257,-24.997948668615198
-0.3247000000000001,-24.516946826661083
-0.3237,-24.035944984706973
-0.3227000000000001,-23.55494314275286
-0.3217,-23.031499961802798
-0.3207000000000001,-22.550498119848687
-0.3197,-22.069496277894572
-0.3187000000000001,-21.58849443594046
-0.3177,-21.149933932982297
-0.3167000000000001,-20.683079204026836
-0.3157,-20.244518701068674
-0.3147000000000001,-19.848399537106463
-0.3137,-19.409839034148305
-0.3127000000000001,-19.01371987018609
-0.3117,-18.631747819222536
-0.3107000000000001,-18.19318731626437
-0.3097,-17.797068152302163
-0.3087000000000001,-17.358507649344002
-0.3077,-16.962388485381787
-0.3067000000000001,-16.53797509542228
-0.30569999999999997,-16.099414592464115
-0.3047000000000001,-15.74573676749786
-0.30369999999999997,-15.349617603535648
-0.3027000000000001,-15.01008689156804
-0.30169999999999997,-14.65640906660178
-0.3007000000000001,-14.345172580631472
-0.29969999999999997,-14.002812446064135
-0.2987000000000001,-13.654793466297335
-0.29769999999999996,-13.30535977523067
-0.2967000000000001,-12.913484745168056
-0.29569999999999996,-12.56405105410139
-0.2947000000000001,-12.214617363034726
-0.29369999999999996,-11.82274233297211
-0.29270000000000007,-11.473308641905447
-0.29169999999999996,-11.1677310011346
-0.29070000000000007,-10.863568071663616
-0.28969999999999996,-10.557990430892769
-0.28870000000000007,-10.296268840417738
-0.28769999999999996,-10.034547249942705
-0.28670000000000007,-9.728969609171857
-0.28569999999999995,-9.423391968401008
-0.28470000000000006,-9.11781432763016
-0.28369999999999995,-8.85609273715513
-0.28270000000000006,-8.55051509638428
-0.28169999999999995,-8.246352166913299
-0.28070000000000006,-7.984630576438266
-0.27969999999999995,-7.722908985963235
-0.27870000000000006,-7.4173313451923875
-0.27769999999999995,-7.199465805013171
-0.27670000000000006,-6.981600264833956
-0.27569999999999995,-6.719878674358924
-0.27470000000000006,-6.500598422879844
-0.27369999999999994,-6.238876832404812
-0.27270000000000005,-5.977155241929781
-0.27169999999999994,-5.759289701750564
-0.27070000000000005,-5.497568111275533
-0.26969999999999994,-5.279702571096316
-0.26870000000000005,-5.0618370309171015
-0.26769999999999994,-4.843971490737885
-0.26670000000000005,-4.668547289554621
-0.26569999999999994,-4.450681749375406
-0.26470000000000005,-4.276672259492005
