Potential V vs RHE, Current mA cm-2
0.05339999999999995,-0.03352865780680137
0.05239999999999995,-0.03458969128170015
0.051399999999999946,-0.03504239889765696
0.050399999999999945,-0.03543851806161917
0.049399999999999944,-0.035820490112582724
0.04839999999999994,-0.036216609276544943
0.04739999999999994,-0.036584434214509846
0.04639999999999994,-0.03693811203947611
0.04539999999999994,-0.03734837831643697
0.04439999999999994,-0.03771620325440188
0.04339999999999994,-0.03808402819236679
0.04239999999999994,-0.03846600024333035
0.04139999999999994,-0.0388196780682966
0.040399999999999936,-0.03918750300626152
0.039399999999999935,-0.039597769283222374
0.038399999999999934,-0.039979741334185935
0.03739999999999993,-0.040347566272150845
0.03639999999999993,-0.040715391210115755
0.03539999999999993,-0.041097363261079316
0.03439999999999993,-0.04149348242504153
0.03339999999999993,-0.04187545447600509
0.03239999999999993,-0.04225742652696864
0.03139999999999993,-0.04262525146493356
0.030399999999999927,-0.04300722351589712
0.029399999999999926,-0.043403342679859326
0.028399999999999925,-0.04379946184382154
0.027399999999999924,-0.04419558100778375
0.026399999999999924,-0.044591700171745956
0.025399999999999923,-0.04500196644870682
0.024399999999999922,-0.04538393849967037
0.02339999999999992,-0.045794204776631244
0.02239999999999992,-0.0461761768275948
0.02139999999999992,-0.04657229599155701
0.020399999999999918,-0.046996709381516524
0.019399999999999917,-0.04740697565847738
0.018399999999999916,-0.04781724193543824
0.017399999999999916,-0.048227508212399094
0.016399999999999915,-0.048609480263362655
0.015399999999999914,-0.04903389365332217
0.014399999999999913,-0.04944415993028303
0.013399999999999912,-0.04986857332024254
0.012399999999999911,-0.05026469248420476
0.01139999999999991,-0.05068910587416426
0.01039999999999991,-0.05109937215112512
0.009399999999999908,-0.05153793265408329
0.008399999999999908,-0.0519623460440428
0.007399999999999907,-0.052386759434002304
0.006399999999999906,-0.05279702571096317
0.005399999999999905,-0.05320729198792403
0.004399999999999904,-0.053631705377883546
0.003399999999999903,-0.05408441299384034
0.002399999999999902,-0.05449467927080121
0.0013999999999999013,-0.05493323977375937
0.00039999999999990044,-0.055343506050720234
-0.0006000000000001005,-0.05578206655367839
-0.0016000000000001013,-0.05619233283063926
-0.0026000000000001022,-0.056630893333597415
-0.003600000000000103,-0.05705530672355694
-0.004600000000000104,-0.057479720113516444
-0.005600000000000105,-0.0578899863904773
-0.006600000000000106,-0.05834269400643411
-0.007600000000000107,-0.058767107396393625
-0.008600000000000108,-0.05917737367335448
-0.009600000000000108,-0.05958763995031534
-0.01060000000000011,-0.0599979062272762
-0.01160000000000011,-0.060422319617235716
-0.012600000000000111,-0.06088917434619118
-0.013600000000000112,-0.06129944062315204
-0.014600000000000113,-0.0617380011261102
-0.015600000000000114,-0.06216241451606971
-0.016600000000000115,-0.06260097501902787
-0.017600000000000116,-0.06302538840898737
-0.018600000000000116,-0.06346394891194555
-0.019600000000000117,-0.06391665652790236
-0.020600000000000118,-0.06432692280486321
-0.02160000000000012,-0.06476548330782138
-0.02260000000000012,-0.06518989669778089
-0.02360000000000012,-0.06561431008774041
-0.024600000000000122,-0.06606701770369722
-0.025600000000000123,-0.06649143109365672
-0.026600000000000124,-0.06690169737061757
-0.027600000000000124,-0.0673544049865744
-0.028600000000000125,-0.06773637703753796
-0.029600000000000126,-0.06818908465349477
-0.030600000000000127,-0.06859935093045562
-0.03160000000000013,-0.06902376432041514
-0.03260000000000013,-0.06941988348437735
-0.03360000000000013,-0.06981600264833956
-0.03460000000000002,-0.07025456315129773
-0.03560000000000002,-0.07066482942825858
-0.03660000000000002,-0.0710892428182181
-0.03760000000000002,-0.07151365620817761
-0.03860000000000002,-0.07193806959813712
-0.039600000000000024,-0.07233418876209932
-0.040600000000000025,-0.07273030792606154
-0.041600000000000026,-0.07312642709002375
-0.04260000000000003,-0.07352254625398597
-0.04360000000000003,-0.0739328125309468
-0.04460000000000003,-0.07432893169490903
-0.04560000000000003,-0.07471090374587258
-0.04660000000000003,-0.0751353171358321
-0.04760000000000003,-0.075503142073797
-0.04860000000000003,-0.07588511412476057
-0.04960000000000003,-0.07625293906272547
-0.050600000000000034,-0.07663491111368903
-0.051600000000000035,-0.07700273605165395
-0.052600000000000036,-0.07737056098961885
-0.053600000000000037,-0.07775253304058242
-0.05460000000000004,-0.07813450509154597
-0.05560000000000004,-0.07847403580351359
-0.05660000000000004,-0.07887015496747579
-0.05760000000000004,-0.0792096856794434
-0.05860000000000004,-0.07956336350440966
-0.05960000000000004,-0.07990289421637728
-0.06060000000000004,-0.08022827781534624
-0.061600000000000044,-0.08056780852731382
-0.06260000000000004,-0.0809214863522801
-0.06360000000000005,-0.08124686995124906
-0.06460000000000005,-0.08161469488921397
-0.06560000000000005,-0.08192593137518428
-0.06660000000000005,-0.08223716786115459
-0.06760000000000005,-0.08256255146012353
-0.06860000000000005,-0.08284549372009656
-0.06960000000000005,-0.0831708773190655
-0.07060000000000005,-0.08343967246603987
-0.07160000000000005,-0.08370846761301422
-0.07260000000000005,-0.08399140987298723
-0.07360000000000005,-0.08426020501996159
-0.07460000000000006,-0.08452900016693596
-0.07560000000000006,-0.0847977953139103
-0.07660000000000006,-0.08509488468688196
-0.07760000000000006,-0.08536367983385632
-0.07860000000000006,-0.08561832786783201
-0.07960000000000006,-0.08585882878880907
-0.08060000000000006,-0.08611347682278478
-0.08160000000000006,-0.0863681248567605
-0.08260000000000006,-0.08660862577773754
-0.08360000000000006,-0.08683497958571595
-0.08460000000000006,-0.08706133339369435
-0.08560000000000006,-0.0872735400886741
-0.08660000000000007,-0.08748574678365387
-0.08760000000000007,-0.08766965925263633
-0.08860000000000007,-0.08786771883461743
-0.08960000000000007,-0.08807992552959719
-0.09060000000000007,-0.08824969088558099
-0.09160000000000007,-0.08846189758056075
-0.09260000000000007,-0.08861751582354589
-0.09360000000000007,-0.08878728117952969
-0.09460000000000007,-0.08897119364851215
-0.09560000000000007,-0.08911266477849866
-0.09660000000000007,-0.08929657724748112
-0.09760000000000008,-0.08945219549046628
-0.09860000000000008,-0.08957951950745412
-0.09960000000000008,-0.08973513775043927
-0.10060000000000008,-0.08986246176742714
-0.10160000000000008,-0.09001808001041228
-0.10260000000000008,-0.09014540402740015
-0.10360000000000008,-0.09024443381839069
-0.10460000000000008,-0.09038590494837719
-0.10560000000000008,-0.09047078762636909
-0.10660000000000008,-0.09056981741735964
-0.10760000000000008,-0.09068299432134884
-0.10860000000000009,-0.09076787699934075
-0.10960000000000009,-0.09088105390332996
-0.11060000000000009,-0.0909517894683232
-0.11160000000000009,-0.09102252503331647
-0.11260000000000009,-0.09110740771130836
-0.11360000000000009,-0.09113570193730568
-0.11460000000000009,-0.09123473172829621
-0.11560000000000009,-0.09129132018029082
-0.11660000000000009,-0.09133376151928675
-0.1176000000000001,-0.09137620285828273
-0.1186000000000001,-0.09140449708428001
-0.1196000000000001,-0.09143279131027732
-0.1206000000000001,-0.09146108553627462
-0.1216000000000001,-0.09148937976227192
-0.1226000000000001,-0.09151767398826924
-0.1236000000000001,-0.09151767398826924
-0.1246000000000001,-0.09153182110126787
-0.1256000000000001,-0.09151767398826924
-0.1266000000000001,-0.09153182110126787
-0.1276000000000001,-0.09153182110126787
-0.1286000000000001,-0.09151767398826924
-0.1296000000000001,-0.09151767398826924
-0.1306000000000001,-0.09148937976227192
-0.1316000000000001,-0.09147523264927326
-0.1326000000000001,-0.09144693842327598
-0.1336000000000001,-0.09140449708428001
-0.1346000000000001,-0.09139034997128137
-0.1356000000000001,-0.09133376151928675
-0.1366000000000001,-0.09130546729328948
-0.1376000000000001,-0.09124887884129487
-0.1386000000000001,-0.09119229038930025
-0.1396000000000001,-0.09116399616330297
-0.1406000000000001,-0.09109326059830972
-0.14160000000000011,-0.09103667214631511
-0.14260000000000012,-0.09098008369432051
-0.14360000000000012,-0.09089520101632861
-0.14460000000000012,-0.09082446545133536
-0.14560000000000012,-0.09075372988634212
-0.14660000000000012,-0.09068299432134884
-0.14760000000000012,-0.09061225875635559
-0.14860000000000012,-0.0904990818523664
-0.14960000000000012,-0.09042834628737315
-0.15060000000000012,-0.09034346360938124
-0.15160000000000012,-0.09023028670539203
-0.15260000000000012,-0.09014540402740015
-0.15360000000000013,-0.09003222712341094
-0.15460000000000013,-0.08994734444541903
-0.15560000000000013,-0.08984831465442847
-0.15660000000000013,-0.08973513775043927
-0.15760000000000013,-0.08963610795944872
-0.15860000000000013,-0.08953707816845817
-0.15960000000000002,-0.08942390126446896
-0.16060000000000002,-0.08931072436047977
-0.16160000000000002,-0.08919754745649056
-0.16260000000000002,-0.08907022343950272
-0.16360000000000002,-0.08894289942251486
-0.16460000000000002,-0.08884386963152431
-0.16560000000000002,-0.0887589869535324
-0.16660000000000003,-0.08865995716254185
-0.16760000000000003,-0.08849019180655805
-0.16860000000000003,-0.08837701490256884
-0.16960000000000003,-0.08826383799857963
-0.17060000000000003,-0.08812236686859314
-0.17160000000000003,-0.08800918996460394
-0.17260000000000003,-0.08788186594761609
-0.17360000000000003,-0.08775454193062822
-0.17460000000000003,-0.08762721791364038
-0.17560000000000003,-0.08748574678365387
-0.17660000000000003,-0.08735842276666603
-0.17760000000000004,-0.08721695163667952
-0.17860000000000004,-0.08708962761969166
-0.17960000000000004,-0.08696230360270381
-0.18060000000000004,-0.08680668535971865
-0.18160000000000004,-0.08669350845572944
-0.18260000000000004,-0.08655203732574294
-0.18360000000000004,-0.08639641908275779
-0.18460000000000004,-0.08626909506576994
-0.18560000000000004,-0.08612762393578344
-0.18660000000000004,-0.08597200569279828
-0.18760000000000004,-0.08584468167581043
-0.18860000000000005,-0.08567491631982663
-0.18960000000000005,-0.08553344518984012
-0.19060000000000005,-0.08539197405985362
-0.19160000000000005,-0.08527879715586441
-0.19260000000000005,-0.08512317891287925
-0.19360000000000005,-0.08495341355689547
-0.19460000000000005,-0.0848260895399076
-0.19560000000000005,-0.08467047129692246
-0.19660000000000005,-0.08451485305393729
-0.19760000000000005,-0.08438752903694943
-0.19860000000000005,-0.08423191079396428
-0.19960000000000006,-0.08409043966397778
-0.20060000000000006,-0.08394896853399128
-0.20160000000000006,-0.08383579163000207
-0.20260000000000006,-0.08369432050001557
-0.20360000000000006,-0.08355284937002906
-0.20460000000000006,-0.08342552535304121
-0.20560000000000006,-0.0832840542230547
-0.20660000000000006,-0.08315673020606687
-0.20760000000000006,-0.08301525907608036
-0.20860000000000006,-0.08287378794609385
-0.20960000000000006,-0.08271816970310869
-0.21060000000000006,-0.0826049927991195
-0.21160000000000007,-0.08244937455613434
-0.21260000000000007,-0.08229375631314918
-0.21360000000000007,-0.08216643229616134
-0.21460000000000007,-0.08202496116617483
-0.21560000000000007,-0.08185519581019103
-0.21660000000000007,-0.08172787179320316
-0.21760000000000007,-0.08161469488921397
-0.21860000000000007,-0.08145907664622881
-0.21960000000000007,-0.08133175262924096
-0.22060000000000007,-0.08117613438625582
-0.22160000000000007,-0.0810346632562693
-0.22260000000000008,-0.0808931921262828
-0.22360000000000008,-0.08075172099629631
-0.22460000000000008,-0.08062439697930844
-0.22560000000000008,-0.08048292584932194
-0.22660000000000008,-0.08035560183233408
-0.22760000000000008,-0.08022827781534624
-0.22860000000000008,-0.08005851245936244
-0.22960000000000008,-0.07997362978137053
-0.23060000000000008,-0.07983215865138403
-0.23160000000000008,-0.07967654040839886
-0.23260000000000008,-0.07957751061740831
-0.23360000000000009,-0.0794360394874218
-0.2346000000000001,-0.07930871547043396
-0.2356000000000001,-0.07919553856644475
-0.2366000000000001,-0.07905406743645825
-0.2376000000000001,-0.0789267434194704
-0.2386000000000001,-0.0787852722894839
-0.2396000000000001,-0.07867209538549469
-0.2406000000000001,-0.07854477136850684
-0.2416000000000001,-0.07843159446451763
-0.2426000000000001,-0.07829012333453113
-0.2436000000000001,-0.07817694643054193
-0.2446000000000001,-0.07804962241355407
-0.2456000000000001,-0.07793644550956487
-0.2466000000000001,-0.07782326860557567
-0.2476000000000001,-0.07768179747558916
-0.2486000000000001,-0.07756862057159995
-0.2496000000000001,-0.07745544366761076
-0.2506000000000001,-0.0773281196506229
-0.2516000000000001,-0.0772149427466337
-0.2526000000000001,-0.07708761872964585
-0.2536000000000001,-0.07696029471265799
-0.2546000000000001,-0.07684711780866879
-0.2556000000000001,-0.0767339409046796
-0.2566000000000001,-0.0766207640006904
-0.2576000000000001,-0.07652173420969983
-0.2586000000000001,-0.07640855730571063
-0.2596000000000001,-0.07630952751472009
-0.2606000000000001,-0.07619635061073088
-0.2616000000000001,-0.07611146793273897
-0.2626000000000001,-0.07598414391575113
-0.2636000000000001,-0.07585681989876326
-0.2646000000000001,-0.07577193722077137
-0.2656000000000001,-0.07565876031678216
-0.2666000000000001,-0.07555973052579161
-0.2676000000000001,-0.07546070073480106
-0.2686000000000001,-0.07536167094381051
-0.2696000000000001,-0.07523434692682264
-0.2706000000000001,-0.0751353171358321
-0.2716000000000001,-0.07503628734484155
-0.2726000000000001,-0.07495140466684964
-0.2736000000000001,-0.07482408064986179
-0.2746000000000001,-0.07473919797186988
-0.2756000000000001,-0.07464016818087933
-0.2766000000000001,-0.07454113838988878
-0.2776000000000001,-0.07445625571189689
-0.2786000000000001,-0.07434307880790768
-0.2796000000000001,-0.07424404901691713
-0.2806000000000001,-0.07414501922592658
-0.28160000000000013,-0.07406013654793467
-0.28260000000000013,-0.07396110675694412
-0.28360000000000013,-0.07387622407895222
-0.2846,-0.07377719428796166
-0.2856,-0.07367816449697111
-0.2866,-0.07357913470598056
-0.2876,-0.07349425202798866
-0.2886,-0.0733952222369981
-0.2896,-0.0732820453330089
-0.2906,-0.07319716265501701
-0.2916,-0.0731122799770251
-0.2926,-0.07301325018603454
-0.2936,-0.07295666173403995
-0.29460000000000003,-0.07287177905604804
-0.29560000000000003,-0.0727727492650575
-0.29660000000000003,-0.07270201370006424
-0.29760000000000003,-0.07260298390907369
-0.29860000000000003,-0.07251810123108177
-0.29960000000000003,-0.07246151277908719
-0.30060000000000003,-0.07236248298809662
-0.30160000000000003,-0.07230589453610202
-0.30260000000000004,-0.07219271763211282
-0.30360000000000004,-0.07210783495412092
-0.30460000000000004,-0.07203709938912767
-0.30560000000000004,-0.07195221671113576
-0.30660000000000004,-0.07188148114614251
-0.30760000000000004,-0.07181074558114926
-0.30860000000000004,-0.07172586290315736
-0.30960000000000004,-0.0716551273381641
-0.31060000000000004,-0.07155609754717356
-0.31160000000000004,-0.07148536198218029
-0.31260000000000004,-0.07141462641718704
-0.31360000000000005,-0.07131559662619649
-0.31460000000000005,-0.0712590081742019
-0.31560000000000005,-0.07117412549621
-0.31660000000000005,-0.07110338993121673
-0.31760000000000005,-0.07101850725322485
-0.31860000000000005,-0.07094777168823159
-0.31960000000000005,-0.07090533034923564
-0.32060000000000005,-0.07082044767124374
-0.32160000000000005,-0.07073556499325184
-0.32260000000000005,-0.07065068231525992
-0.32360000000000005,-0.07059409386326533
-0.32460000000000006,-0.07052335829827208
-0.32560000000000006,-0.07046676984627748
-0.32660000000000006,-0.07039603428128423
-0.32760000000000006,-0.07032529871629098
-0.32860000000000006,-0.07022626892530041
-0.32960000000000006,-0.07015553336030717
-0.33060000000000006,-0.07008479779531392
-0.33160000000000006,-0.07004235645631796
-0.33260000000000006,-0.06995747377832606
-0.33360000000000006,-0.06988673821333281
-0.33460000000000006,-0.06983014976133821
-0.33560000000000006,-0.06975941419634496
-0.33660000000000007,-0.06970282574435036
-0.33760000000000007,-0.0696320901793571
-0.33860000000000007,-0.06956135461436386
-0.33960000000000007,-0.0695189132753679
-0.34060000000000007,-0.06944817771037465
-0.34160000000000007,-0.06939158925838004
-0.34260000000000007,-0.0693208536933868
-0.34360000000000007,-0.06925011812839355
-0.3446000000000001,-0.0692076767893976
-0.3456000000000001,-0.06913694122440435
-0.3466000000000001,-0.06909449988540839
-0.34759999999999996,-0.06903791143341378
-0.3486000000000001,-0.06895302875542189
-0.34959999999999997,-0.06889644030342729
-0.3506000000000001,-0.06883985185143268
-0.35159999999999997,-0.06879741051243674
-0.3526000000000001,-0.06872667494744349
-0.35359999999999997,-0.06865593938245024
-0.3546000000000001,-0.06861349804345429
-0.35559999999999997,-0.06855690959145967
-0.3566000000000001,-0.06848617402646642
-0.3576,-0.06844373268747048
-0.3586000000000001,-0.06837299712247723
-0.3596,-0.06833055578348128
-0.3606000000000001,-0.06827396733148668
-0.3616,-0.06820323176649341
-0.3626000000000001,-0.06814664331449882
-0.3636,-0.06809005486250422
-0.3646000000000001,-0.06804761352350826
-0.3656,-0.06799102507151367
-0.3666000000000001,-0.0679485837325177
-0.3676,-0.0678637010545258
-0.3686000000000001,-0.06780711260253121
-0.3696,-0.06776467126353526
-0.3706000000000001,-0.0677222299245393
-0.3716,-0.06767978858554335
-0.3726000000000001,-0.0676090530205501
-0.3736,-0.0675524645685555
-0.3746000000000001,-0.06751002322955955
-0.3756,-0.06743928766456629
-0.3766000000000001,-0.06739684632557033
-0.3776,-0.06734025787357575
-0.3786000000000001,-0.0672978165345798
-0.3796,-0.06725537519558383
-0.3806000000000001,-0.06719878674358926
-0.3816,-0.06715634540459328
-0.3826000000000001,-0.06709975695259869
-0.3836,-0.06704316850060409
-0.3846000000000001,-0.06701487427460678
-0.3856,-0.06694413870961352
-0.3866000000000001,-0.06691584448361623
-0.3876,-0.06685925603162164
-0.3886000000000001,-0.06680266757962702
-0.3896,-0.06678852046662838
-0.3906000000000001,-0.06673193201463377
-0.3916,-0.06668949067563783
-0.3926000000000001,-0.06663290222364322
-0.3936,-0.06657631377164863
-0.3946000000000001,-0.06654801954565133
-0.3956,-0.06649143109365672
-0.3966000000000001,-0.06644898975466076
-0.3976,-0.06640654841566482
-0.3986000000000001,-0.06636410707666887
-0.3996,-0.06632166573767292
-0.4006000000000001,-0.06627922439867698
-0.4016,-0.06623678305968102
-0.4026000000000001,-0.06619434172068506
-0.4036,-0.06613775326869047
-0.4046000000000001,-0.06609531192969452
-0.4056,-0.06606701770369722
-0.40660000000000013,-0.06603872347769991
-0.4076,-0.06598213502570531
-0.40860000000000013,-0.065953840799708
-0.4096,-0.06592554657371072
-0.41060000000000013,-0.06588310523471475
-0.4116,-0.06585481100871747
-0.41260000000000013,-0.06579822255672285
-0.4136,-0.0657557812177269
-0.41460000000000014,-0.06574163410472825
-0.4156,-0.06568504565273366
-0.41660000000000014,-0.065670898539735
-0.4176,-0.06562845720073905
-0.41860000000000014,-0.0655860158617431
-0.41960000000000003,-0.06557186874874445
-0.42060000000000014,-0.06551528029674986
-0.42160000000000003,-0.0655011331837512
-0.42260000000000014,-0.06547283895775391
-0.42360000000000003,-0.06543039761875795
-0.42460000000000014,-0.06541625050575929
-0.42560000000000003,-0.06537380916676334
-0.42660000000000015,-0.0653596620537647
-0.42760000000000004,-0.06531722071476874
-0.42860000000000015,-0.06528892648877145
-0.42960000000000004,-0.06527477937577279
-0.43060000000000015,-0.06524648514977549
-0.43160000000000004,-0.0652181909237782
-0.43260000000000015,-0.06516160247178358
-0.43360000000000004,-0.06514745535878494
-0.43460000000000015,-0.06514745535878494
-0.43560000000000004,-0.06511916113278764
-0.43660000000000015,-0.06507671979379169
