Potential V vs RHE, Current mA cm-2
0.05339999999999995,-0.2088113878600794
0.05239999999999995,-0.21503611757948557
0.051399999999999946,-0.21885583808912115
0.050399999999999945,-0.22140231842887825
0.049399999999999944,-0.22338291424868928
0.04839999999999994,-0.22493909667854084
0.04739999999999994,-0.22635380797840585
0.04639999999999994,-0.2273441058883114
0.04539999999999994,-0.2281929326682304
0.04439999999999994,-0.2293247017081224
0.04339999999999994,-0.23031499961802795
0.04239999999999994,-0.23116382639794697
0.04139999999999994,-0.23187118204787951
0.040399999999999936,-0.23243706656782553
0.039399999999999935,-0.23328589334774452
0.038399999999999934,-0.23385177786769054
0.03739999999999993,-0.23413472012766354
0.03639999999999993,-0.23441766238763656
0.03539999999999993,-0.23470060464760956
0.03439999999999993,-0.23526648916755558
0.03339999999999993,-0.23554943142752863
0.03239999999999993,-0.23583237368750162
0.03139999999999993,-0.2365397293374341
0.030399999999999927,-0.2368226715974071
0.029399999999999926,-0.23724708498736666
0.028399999999999925,-0.23767149837732615
0.027399999999999924,-0.23781296950731265
0.026399999999999924,-0.2382373828972722
0.025399999999999923,-0.23837885402725867
0.024399999999999922,-0.2388032674172182
0.02339999999999992,-0.2389447385472047
0.02239999999999992,-0.2386617962872317
0.02139999999999992,-0.2388032674172182
0.020399999999999918,-0.2388032674172182
0.019399999999999917,-0.2392276808071777
0.018399999999999916,-0.2393691519371642
0.017399999999999916,-0.2392276808071777
0.016399999999999915,-0.2396520941971372
0.015399999999999914,-0.2395106230671507
0.014399999999999913,-0.2397935653271237
0.013399999999999912,-0.24021797871708325
0.012399999999999911,-0.24035944984706975
0.01139999999999991,-0.24035944984706975
0.01039999999999991,-0.24050092097705625
0.009399999999999908,-0.24064239210704275
0.008399999999999908,-0.24092533436701574
0.007399999999999907,-0.24078386323702924
0.006399999999999906,-0.24106680549700227
0.005399999999999905,-0.24106680549700227
0.004399999999999904,-0.24120827662698877
0.003399999999999903,-0.24134974775697526
0.002399999999999902,-0.24134974775697526
0.0013999999999999013,-0.24120827662698877
0.00039999999999990044,-0.24149121888696176
-0.0006000000000001005,-0.24163269001694826
-0.0016000000000001013,-0.24163269001694826
-0.0026000000000001022,-0.24163269001694826
-0.003600000000000103,-0.24134974775697526
-0.004600000000000104,-0.24163269001694826
-0.005600000000000105,-0.24191563227692126
-0.006600000000000106,-0.24163269001694826
-0.007600000000000107,-0.24120827662698877
-0.008600000000000108,-0.24106680549700227
-0.009600000000000108,-0.24106680549700227
-0.01060000000000011,-0.24092533436701574
-0.01160000000000011,-0.24106680549700227
-0.012600000000000111,-0.24134974775697526
-0.013600000000000112,-0.24106680549700227
-0.014600000000000113,-0.24078386323702924
-0.015600000000000114,-0.24106680549700227
-0.016600000000000115,-0.24078386323702924
-0.017600000000000116,-0.24064239210704275
-0.018600000000000116,-0.24064239210704275
-0.019600000000000117,-0.24050092097705625
-0.020600000000000118,-0.24106680549700227
-0.02160000000000012,-0.24092533436701574
-0.02260000000000012,-0.24078386323702924
-0.02360000000000012,-0.24035944984706975
-0.024600000000000122,-0.24035944984706975
-0.025600000000000123,-0.24021797871708325
-0.026600000000000124,-0.24050092097705625
-0.027600000000000124,-0.24035944984706975
-0.028600000000000125,-0.24064239210704275
-0.029600000000000126,-0.24050092097705625
-0.030600000000000127,-0.24035944984706975
-0.03160000000000013,-0.24007650758709673
-0.03260000000000013,-0.2399350364571102
-0.03360000000000013,-0.24050092097705625
-0.03460000000000002,-0.24021797871708325
-0.03560000000000002,-0.24007650758709673
-0.03660000000000002,-0.24021797871708325
-0.03760000000000002,-0.24007650758709673
-0.03860000000000002,-0.2395106230671507
-0.039600000000000024,-0.2396520941971372
-0.040600000000000025,-0.2395106230671507
-0.041600000000000026,-0.23908620967719119
-0.04260000000000003,-0.2389447385472047
-0.04360000000000003,-0.2385203251572452
-0.04460000000000003,-0.2385203251572452
-0.04560000000000003,-0.2385203251572452
-0.04660000000000003,-0.23795444063729917
-0.04760000000000003,-0.23837885402725867
-0.04860000000000003,-0.23837885402725867
-0.04960000000000003,-0.23809591176728565
-0.050600000000000034,-0.23837885402725867
-0.051600000000000035,-0.23837885402725867
-0.052600000000000036,-0.23795444063729917
-0.053600000000000037,-0.23767149837732615
-0.05460000000000004,-0.23767149837732615
-0.05560000000000004,-0.23753002724733965
-0.05660000000000004,-0.23753002724733965
-0.05760000000000004,-0.23753002724733965
-0.05860000000000004,-0.23696414272739363
-0.05960000000000004,-0.23696414272739363
-0.06060000000000004,-0.23668120046742064
-0.061600000000000044,-0.23668120046742064
-0.06260000000000004,-0.23668120046742064
-0.06360000000000005,-0.2368226715974071
-0.06460000000000005,-0.23625678707746112
-0.06560000000000005,-0.23583237368750162
-0.06660000000000005,-0.2356909025575151
-0.06760000000000005,-0.2359738448174881
-0.06860000000000005,-0.2359738448174881
-0.06960000000000005,-0.2356909025575151
-0.07060000000000005,-0.2354079602975421
-0.07160000000000005,-0.23526648916755558
-0.07260000000000005,-0.23470060464760956
-0.07360000000000005,-0.2345591335176231
-0.07460000000000006,-0.23498354690758255
-0.07560000000000006,-0.23484207577759608
-0.07660000000000006,-0.23484207577759608
-0.07760000000000006,-0.23498354690758255
-0.07860000000000006,-0.23554943142752863
-0.07960000000000006,-0.23583237368750162
-0.08060000000000006,-0.23512501803756908
-0.08160000000000006,-0.23526648916755558
-0.08260000000000006,-0.23512501803756908
-0.08360000000000006,-0.23498354690758255
-0.08460000000000006,-0.23484207577759608
-0.08560000000000006,-0.23441766238763656
-0.08660000000000007,-0.23470060464760956
-0.08760000000000007,-0.23470060464760956
-0.08860000000000007,-0.23441766238763656
-0.08960000000000007,-0.23413472012766354
-0.09060000000000007,-0.23441766238763656
-0.09160000000000007,-0.23399324899767707
-0.09260000000000007,-0.23342736447773108
-0.09360000000000007,-0.23371030673770407
-0.09460000000000007,-0.23356883560771755
-0.09560000000000007,-0.23371030673770407
-0.09660000000000007,-0.23399324899767707
-0.09760000000000008,-0.23427619125765006
-0.09860000000000008,-0.23441766238763656
-0.09960000000000008,-0.23413472012766354
-0.10060000000000008,-0.23399324899767707
-0.10160000000000008,-0.2345591335176231
-0.10260000000000008,-0.23427619125765006
-0.10360000000000008,-0.23385177786769054
-0.10460000000000008,-0.23413472012766354
-0.10560000000000008,-0.23413472012766354
-0.10660000000000008,-0.23399324899767707
-0.10760000000000008,-0.23356883560771755
-0.10860000000000009,-0.23342736447773108
-0.10960000000000009,-0.23356883560771755
-0.11060000000000009,-0.23385177786769054
-0.11160000000000009,-0.23356883560771755
-0.11260000000000009,-0.23371030673770407
-0.11360000000000009,-0.23371030673770407
-0.11460000000000009,-0.23371030673770407
-0.11560000000000009,-0.23328589334774452
-0.11660000000000009,-0.23300295108777153
-0.1176000000000001,-0.23328589334774452
-0.1186000000000001,-0.23356883560771755
-0.1196000000000001,-0.23371030673770407
-0.1206000000000001,-0.23342736447773108
-0.1216000000000001,-0.23342736447773108
-0.1226000000000001,-0.23314442221775805
-0.1236000000000001,-0.23371030673770407
-0.1246000000000001,-0.23328589334774452
-0.1256000000000001,-0.23385177786769054
-0.1266000000000001,-0.23371030673770407
-0.1276000000000001,-0.23328589334774452
-0.1286000000000001,-0.23356883560771755
-0.1296000000000001,-0.23356883560771755
-0.1306000000000001,-0.23385177786769054
-0.1316000000000001,-0.23385177786769054
-0.1326000000000001,-0.23385177786769054
-0.1336000000000001,-0.23371030673770407
-0.1346000000000001,-0.23371030673770407
-0.1356000000000001,-0.23328589334774452
-0.1366000000000001,-0.23328589334774452
-0.1376000000000001,-0.23342736447773108
-0.1386000000000001,-0.23413472012766354
-0.1396000000000001,-0.23413472012766354
-0.1406000000000001,-0.23371030673770407
-0.14160000000000011,-0.23342736447773108
-0.14260000000000012,-0.23399324899767707
-0.14360000000000012,-0.23484207577759608
-0.14460000000000012,-0.23470060464760956
-0.14560000000000012,-0.23427619125765006
-0.14660000000000012,-0.23427619125765006
-0.14760000000000012,-0.23441766238763656
-0.14860000000000012,-0.23470060464760956
-0.14960000000000012,-0.23583237368750162
-0.15060000000000012,-0.23625678707746112
-0.15160000000000012,-0.2359738448174881
-0.15260000000000012,-0.23639825820744764
-0.15360000000000013,-0.23639825820744764
-0.15460000000000013,-0.23611531594747462
-0.15560000000000013,-0.23611531594747462
-0.15660000000000013,-0.23668120046742064
-0.15760000000000013,-0.23710561385738013
-0.15860000000000013,-0.23781296950731265
-0.15960000000000002,-0.23767149837732615
-0.16060000000000002,-0.23795444063729917
-0.16160000000000002,-0.23781296950731265
-0.16260000000000002,-0.2382373828972722
-0.16360000000000002,-0.2388032674172182
-0.16460000000000002,-0.2389447385472047
-0.16560000000000002,-0.23837885402725867
-0.16660000000000003,-0.23837885402725867
-0.16760000000000003,-0.23837885402725867
-0.16860000000000003,-0.23837885402725867
-0.16960000000000003,-0.23781296950731265
-0.17060000000000003,-0.2389447385472047
-0.17160000000000003,-0.2393691519371642
-0.17260000000000003,-0.2397935653271237
-0.17360000000000003,-0.2396520941971372
-0.17460000000000003,-0.2397935653271237
-0.17560000000000003,-0.24021797871708325
-0.17660000000000003,-0.24035944984706975
-0.17760000000000004,-0.24064239210704275
-0.17860000000000004,-0.24035944984706975
-0.17960000000000004,-0.24064239210704275
-0.18060000000000004,-0.24092533436701574
-0.18160000000000004,-0.24134974775697526
-0.18260000000000004,-0.24106680549700227
-0.18360000000000004,-0.24092533436701574
-0.18460000000000004,-0.24064239210704275
-0.18560000000000004,-0.24064239210704275
-0.18660000000000004,-0.24106680549700227
-0.18760000000000004,-0.24149121888696176
-0.18860000000000005,-0.2423400456668808
-0.18960000000000005,-0.24304740131681332
-0.19060000000000005,-0.24333034357678635
-0.19160000000000005,-0.24318887244679982
-0.19260000000000005,-0.2437547569667458
-0.19360000000000005,-0.24403769922671883
-0.19460000000000005,-0.24446211261667833
-0.19560000000000005,-0.24587682391654336
-0.19660000000000005,-0.24559388165657034
-0.19760000000000005,-0.2460182950465299
-0.19860000000000005,-0.24672565069646235
-0.19960000000000006,-0.2474330063463949
-0.20060000000000006,-0.24870624651627343
-0.20160000000000006,-0.24913065990623293
-0.20260000000000006,-0.24927213103621945
-0.20360000000000006,-0.24969654442617895
-0.20460000000000006,-0.25012095781613847
-0.20560000000000006,-0.250828313466071
-0.20660000000000006,-0.2512527268560305
-0.20760000000000006,-0.25096978459605745
-0.20860000000000006,-0.25096978459605745
-0.20960000000000006,-0.2523844958959225
-0.21060000000000006,-0.2526674381558955
-0.21160000000000007,-0.25365773606580105
-0.21260000000000007,-0.25450656284572004
-0.21360000000000007,-0.25493097623567956
-0.21460000000000007,-0.2554968607556256
-0.21560000000000007,-0.25507244736566614
-0.21660000000000007,-0.25464803397570657
-0.21760000000000007,-0.2552139184956526
-0.21860000000000007,-0.25493097623567956
-0.21960000000000007,-0.2560627452755716
-0.22060000000000007,-0.25662862979551765
-0.22160000000000007,-0.25691157205549064
-0.22260000000000008,-0.2574774565754367
-0.22360000000000008,-0.2580433410953827
-0.22460000000000008,-0.2584677544853422
-0.22560000000000008,-0.2587506967453152
-0.22660000000000008,-0.2583262833553557
-0.22760000000000008,-0.2594580523952477
-0.22860000000000008,-0.2608727636951128
-0.22960000000000008,-0.26044835030515323
-0.23060000000000008,-0.2607312925651262
-0.23160000000000008,-0.2614386482150588
-0.23260000000000008,-0.2622874749949778
-0.23360000000000009,-0.2622874749949778
-0.2346000000000001,-0.26327777290488336
-0.2356000000000001,-0.2639851285548159
-0.2366000000000001,-0.2646924842047484
-0.2376000000000001,-0.2656827821146539
-0.2386000000000001,-0.26554131098466743
-0.2396000000000001,-0.2659657243746269
-0.2406000000000001,-0.26582425324464043
-0.2416000000000001,-0.2666730800245595
-0.2426000000000001,-0.26808779132442445
-0.2436000000000001,-0.2689366181043435
-0.2446000000000001,-0.2706342716641816
-0.2456000000000001,-0.27134162731411404
-0.2466000000000001,-0.2724733963540061
-0.2476000000000001,-0.2728978097439656
-0.2486000000000001,-0.2726148674839926
-0.2496000000000001,-0.2728978097439656
-0.2506000000000001,-0.2736051653938981
-0.2516000000000001,-0.27459546330380363
-0.2526000000000001,-0.27501987669376315
-0.2536000000000001,-0.2754442900837227
-0.2546000000000001,-0.27473693443379016
-0.2556000000000001,-0.27572723234369567
-0.2566000000000001,-0.2777078281635067
-0.2576000000000001,-0.2779907704234797
-0.2586000000000001,-0.27912253946337173
-0.2596000000000001,-0.27982989511330425
-0.2606000000000001,-0.2808201930232098
-0.2616000000000001,-0.2815275486731423
-0.2626000000000001,-0.28364961562293983
-0.2636000000000001,-0.28223490432307485
-0.2646000000000001,-0.28223490432307485
-0.2656000000000001,-0.28336667336296684
-0.2666000000000001,-0.28478138466283187
-0.2676000000000001,-0.28633756709268343
-0.2686000000000001,-0.2871863938726024
-0.2696000000000001,-0.2880352206525215
-0.2706000000000001,-0.288176691782508
-0.2716000000000001,-0.289874345342346
-0.2726000000000001,-0.28930846082239997
-0.2736000000000001,-0.289874345342346
-0.2746000000000001,-0.2918549411621571
-0.2756000000000001,-0.29284523907206256
-0.2766000000000001,-0.29482583489187364
-0.2776000000000001,-0.2956746616717927
-0.2786000000000001,-0.29680643071168467
-0.2796000000000001,-0.2973723152316307
-0.2806000000000001,-0.2966649595816982
-0.28160000000000013,-0.29850408427152275
-0.28260000000000013,-0.2969479018416712
-0.28360000000000013,-0.29850408427152275
-0.2846,-0.30529469851087493
-0.2856,-0.3035970449510369
-0.2866,-0.3035970449510369
-0.2876,-0.3044458717309559
-0.2886,-0.3028896893011043
-0.2896,-0.3044458717309559
-0.2906,-0.3035970449510369
-0.2916,-0.30303116043109085
-0.2926,-0.3028896893011043
-0.2936,-0.30373851608102337
-0.29460000000000003,-0.30430440060096936
-0.29560000000000003,-0.30571911190083445
-0.29660000000000003,-0.3064264675507669
-0.29760000000000003,-0.308690005630551
-0.29860000000000003,-0.3108120725803486
-0.29960000000000003,-0.3108120725803486
-0.30060000000000003,-0.3116608993602676
-0.30160000000000003,-0.3139244374400516
-0.30260000000000004,-0.31548061986990317
-0.30360000000000004,-0.3161879755198357
-0.30460000000000004,-0.3161879755198357
-0.30560000000000004,-0.31802710020966024
-0.30660000000000004,-0.3215638784593228
-0.30760000000000004,-0.3174612156897142
-0.30860000000000004,-0.3170368022997547
-0.30960000000000004,-0.3181685713396467
-0.31060000000000004,-0.3181685713396467
-0.31160000000000004,-0.31958328263951175
-0.31260000000000004,-0.3205735805494173
-0.31360000000000005,-0.3211394650693633
-0.31460000000000005,-0.3219882918492823
-0.31560000000000005,-0.3234030031491474
-0.31660000000000005,-0.3248177144490124
-0.31760000000000005,-0.32708125252879644
-0.31860000000000005,-0.3293447906085805
-0.31960000000000005,-0.33019361738849956
-0.32060000000000005,-0.33019361738849956
-0.32160000000000005,-0.33075950190844555
-0.32260000000000005,-0.33373039563816215
-0.32360000000000005,-0.33613540484793275
-0.32460000000000006,-0.33740864501781126
-0.32560000000000006,-0.3392477697076358
-0.32660000000000006,-0.33995512535756833
-0.32760000000000006,-0.3432089613472579
-0.32860000000000006,-0.345755441687015
-0.32960000000000006,-0.34858486428674507
-0.33060000000000006,-0.3505654601065561
-0.33160000000000006,-0.35127281575648867
-0.33260000000000006,-0.35141428688647514
-0.33360000000000006,-0.35565842078607024
-0.33460000000000006,-0.35622430530601623
-0.33560000000000006,-0.3570731320859353
-0.33660000000000007,-0.3589122567757598
-0.33760000000000007,-0.3613172659855304
-0.33860000000000007,-0.36442963084523344
-0.33960000000000007,-0.3661272844050715
-0.34060000000000007,-0.36711758231497704
-0.34160000000000007,-0.36711758231497704
-0.34260000000000007,-0.3685322936148421
-0.34360000000000007,-0.3695225915247476
-0.3446000000000001,-0.3717861296045316
-0.3456000000000001,-0.37419113881430216
-0.3466000000000001,-0.37617173463411324
-0.34759999999999996,-0.37786938819395127
-0.3486000000000001,-0.37914262836382984
-0.34959999999999997,-0.3829623488734654
-0.3506000000000001,-0.3835282333934114
-0.35159999999999997,-0.38494294469327645
-0.3526000000000001,-0.387065011643074
-0.35359999999999997,-0.38791383842299304
-0.3546000000000001,-0.3881967806829661
-0.35559999999999997,-0.3901773765027771
-0.3566000000000001,-0.39343121249246665
-0.3576,-0.39668504848215624
-0.3586000000000001,-0.39710946187211577
-0.3596,-0.39682651961214277
-0.3606000000000001,-0.39951447108188637
-0.3616,-0.4024853648116029
-0.3626000000000001,-0.404183018371441
-0.3636,-0.4075783254911171
-0.3646000000000001,-0.4084271522710361
-0.3656,-0.4087100945310091
-0.3666000000000001,-0.41054921922083365
-0.3676,-0.4128127573006177
-0.3686000000000001,-0.4156421799003478
-0.3696,-0.41818866024010487
-0.3706000000000001,-0.42073514057986194
-0.3716,-0.4242719188295245
-0.3726000000000001,-0.4276672259492006
-0.3736,-0.4280916393391601
-0.3746000000000001,-0.4290819372490656
-0.3756,-0.4309210619388902
-0.3766000000000001,-0.4327601866287147
-0.3776,-0.4348822535785123
-0.3786000000000001,-0.4378531473082289
-0.3796,-0.4399752142580264
-0.3806000000000001,-0.4406825699079589
-0.3816,-0.44393640589764854
-0.3826000000000001,-0.4469072996273651
-0.3836,-0.44874642431718964
-0.3846000000000001,-0.4514343757869332
-0.3856,-0.4541223272566768
-0.3866000000000001,-0.4570932209863934
-0.3876,-0.4589323456762179
-0.3886000000000001,-0.46105441262601543
-0.3896,-0.4630350084458265
-0.3906000000000001,-0.4658644310455565
-0.3916,-0.4682694402553271
-0.3926000000000001,-0.4706744494650977
-0.3936,-0.47435269884474673
-0.3946000000000001,-0.4770406503144904
-0.3956,-0.47831389048436895
-0.3966000000000001,-0.48114331308409897
-0.3976,-0.48552891811368054
-0.3986000000000001,-0.4866606871535727
-0.3996,-0.48991452314326217
-0.4006000000000001,-0.49260247461300577
-0.4016,-0.4944415993028303
-0.4026000000000001,-0.4971295507725738
-0.4036,-0.5012322135421824
-0.4046000000000001,-0.5067495876116561
-0.4056,-0.5092960679514131
-0.40660000000000013,-0.5092960679514131
-0.4076,-0.5091545968214266
-0.40860000000000013,-0.5126913750710893
-0.4096,-0.5146719708909003
-0.41060000000000013,-0.5163696244507384
-0.4116,-0.520189344960374
-0.41260000000000013,-0.5248578922499286
-0.4136,-0.5249993633799152
-0.41460000000000014,-0.5276873148496587
-0.4156,-0.5312240930993213
-0.41660000000000014,-0.5361755826488489
-0.4176,-0.5382976495986466
-0.41860000000000014,-0.5405611876784305
-0.41960000000000003,-0.5421173701082821
-0.42060000000000014,-0.5449467927080122
-0.42160000000000003,-0.5489079843476343
-0.42260000000000014,-0.5518788780773508
-0.42360000000000003,-0.5568303676268785
-0.42460000000000014,-0.5612159726564601
-0.42560000000000003,-0.5653186354260686
-0.42660000000000015,-0.5706945383655557
-0.42760000000000004,-0.5764948546950025
-0.42860000000000015,-0.5800316329446651
-0.42960000000000004,-0.5855490070141387
-0.43060000000000015,-0.5909249099536259
-0.43160000000000004,-0.5947446304632614
-0.43260000000000015,-0.5978569953229644
-0.43360000000000004,-0.600262004532735
-0.43460000000000015,-0.6032328982624516
-0.43560000000000004,-0.6066282053821278
-0.43660000000000015,-0.6094576279818578
-0.43760000000000004,-0.6121455794516013
-0.43860000000000016,-0.6139847041414259
-0.43960000000000005,-0.6165311844811829
-0.44060000000000016,-0.620775318380778
