July 15, 2024   00:24:50
Cyclic Voltammetry
File: c:/users/guazh/data/20240709_batch67/2024-07-10-exp47\exp47-2024-07-15t00_11_51-h2koh\exp47_cv_50mvs_efin_-1800mv.bin
Data Source:  Experiment
Instrument Model:  CHI760E
Header: CV ran at 50 mVs
Note: 

Init E (V) = -1
High E (V) = -1
Low E (V) = -1.8
Final E (V) = -1
Init P/N = N
Scan Rate (V/s) = 0.05
Segment = 7
Sample Interval (V) = 0.001
Quiet Time (sec) = 60
Sensitivity (A/V) = 0.001
Comp R (ohm) = 2.1

Results:

Channel 1:
Segment 1:

Segment 2:

Segment 3:

Segment 4:

Segment 5:

Segment 6:

Segment 7:

Potential/V, Current/A

-1.000, 2.741e-7
-1.001, 3.767e-7
-1.002, 4.655e-7
-1.003, 5.770e-7
-1.004, 5.918e-7
-1.005, 6.352e-7
-1.006, 6.963e-7
-1.007, 5.819e-7
-1.008, 6.539e-7
-1.009, 6.835e-7
-1.010, 8.009e-7
-1.011, 7.595e-7
-1.012, 8.118e-7
-1.013, 7.763e-7
-1.014, 7.072e-7
-1.015, 8.147e-7
-1.016, 8.384e-7
-1.017, 8.611e-7
-1.018, 9.341e-7
-1.019, 9.154e-7
-1.020, 8.177e-7
-1.021, 8.877e-7
-1.022, 9.548e-7
-1.023, 1.038e-6
-1.024, 1.029e-6
-1.025, 9.825e-7
-1.026, 9.982e-7
-1.027, 8.848e-7
-1.028, 1.025e-6
-1.029, 1.054e-6
-1.030, 1.082e-6
-1.031, 1.029e-6
-1.032, 1.116e-6
-1.033, 1.078e-6
-1.034, 1.111e-6
-1.035, 1.007e-6
-1.036, 1.144e-6
-1.037, 1.239e-6
-1.038, 1.177e-6
-1.039, 1.283e-6
-1.040, 1.126e-6
-1.041, 1.111e-6
-1.042, 1.178e-6
-1.043, 1.253e-6
-1.044, 1.273e-6
-1.045, 1.242e-6
-1.046, 1.257e-6
-1.047, 1.215e-6
-1.048, 1.231e-6
-1.049, 1.248e-6
-1.050, 1.365e-6
-1.051, 1.406e-6
-1.052, 1.414e-6
-1.053, 1.382e-6
-1.054, 1.347e-6
-1.055, 1.364e-6
-1.056, 1.300e-6
-1.057, 1.507e-6
-1.058, 1.434e-6
-1.059, 1.497e-6
-1.060, 1.468e-6
-1.061, 1.356e-6
-1.062, 1.405e-6
-1.063, 1.387e-6
-1.064, 1.507e-6
-1.065, 1.525e-6
-1.066, 1.576e-6
-1.067, 1.596e-6
-1.068, 1.574e-6
-1.069, 1.459e-6
-1.070, 1.476e-6
-1.071, 1.524e-6
-1.072, 1.611e-6
-1.073, 1.662e-6
-1.074, 1.639e-6
-1.075, 1.628e-6
-1.076, 1.628e-6
-1.077, 1.630e-6
-1.078, 1.661e-6
-1.079, 1.678e-6
-1.080, 1.694e-6
-1.081, 1.726e-6
-1.082, 1.722e-6
-1.083, 1.707e-6
-1.084, 1.722e-6
-1.085, 1.675e-6
-1.086, 1.773e-6
-1.087, 1.788e-6
-1.088, 1.813e-6
-1.089, 1.844e-6
-1.090, 1.775e-6
-1.091, 1.739e-6
-1.092, 1.753e-6
-1.093, 1.807e-6
-1.094, 1.844e-6
-1.095, 1.830e-6
-1.096, 1.952e-6
-1.097, 1.930e-6
-1.098, 1.949e-6
-1.099, 1.905e-6
-1.100, 1.871e-6
-1.101, 1.917e-6
-1.102, 1.879e-6
-1.103, 1.949e-6
-1.104, 1.950e-6
-1.105, 2.054e-6
-1.106, 1.993e-6
-1.107, 2.059e-6
-1.108, 1.958e-6
-1.109, 1.908e-6
-1.110, 1.998e-6
-1.111, 2.093e-6
-1.112, 2.107e-6
-1.113, 2.143e-6
-1.114, 2.114e-6
-1.115, 2.078e-6
-1.116, 2.002e-6
-1.117, 2.194e-6
-1.118, 2.162e-6
-1.119, 2.125e-6
-1.120, 2.164e-6
-1.121, 2.107e-6
-1.122, 2.231e-6
-1.123, 2.261e-6
-1.124, 2.264e-6
-1.125, 2.214e-6
-1.126, 2.185e-6
-1.127, 2.279e-6
-1.128, 2.246e-6
-1.129, 2.335e-6
-1.130, 2.309e-6
-1.131, 2.242e-6
-1.132, 2.332e-6
-1.133, 2.341e-6
-1.134, 2.368e-6
-1.135, 2.357e-6
-1.136, 2.353e-6
-1.137, 2.385e-6
-1.138, 2.341e-6
-1.139, 2.374e-6
-1.140, 2.431e-6
-1.141, 2.415e-6
-1.142, 2.459e-6
-1.143, 2.489e-6
-1.144, 2.414e-6
-1.145, 2.417e-6
-1.146, 2.477e-6
-1.147, 2.650e-6
-1.148, 2.595e-6
-1.149, 2.525e-6
-1.150, 2.500e-6
-1.151, 2.503e-6
-1.152, 2.664e-6
-1.153, 2.666e-6
-1.154, 2.688e-6
-1.155, 2.590e-6
-1.156, 2.628e-6
-1.157, 2.600e-6
-1.158, 2.704e-6
-1.159, 2.634e-6
-1.160, 2.749e-6
-1.161, 2.742e-6
-1.162, 2.777e-6
-1.163, 2.703e-6
-1.164, 2.680e-6
-1.165, 2.769e-6
-1.166, 2.793e-6
-1.167, 2.865e-6
-1.168, 2.810e-6
-1.169, 2.755e-6
-1.170, 2.712e-6
-1.171, 2.817e-6
-1.172, 2.845e-6
-1.173, 2.892e-6
-1.174, 2.919e-6
-1.175, 2.825e-6
-1.176, 2.831e-6
-1.177, 2.843e-6
-1.178, 2.935e-6
-1.179, 2.940e-6
-1.180, 2.948e-6
-1.181, 3.024e-6
-1.182, 3.005e-6
-1.183, 2.942e-6
-1.184, 2.912e-6
-1.185, 2.969e-6
-1.186, 2.989e-6
-1.187, 3.103e-6
-1.188, 3.061e-6
-1.189, 3.034e-6
-1.190, 3.006e-6
-1.191, 3.022e-6
-1.192, 3.108e-6
-1.193, 3.089e-6
-1.194, 3.152e-6
-1.195, 3.100e-6
-1.196, 3.122e-6
-1.197, 3.146e-6
-1.198, 3.123e-6
-1.199, 3.048e-6
-1.200, 3.190e-6
-1.201, 3.148e-6
-1.202, 3.173e-6
-1.203, 3.212e-6
-1.204, 3.157e-6
-1.205, 3.186e-6
-1.206, 3.144e-6
-1.207, 3.278e-6
-1.208, 3.267e-6
-1.209, 3.266e-6
-1.210, 3.267e-6
-1.211, 3.287e-6
-1.212, 3.237e-6
-1.213, 3.267e-6
-1.214, 3.249e-6
-1.215, 3.296e-6
-1.216, 3.369e-6
-1.217, 3.311e-6
-1.218, 3.348e-6
-1.219, 3.311e-6
-1.220, 3.273e-6
-1.221, 3.344e-6
-1.222, 3.374e-6
-1.223, 3.450e-6
-1.224, 3.425e-6
-1.225, 3.401e-6
-1.226, 3.432e-6
-1.227, 3.440e-6
-1.228, 3.335e-6
-1.229, 3.428e-6
-1.230, 3.464e-6
-1.231, 3.525e-6
-1.232, 3.606e-6
-1.233, 3.498e-6
-1.234, 3.474e-6
-1.235, 3.437e-6
-1.236, 3.468e-6
-1.237, 3.559e-6
-1.238, 3.523e-6
-1.239, 3.573e-6
-1.240, 3.569e-6
-1.241, 3.570e-6
-1.242, 3.586e-6
-1.243, 3.510e-6
-1.244, 3.538e-6
-1.245, 3.575e-6
-1.246, 3.576e-6
-1.247, 3.690e-6
-1.248, 3.720e-6
-1.249, 3.621e-6
-1.250, 3.633e-6
-1.251, 3.563e-6
-1.252, 3.666e-6
-1.253, 3.666e-6
-1.254, 3.685e-6
-1.255, 3.713e-6
-1.256, 3.686e-6
-1.257, 3.697e-6
-1.258, 3.685e-6
-1.259, 3.727e-6
-1.260, 3.722e-6
-1.261, 3.843e-6
-1.262, 3.811e-6
-1.263, 3.776e-6
-1.264, 3.803e-6
-1.265, 3.772e-6
-1.266, 3.792e-6
-1.267, 3.790e-6
-1.268, 3.851e-6
-1.269, 3.857e-6
-1.270, 3.860e-6
-1.271, 3.869e-6
-1.272, 3.837e-6
-1.273, 3.908e-6
-1.274, 3.784e-6
-1.275, 3.860e-6
-1.276, 3.910e-6
-1.277, 3.941e-6
-1.278, 3.911e-6
-1.279, 3.874e-6
-1.280, 3.915e-6
-1.281, 3.934e-6
-1.282, 3.938e-6
-1.283, 3.960e-6
-1.284, 4.017e-6
-1.285, 3.944e-6
-1.286, 4.033e-6
-1.287, 3.997e-6
-1.288, 4.006e-6
-1.289, 4.015e-6
-1.290, 3.941e-6
-1.291, 4.057e-6
-1.292, 4.072e-6
-1.293, 4.067e-6
-1.294, 4.090e-6
-1.295, 4.050e-6
-1.296, 4.009e-6
-1.297, 4.098e-6
-1.298, 4.009e-6
-1.299, 4.103e-6
-1.300, 4.172e-6
-1.301, 4.138e-6
-1.302, 4.208e-6
-1.303, 4.098e-6
-1.304, 4.107e-6
-1.305, 4.106e-6
-1.306, 4.173e-6
-1.307, 4.225e-6
-1.308, 4.168e-6
-1.309, 4.240e-6
-1.310, 4.205e-6
-1.311, 4.188e-6
-1.312, 4.217e-6
-1.313, 4.172e-6
-1.314, 4.236e-6
-1.315, 4.245e-6
-1.316, 4.287e-6
-1.317, 4.299e-6
-1.318, 4.247e-6
-1.319, 4.221e-6
-1.320, 4.275e-6
-1.321, 4.279e-6
-1.322, 4.346e-6
-1.323, 4.343e-6
-1.324, 4.323e-6
-1.325, 4.366e-6
-1.326, 4.289e-6
-1.327, 4.322e-6
-1.328, 4.388e-6
-1.329, 4.365e-6
-1.330, 4.399e-6
-1.331, 4.452e-6
-1.332, 4.433e-6
-1.333, 4.395e-6
-1.334, 4.397e-6
-1.335, 4.413e-6
-1.336, 4.449e-6
-1.337, 4.516e-6
-1.338, 4.509e-6
-1.339, 4.463e-6
-1.340, 4.463e-6
-1.341, 4.475e-6
-1.342, 4.501e-6
-1.343, 4.508e-6
-1.344, 4.532e-6
-1.345, 4.569e-6
-1.346, 4.605e-6
-1.347, 4.562e-6
-1.348, 4.585e-6
-1.349, 4.492e-6
-1.350, 4.585e-6
-1.351, 4.605e-6
-1.352, 4.626e-6
-1.353, 4.635e-6
-1.354, 4.660e-6
-1.355, 4.663e-6
-1.356, 4.654e-6
-1.357, 4.657e-6
-1.358, 4.744e-6
-1.359, 4.724e-6
-1.360, 4.747e-6
-1.361, 4.785e-6
-1.362, 4.829e-6
-1.363, 4.752e-6
-1.364, 4.725e-6
-1.365, 4.759e-6
-1.366, 4.846e-6
-1.367, 4.839e-6
-1.368, 4.856e-6
-1.369, 4.835e-6
-1.370, 4.830e-6
-1.371, 4.900e-6
-1.372, 4.888e-6
-1.373, 4.853e-6
-1.374, 4.971e-6
-1.375, 4.888e-6
-1.376, 4.995e-6
-1.377, 5.017e-6
-1.378, 4.960e-6
-1.379, 4.995e-6
-1.380, 4.949e-6
-1.381, 5.040e-6
-1.382, 5.099e-6
-1.383, 5.075e-6
-1.384, 5.100e-6
-1.385, 5.077e-6
-1.386, 5.124e-6
-1.387, 5.101e-6
-1.388, 5.089e-6
-1.389, 5.138e-6
-1.390, 5.175e-6
-1.391, 5.185e-6
-1.392, 5.280e-6
-1.393, 5.189e-6
-1.394, 5.217e-6
-1.395, 5.227e-6
-1.396, 5.228e-6
-1.397, 5.302e-6
-1.398, 5.255e-6
-1.399, 5.302e-6
-1.400, 5.294e-6
-1.401, 5.275e-6
-1.402, 5.329e-6
-1.403, 5.373e-6
-1.404, 5.332e-6
-1.405, 5.439e-6
-1.406, 5.417e-6
-1.407, 5.492e-6
-1.408, 5.499e-6
-1.409, 5.357e-6
-1.410, 5.454e-6
-1.411, 5.537e-6
-1.412, 5.534e-6
-1.413, 5.581e-6
-1.414, 5.535e-6
-1.415, 5.583e-6
-1.416, 5.615e-6
-1.417, 5.598e-6
-1.418, 5.614e-6
-1.419, 5.610e-6
-1.420, 5.628e-6
-1.421, 5.692e-6
-1.422, 5.740e-6
-1.423, 5.683e-6
-1.424, 5.680e-6
-1.425, 5.719e-6
-1.426, 5.803e-6
-1.427, 5.775e-6
-1.428, 5.841e-6
-1.429, 5.850e-6
-1.430, 5.769e-6
-1.431, 5.861e-6
-1.432, 5.840e-6
-1.433, 5.877e-6
-1.434, 5.957e-6
-1.435, 5.918e-6
-1.436, 6.023e-6
-1.437, 6.008e-6
-1.438, 5.987e-6
-1.439, 6.053e-6
-1.440, 5.955e-6
-1.441, 6.061e-6
-1.442, 6.138e-6
-1.443, 6.112e-6
-1.444, 6.142e-6
-1.445, 6.138e-6
-1.446, 6.118e-6
-1.447, 6.263e-6
-1.448, 6.154e-6
-1.449, 6.244e-6
-1.450, 6.233e-6
-1.451, 6.293e-6
-1.452, 6.346e-6
-1.453, 6.290e-6
-1.454, 6.319e-6
-1.455, 6.351e-6
-1.456, 6.359e-6
-1.457, 6.443e-6
-1.458, 6.425e-6
-1.459, 6.454e-6
-1.460, 6.481e-6
-1.461, 6.488e-6
-1.462, 6.566e-6
-1.463, 6.522e-6
-1.464, 6.517e-6
-1.465, 6.561e-6
-1.466, 6.647e-6
-1.467, 6.691e-6
-1.468, 6.693e-6
-1.469, 6.650e-6
-1.470, 6.677e-6
-1.471, 6.773e-6
-1.472, 6.787e-6
-1.473, 6.842e-6
-1.474, 6.801e-6
-1.475, 6.866e-6
-1.476, 6.869e-6
-1.477, 6.927e-6
-1.478, 6.966e-6
-1.479, 6.914e-6
-1.480, 6.993e-6
-1.481, 7.033e-6
-1.482, 7.050e-6
-1.483, 7.117e-6
-1.484, 7.045e-6
-1.485, 7.142e-6
-1.486, 7.200e-6
-1.487, 7.168e-6
-1.488, 7.223e-6
-1.489, 7.219e-6
-1.490, 7.261e-6
-1.491, 7.358e-6
-1.492, 7.334e-6
-1.493, 7.387e-6
-1.494, 7.394e-6
-1.495, 7.422e-6
-1.496, 7.459e-6
-1.497, 7.461e-6
-1.498, 7.518e-6
-1.499, 7.545e-6
-1.500, 7.550e-6
-1.501, 7.650e-6
-1.502, 7.679e-6
-1.503, 7.668e-6
-1.504, 7.642e-6
-1.505, 7.688e-6
-1.506, 7.746e-6
-1.507, 7.825e-6
-1.508, 7.822e-6
-1.509, 7.919e-6
-1.510, 7.834e-6
-1.511, 7.941e-6
-1.512, 7.963e-6
-1.513, 8.000e-6
-1.514, 8.045e-6
-1.515, 8.053e-6
-1.516, 8.158e-6
-1.517, 8.192e-6
-1.518, 8.173e-6
-1.519, 8.207e-6
-1.520, 8.203e-6
-1.521, 8.323e-6
-1.522, 8.387e-6
-1.523, 8.367e-6
-1.524, 8.420e-6
-1.525, 8.395e-6
-1.526, 8.465e-6
-1.527, 8.532e-6
-1.528, 8.536e-6
-1.529, 8.586e-6
-1.530, 8.633e-6
-1.531, 8.679e-6
-1.532, 8.749e-6
-1.533, 8.697e-6
-1.534, 8.772e-6
-1.535, 8.804e-6
-1.536, 8.868e-6
-1.537, 8.944e-6
-1.538, 8.959e-6
-1.539, 9.000e-6
-1.540, 9.005e-6
-1.541, 9.069e-6
-1.542, 9.129e-6
-1.543, 9.154e-6
-1.544, 9.193e-6
-1.545, 9.241e-6
-1.546, 9.311e-6
-1.547, 9.377e-6
-1.548, 9.376e-6
-1.549, 9.383e-6
-1.550, 9.456e-6
-1.551, 9.503e-6
-1.552, 9.583e-6
-1.553, 9.598e-6
-1.554, 9.620e-6
-1.555, 9.695e-6
-1.556, 9.830e-6
-1.557, 9.829e-6
-1.558, 9.861e-6
-1.559, 9.858e-6
-1.560, 9.955e-6
-1.561, 1.006e-5
-1.562, 1.010e-5
-1.563, 1.018e-5
-1.564, 1.016e-5
-1.565, 1.025e-5
-1.566, 1.031e-5
-1.567, 1.035e-5
-1.568, 1.043e-5
-1.569, 1.044e-5
-1.570, 1.048e-5
-1.571, 1.061e-5
-1.572, 1.062e-5
-1.573, 1.068e-5
-1.574, 1.072e-5
-1.575, 1.079e-5
-1.576, 1.088e-5
-1.577, 1.094e-5
-1.578, 1.099e-5
-1.579, 1.101e-5
-1.580, 1.108e-5
-1.581, 1.118e-5
-1.582, 1.126e-5
-1.583, 1.132e-5
-1.584, 1.138e-5
-1.585, 1.143e-5
-1.586, 1.155e-5
-1.587, 1.164e-5
-1.588, 1.165e-5
-1.589, 1.169e-5
-1.590, 1.183e-5
-1.591, 1.194e-5
-1.592, 1.199e-5
-1.593, 1.203e-5
-1.594, 1.211e-5
-1.595, 1.214e-5
-1.596, 1.234e-5
-1.597, 1.242e-5
-1.598, 1.242e-5
-1.599, 1.254e-5
-1.600, 1.260e-5
-1.601, 1.272e-5
-1.602, 1.283e-5
-1.603, 1.286e-5
-1.604, 1.293e-5
-1.605, 1.303e-5
-1.606, 1.317e-5
-1.607, 1.328e-5
-1.608, 1.333e-5
-1.609, 1.343e-5
-1.610, 1.355e-5
-1.611, 1.368e-5
-1.612, 1.379e-5
-1.613, 1.381e-5
-1.614, 1.395e-5
-1.615, 1.407e-5
-1.616, 1.416e-5
-1.617, 1.436e-5
-1.618, 1.438e-5
-1.619, 1.444e-5
-1.620, 1.459e-5
-1.621, 1.470e-5
-1.622, 1.486e-5
-1.623, 1.492e-5
-1.624, 1.506e-5
-1.625, 1.519e-5
-1.626, 1.532e-5
-1.627, 1.544e-5
-1.628, 1.559e-5
-1.629, 1.564e-5
-1.630, 1.582e-5
-1.631, 1.598e-5
-1.632, 1.610e-5
-1.633, 1.622e-5
-1.634, 1.628e-5
-1.635, 1.649e-5
-1.636, 1.664e-5
-1.637, 1.686e-5
-1.638, 1.693e-5
-1.639, 1.704e-5
-1.640, 1.721e-5
-1.641, 1.741e-5
-1.642, 1.757e-5
-1.643, 1.769e-5
-1.644, 1.782e-5
-1.645, 1.800e-5
-1.646, 1.828e-5
-1.647, 1.838e-5
-1.648, 1.857e-5
-1.649, 1.865e-5
-1.650, 1.886e-5
-1.651, 1.911e-5
-1.652, 1.923e-5
-1.653, 1.943e-5
-1.654, 1.955e-5
-1.655, 1.971e-5
-1.656, 1.998e-5
-1.657, 2.011e-5
-1.658, 2.028e-5
-1.659, 2.048e-5
-1.660, 2.064e-5
-1.661, 2.093e-5
-1.662, 2.111e-5
-1.663, 2.129e-5
-1.664, 2.150e-5
-1.665, 2.167e-5
-1.666, 2.194e-5
-1.667, 2.220e-5
-1.668, 2.234e-5
-1.669, 2.256e-5
-1.670, 2.275e-5
-1.671, 2.312e-5
-1.672, 2.335e-5
-1.673, 2.352e-5
-1.674, 2.371e-5
-1.675, 2.400e-5
-1.676, 2.427e-5
-1.677, 2.457e-5
-1.678, 2.480e-5
-1.679, 2.500e-5
-1.680, 2.531e-5
-1.681, 2.564e-5
-1.682, 2.593e-5
-1.683, 2.615e-5
-1.684, 2.642e-5
-1.685, 2.676e-5
-1.686, 2.710e-5
-1.687, 2.744e-5
-1.688, 2.770e-5
-1.689, 2.792e-5
-1.690, 2.829e-5
-1.691, 2.873e-5
-1.692, 2.901e-5
-1.693, 2.940e-5
-1.694, 2.967e-5
-1.695, 3.010e-5
-1.696, 3.053e-5
-1.697, 3.088e-5
-1.698, 3.125e-5
-1.699, 3.162e-5
-1.700, 3.200e-5
-1.701, 3.247e-5
-1.702, 3.289e-5
-1.703, 3.325e-5
-1.704, 3.366e-5
-1.705, 3.410e-5
-1.706, 3.464e-5
-1.707, 3.514e-5
-1.708, 3.551e-5
-1.709, 3.606e-5
-1.710, 3.652e-5
-1.711, 3.710e-5
-1.712, 3.742e-5
-1.713, 3.777e-5
-1.714, 3.826e-5
-1.715, 3.881e-5
-1.716, 3.943e-5
-1.717, 4.007e-5
-1.718, 4.066e-5
-1.719, 4.125e-5
-1.720, 4.196e-5
-1.721, 4.267e-5
-1.722, 4.344e-5
-1.723, 4.414e-5
-1.724, 4.485e-5
-1.725, 4.568e-5
-1.726, 4.659e-5
-1.727, 4.748e-5
-1.728, 4.840e-5
-1.729, 4.928e-5
-1.730, 5.029e-5
-1.731, 5.136e-5
-1.732, 5.235e-5
-1.733, 5.342e-5
-1.734, 5.444e-5
-1.735, 5.564e-5
-1.736, 5.690e-5
-1.737, 5.817e-5
-1.738, 5.948e-5
-1.739, 6.068e-5
-1.740, 6.210e-5
-1.741, 6.370e-5
-1.742, 6.521e-5
-1.743, 6.675e-5
-1.744, 6.832e-5
-1.745, 7.000e-5
-1.746, 7.191e-5
-1.747, 7.379e-5
-1.748, 7.569e-5
-1.749, 7.765e-5
-1.750, 7.965e-5
-1.751, 8.184e-5
-1.752, 8.417e-5
-1.753, 8.652e-5
-1.754, 8.897e-5
-1.755, 9.160e-5
-1.756, 9.446e-5
-1.757, 9.735e-5
-1.758, 1.003e-4
-1.759, 1.034e-4
-1.760, 1.067e-4
-1.761, 1.102e-4
-1.762, 1.139e-4
-1.763, 1.176e-4
-1.764, 1.215e-4
-1.765, 1.257e-4
-1.766, 1.302e-4
-1.767, 1.348e-4
-1.768, 1.395e-4
-1.769, 1.445e-4
-1.770, 1.495e-4
-1.771, 1.550e-4
-1.772, 1.609e-4
-1.773, 1.668e-4
-1.774, 1.732e-4
-1.775, 1.798e-4
-1.776, 1.869e-4
-1.777, 1.944e-4
-1.778, 2.020e-4
-1.779, 2.100e-4
-1.780, 2.185e-4
-1.781, 2.274e-4
-1.782, 2.367e-4
-1.783, 2.463e-4
-1.784, 2.564e-4
-1.785, 2.670e-4
-1.786, 2.783e-4
-1.787, 2.900e-4
-1.788, 3.022e-4
-1.789, 3.148e-4
-1.790, 3.279e-4
-1.791, 3.414e-4
-1.792, 3.558e-4
-1.793, 3.709e-4
-1.794, 3.867e-4
-1.795, 4.032e-4
-1.796, 4.206e-4
-1.797, 4.386e-4
-1.798, 4.574e-4
-1.799, 4.767e-4
-1.800, 4.878e-4
-1.799, 4.887e-4
-1.798, 4.878e-4
-1.797, 4.857e-4
-1.796, 4.825e-4
-1.795, 4.787e-4
-1.794, 4.747e-4
-1.793, 4.699e-4
-1.792, 4.643e-4
-1.791, 4.585e-4
-1.790, 4.524e-4
-1.789, 4.463e-4
-1.788, 4.399e-4
-1.787, 4.331e-4
-1.786, 4.261e-4
-1.785, 4.189e-4
-1.784, 4.121e-4
-1.783, 4.052e-4
-1.782, 3.980e-4
-1.781, 3.907e-4
-1.780, 3.835e-4
-1.779, 3.764e-4
-1.778, 3.693e-4
-1.777, 3.620e-4
-1.776, 3.547e-4
-1.775, 3.476e-4
-1.774, 3.407e-4
-1.773, 3.337e-4
-1.772, 3.267e-4
-1.771, 3.197e-4
-1.770, 3.129e-4
-1.769, 3.063e-4
-1.768, 2.998e-4
-1.767, 2.931e-4
-1.766, 2.866e-4
-1.765, 2.804e-4
-1.764, 2.742e-4
-1.763, 2.682e-4
-1.762, 2.622e-4
-1.761, 2.560e-4
-1.760, 2.502e-4
-1.759, 2.445e-4
-1.758, 2.390e-4
-1.757, 2.335e-4
-1.756, 2.279e-4
-1.755, 2.227e-4
-1.754, 2.176e-4
-1.753, 2.124e-4
-1.752, 2.072e-4
-1.751, 2.021e-4
-1.750, 1.973e-4
-1.749, 1.927e-4
-1.748, 1.881e-4
-1.747, 1.835e-4
-1.746, 1.790e-4
-1.745, 1.748e-4
-1.744, 1.707e-4
-1.743, 1.667e-4
-1.742, 1.627e-4
-1.741, 1.587e-4
-1.740, 1.549e-4
-1.739, 1.514e-4
-1.738, 1.477e-4
-1.737, 1.442e-4
-1.736, 1.407e-4
-1.735, 1.373e-4
-1.734, 1.342e-4
-1.733, 1.310e-4
-1.732, 1.278e-4
-1.731, 1.248e-4
-1.730, 1.218e-4
-1.729, 1.190e-4
-1.728, 1.163e-4
-1.727, 1.134e-4
-1.726, 1.107e-4
-1.725, 1.082e-4
-1.724, 1.057e-4
-1.723, 1.033e-4
-1.722, 1.008e-4
-1.721, 9.840e-5
-1.720, 9.621e-5
-1.719, 9.402e-5
-1.718, 9.182e-5
-1.717, 8.966e-5
-1.716, 8.750e-5
-1.715, 8.549e-5
-1.714, 8.352e-5
-1.713, 8.168e-5
-1.712, 7.981e-5
-1.711, 7.790e-5
-1.710, 7.622e-5
-1.709, 7.460e-5
-1.708, 7.290e-5
-1.707, 7.127e-5
-1.706, 6.962e-5
-1.705, 6.807e-5
-1.704, 6.666e-5
-1.703, 6.517e-5
-1.702, 6.375e-5
-1.701, 6.228e-5
-1.700, 6.100e-5
-1.699, 5.975e-5
-1.698, 5.841e-5
-1.697, 5.715e-5
-1.696, 5.591e-5
-1.695, 5.471e-5
-1.694, 5.365e-5
-1.693, 5.252e-5
-1.692, 5.136e-5
-1.691, 5.027e-5
-1.690, 4.918e-5
-1.689, 4.826e-5
-1.688, 4.727e-5
-1.687, 4.626e-5
-1.686, 4.528e-5
-1.685, 4.439e-5
-1.684, 4.357e-5
-1.683, 4.271e-5
-1.682, 4.179e-5
-1.681, 4.091e-5
-1.680, 4.015e-5
-1.679, 3.936e-5
-1.678, 3.864e-5
-1.677, 3.781e-5
-1.676, 3.707e-5
-1.675, 3.638e-5
-1.674, 3.572e-5
-1.673, 3.502e-5
-1.672, 3.433e-5
-1.671, 3.364e-5
-1.670, 3.310e-5
-1.669, 3.249e-5
-1.668, 3.187e-5
-1.667, 3.124e-5
-1.666, 3.060e-5
-1.665, 3.008e-5
-1.664, 2.960e-5
-1.663, 2.903e-5
-1.662, 2.851e-5
-1.661, 2.795e-5
-1.660, 2.744e-5
-1.659, 2.706e-5
-1.658, 2.650e-5
-1.657, 2.600e-5
-1.656, 2.556e-5
-1.655, 2.509e-5
-1.654, 2.475e-5
-1.653, 2.429e-5
-1.652, 2.385e-5
-1.651, 2.340e-5
-1.650, 2.304e-5
-1.649, 2.272e-5
-1.648, 2.232e-5
-1.647, 2.193e-5
-1.646, 2.155e-5
-1.645, 2.117e-5
-1.644, 2.090e-5
-1.643, 2.057e-5
-1.642, 2.018e-5
-1.641, 1.981e-5
-1.640, 1.956e-5
-1.639, 1.923e-5
-1.638, 1.897e-5
-1.637, 1.864e-5
-1.636, 1.825e-5
-1.635, 1.802e-5
-1.634, 1.777e-5
-1.633, 1.745e-5
-1.632, 1.723e-5
-1.631, 1.694e-5
-1.630, 1.666e-5
-1.629, 1.647e-5
-1.628, 1.621e-5
-1.627, 1.598e-5
-1.626, 1.567e-5
-1.625, 1.547e-5
-1.624, 1.532e-5
-1.623, 1.507e-5
-1.622, 1.483e-5
-1.621, 1.463e-5
-1.620, 1.439e-5
-1.619, 1.423e-5
-1.618, 1.404e-5
-1.617, 1.380e-5
-1.616, 1.361e-5
-1.615, 1.343e-5
-1.614, 1.324e-5
-1.613, 1.317e-5
-1.612, 1.290e-5
-1.611, 1.273e-5
-1.610, 1.259e-5
-1.609, 1.240e-5
-1.608, 1.231e-5
-1.607, 1.211e-5
-1.606, 1.191e-5
-1.605, 1.180e-5
-1.604, 1.163e-5
-1.603, 1.150e-5
-1.602, 1.134e-5
-1.601, 1.110e-5
-1.600, 1.105e-5
-1.599, 1.098e-5
-1.598, 1.079e-5
-1.597, 1.068e-5
-1.596, 1.047e-5
-1.595, 1.037e-5
-1.594, 1.030e-5
-1.593, 1.015e-5
-1.592, 1.002e-5
-1.591, 9.881e-6
-1.590, 9.731e-6
-1.589, 9.710e-6
-1.588, 9.517e-6
-1.587, 9.387e-6
-1.586, 9.281e-6
-1.585, 9.137e-6
-1.584, 9.108e-6
-1.583, 9.006e-6
-1.582, 8.856e-6
-1.581, 8.741e-6
-1.580, 8.649e-6
-1.579, 8.556e-6
-1.578, 8.551e-6
-1.577, 8.351e-6
-1.576, 8.246e-6
-1.575, 8.196e-6
-1.574, 8.083e-6
-1.573, 8.039e-6
-1.572, 7.912e-6
-1.571, 7.797e-6
-1.570, 7.801e-6
-1.569, 7.674e-6
-1.568, 7.570e-6
-1.567, 7.499e-6
-1.566, 7.358e-6
-1.565, 7.384e-6
-1.564, 7.265e-6
-1.563, 7.185e-6
-1.562, 7.132e-6
-1.561, 6.961e-6
-1.560, 6.919e-6
-1.559, 6.914e-6
-1.558, 6.804e-6
-1.557, 6.749e-6
-1.556, 6.622e-6
-1.555, 6.517e-6
-1.554, 6.550e-6
-1.553, 6.442e-6
-1.552, 6.378e-6
-1.551, 6.290e-6
-1.550, 6.180e-6
-1.549, 6.225e-6
-1.548, 6.171e-6
-1.547, 6.057e-6
-1.546, 5.993e-6
-1.545, 5.918e-6
-1.544, 5.867e-6
-1.543, 5.805e-6
-1.542, 5.726e-6
-1.541, 5.648e-6
-1.540, 5.645e-6
-1.539, 5.594e-6
-1.538, 5.596e-6
-1.537, 5.481e-6
-1.536, 5.346e-6
-1.535, 5.350e-6
-1.534, 5.343e-6
-1.533, 5.253e-6
-1.532, 5.257e-6
-1.531, 5.145e-6
-1.530, 5.091e-6
-1.529, 5.080e-6
-1.528, 5.027e-6
-1.527, 4.963e-6
-1.526, 4.879e-6
-1.525, 4.860e-6
-1.524, 4.875e-6
-1.523, 4.764e-6
-1.522, 4.697e-6
-1.521, 4.650e-6
-1.520, 4.569e-6
-1.519, 4.604e-6
-1.518, 4.576e-6
-1.517, 4.476e-6
-1.516, 4.430e-6
-1.515, 4.359e-6
-1.514, 4.368e-6
-1.513, 4.341e-6
-1.512, 4.240e-6
-1.511, 4.231e-6
-1.510, 4.182e-6
-1.509, 4.206e-6
-1.508, 4.173e-6
-1.507, 4.007e-6
-1.506, 3.965e-6
-1.505, 4.035e-6
-1.504, 3.954e-6
-1.503, 3.938e-6
-1.502, 3.870e-6
-1.501, 3.758e-6
-1.500, 3.820e-6
-1.499, 3.793e-6
-1.498, 3.776e-6
-1.497, 3.723e-6
-1.496, 3.631e-6
-1.495, 3.615e-6
-1.494, 3.629e-6
-1.493, 3.557e-6
-1.492, 3.553e-6
-1.491, 3.491e-6
-1.490, 3.450e-6
-1.489, 3.471e-6
-1.488, 3.417e-6
-1.487, 3.309e-6
-1.486, 3.346e-6
-1.485, 3.300e-6
-1.484, 3.299e-6
-1.483, 3.276e-6
-1.482, 3.161e-6
-1.481, 3.175e-6
-1.480, 3.113e-6
-1.479, 3.113e-6
-1.478, 3.137e-6
-1.477, 3.067e-6
-1.476, 3.067e-6
-1.475, 3.000e-6
-1.474, 2.963e-6
-1.473, 2.960e-6
-1.472, 2.897e-6
-1.471, 2.882e-6
-1.470, 2.862e-6
-1.469, 2.892e-6
-1.468, 2.843e-6
-1.467, 2.827e-6
-1.466, 2.740e-6
-1.465, 2.746e-6
-1.464, 2.763e-6
-1.463, 2.747e-6
-1.462, 2.682e-6
-1.461, 2.681e-6
-1.460, 2.637e-6
-1.459, 2.638e-6
-1.458, 2.633e-6
-1.457, 2.556e-6
-1.456, 2.478e-6
-1.455, 2.519e-6
-1.454, 2.486e-6
-1.453, 2.434e-6
-1.452, 2.472e-6
-1.451, 2.442e-6
-1.450, 2.403e-6
-1.449, 2.412e-6
-1.448, 2.330e-6
-1.447, 2.318e-6
-1.446, 2.297e-6
-1.445, 2.296e-6
-1.444, 2.292e-6
-1.443, 2.270e-6
-1.442, 2.219e-6
-1.441, 2.216e-6
-1.440, 2.173e-6
-1.439, 2.152e-6
-1.438, 2.184e-6
-1.437, 2.138e-6
-1.436, 2.088e-6
-1.435, 2.094e-6
-1.434, 2.067e-6
-1.433, 2.048e-6
-1.432, 2.046e-6
-1.431, 1.947e-6
-1.430, 1.968e-6
-1.429, 1.993e-6
-1.428, 1.922e-6
-1.427, 1.960e-6
-1.426, 1.882e-6
-1.425, 1.891e-6
-1.424, 1.888e-6
-1.423, 1.830e-6
-1.422, 1.851e-6
-1.421, 1.784e-6
-1.420, 1.817e-6
-1.419, 1.793e-6
-1.418, 1.773e-6
-1.417, 1.733e-6
-1.416, 1.732e-6
-1.415, 1.667e-6
-1.414, 1.676e-6
-1.413, 1.685e-6
-1.412, 1.609e-6
-1.411, 1.638e-6
-1.410, 1.629e-6
-1.409, 1.605e-6
-1.408, 1.610e-6
-1.407, 1.547e-6
-1.406, 1.487e-6
-1.405, 1.544e-6
-1.404, 1.506e-6
-1.403, 1.567e-6
-1.402, 1.498e-6
-1.401, 1.425e-6
-1.400, 1.433e-6
-1.399, 1.482e-6
-1.398, 1.435e-6
-1.397, 1.466e-6
-1.396, 1.388e-6
-1.395, 1.371e-6
-1.394, 1.410e-6
-1.393, 1.336e-6
-1.392, 1.313e-6
-1.391, 1.292e-6
-1.390, 1.273e-6
-1.389, 1.342e-6
-1.388, 1.308e-6
-1.387, 1.264e-6
-1.386, 1.245e-6
-1.385, 1.212e-6
-1.384, 1.233e-6
-1.383, 1.215e-6
-1.382, 1.133e-6
-1.381, 1.159e-6
-1.380, 1.145e-6
-1.379, 1.131e-6
-1.378, 1.149e-6
-1.377, 1.092e-6
-1.376, 1.098e-6
-1.375, 1.084e-6
-1.374, 1.074e-6
-1.373, 1.045e-6
-1.372, 1.060e-6
-1.371, 9.746e-7
-1.370, 1.008e-6
-1.369, 1.023e-6
-1.368, 9.864e-7
-1.367, 9.479e-7
-1.366, 9.045e-7
-1.365, 8.798e-7
-1.364, 9.400e-7
-1.363, 9.677e-7
-1.362, 8.818e-7
-1.361, 8.700e-7
-1.360, 8.345e-7
-1.359, 8.512e-7
-1.358, 8.404e-7
-1.357, 8.285e-7
-1.356, 8.039e-7
-1.355, 7.782e-7
-1.354, 7.960e-7
-1.353, 7.565e-7
-1.352, 7.338e-7
-1.351, 6.934e-7
-1.350, 7.407e-7
-1.349, 7.121e-7
-1.348, 7.407e-7
-1.347, 6.510e-7
-1.346, 6.352e-7
-1.345, 6.223e-7
-1.344, 6.085e-7
-1.343, 6.470e-7
-1.342, 5.918e-7
-1.341, 5.454e-7
-1.340, 5.375e-7
-1.339, 5.424e-7
-1.338, 5.819e-7
-1.337, 5.395e-7
-1.336, 5.089e-7
-1.335, 5.128e-7
-1.334, 4.842e-7
-1.333, 4.822e-7
-1.332, 4.418e-7
-1.331, 4.033e-7
-1.330, 4.408e-7
-1.329, 4.388e-7
-1.328, 3.885e-7
-1.327, 3.787e-7
-1.326, 3.244e-7
-1.325, 3.254e-7
-1.324, 4.132e-7
-1.323, 3.027e-7
-1.322, 2.938e-7
-1.321, 2.553e-7
-1.320, 2.573e-7
-1.319, 2.938e-7
-1.318, 2.593e-7
-1.317, 2.336e-7
-1.316, 2.918e-7
-1.315, 1.508e-7
-1.314, 1.991e-7
-1.313, 1.754e-7
-1.312, 1.685e-7
-1.311, 1.902e-7
-1.310, 1.064e-7
-1.309, 1.251e-7
-1.308, 1.448e-7
-1.307, 8.564e-8
-1.306, 9.649e-8
-1.305, 9.649e-8
-1.304, 7.478e-8
-1.303, 1.241e-7
-1.302, 4.716e-8
-1.301, 4.736e-9
-1.300, 3.137e-8
-1.299, 1.657e-8
-1.298, 1.034e-7
-1.297, 9.669e-9
-1.296, 7.695e-9
-1.295, 8.682e-9
-1.294, -4.163e-8
-1.293, -2.980e-8
-1.292, -3.374e-8
-1.291, -6.630e-8
-1.290, -8.110e-8
-1.289, -1.294e-7
-1.288, -1.018e-7
-1.287, -7.222e-8
-1.286, -1.285e-7
-1.285, -1.137e-7
-1.284, -1.097e-7
-1.283, -1.679e-7
-1.282, -1.492e-7
-1.281, -1.867e-7
-1.280, -2.242e-7
-1.279, -1.857e-7
-1.278, -1.521e-7
-1.277, -1.936e-7
-1.276, -2.616e-7
-1.275, -2.774e-7
-1.274, -2.301e-7
-1.273, -2.419e-7
-1.272, -2.528e-7
-1.271, -2.340e-7
-1.270, -3.011e-7
-1.269, -2.804e-7
-1.268, -2.636e-7
-1.267, -3.218e-7
-1.266, -2.883e-7
-1.265, -3.307e-7
-1.264, -3.297e-7
-1.263, -2.972e-7
-1.262, -4.156e-7
-1.261, -3.485e-7
-1.260, -3.218e-7
-1.259, -3.623e-7
-1.258, -3.139e-7
-1.257, -4.136e-7
-1.256, -4.096e-7
-1.255, -4.294e-7
-1.254, -4.037e-7
-1.253, -3.731e-7
-1.252, -4.205e-7
-1.251, -4.363e-7
-1.250, -4.156e-7
-1.249, -4.540e-7
-1.248, -4.471e-7
-1.247, -4.570e-7
-1.246, -4.649e-7
-1.245, -4.600e-7
-1.244, -4.649e-7
-1.243, -4.965e-7
-1.242, -5.103e-7
-1.241, -5.270e-7
-1.240, -5.014e-7
-1.239, -4.895e-7
-1.238, -5.221e-7
-1.237, -4.984e-7
-1.236, -5.734e-7
-1.235, -5.892e-7
-1.234, -5.379e-7
-1.233, -5.566e-7
-1.232, -5.211e-7
-1.231, -5.389e-7
-1.230, -5.931e-7
-1.229, -5.547e-7
-1.228, -5.793e-7
-1.227, -6.020e-7
-1.226, -5.912e-7
-1.225, -6.267e-7
-1.224, -5.704e-7
-1.223, -6.208e-7
-1.222, -7.007e-7
-1.221, -6.543e-7
-1.220, -6.849e-7
-1.219, -6.257e-7
-1.218, -6.188e-7
-1.217, -6.642e-7
-1.216, -6.671e-7
-1.215, -7.303e-7
-1.214, -6.859e-7
-1.213, -6.533e-7
-1.212, -6.987e-7
-1.211, -6.592e-7
-1.210, -7.027e-7
-1.209, -7.086e-7
-1.208, -7.105e-7
-1.207, -7.766e-7
-1.206, -7.845e-7
-1.205, -7.441e-7
-1.204, -7.441e-7
-1.203, -7.747e-7
-1.202, -8.072e-7
-1.201, -8.437e-7
-1.200, -8.072e-7
-1.199, -7.678e-7
-1.198, -7.569e-7
-1.197, -8.082e-7
-1.196, -8.388e-7
-1.195, -8.891e-7
-1.194, -8.467e-7
-1.193, -8.704e-7
-1.192, -8.467e-7
-1.191, -8.635e-7
-1.190, -9.098e-7
-1.189, -8.891e-7
-1.188, -9.029e-7
-1.187, -9.365e-7
-1.186, -9.039e-7
-1.185, -9.325e-7
-1.184, -9.059e-7
-1.183, -9.384e-7
-1.182, -9.730e-7
-1.181, -9.848e-7
-1.180, -1.013e-6
-1.179, -9.779e-7
-1.178, -9.424e-7
-1.177, -1.010e-6
-1.176, -1.036e-6
-1.175, -1.067e-6
-1.174, -1.087e-6
-1.173, -1.033e-6
-1.172, -1.075e-6
-1.171, -1.017e-6
-1.170, -1.049e-6
-1.169, -1.067e-6
-1.168, -1.082e-6
-1.167, -1.188e-6
-1.166, -1.127e-6
-1.165, -1.121e-6
-1.164, -1.100e-6
-1.163, -1.104e-6
-1.162, -1.188e-6
-1.161, -1.180e-6
-1.160, -1.215e-6
-1.159, -1.235e-6
-1.158, -1.219e-6
-1.157, -1.229e-6
-1.156, -1.259e-6
-1.155, -1.250e-6
-1.154, -1.266e-6
-1.153, -1.299e-6
-1.152, -1.285e-6
-1.151, -1.346e-6
-1.150, -1.321e-6
-1.149, -1.316e-6
-1.148, -1.347e-6
-1.147, -1.355e-6
-1.146, -1.423e-6
-1.145, -1.394e-6
-1.144, -1.350e-6
-1.143, -1.362e-6
-1.142, -1.423e-6
-1.141, -1.463e-6
-1.140, -1.524e-6
-1.139, -1.466e-6
-1.138, -1.516e-6
-1.137, -1.506e-6
-1.136, -1.552e-6
-1.135, -1.562e-6
-1.134, -1.577e-6
-1.133, -1.590e-6
-1.132, -1.603e-6
-1.131, -1.558e-6
-1.130, -1.665e-6
-1.129, -1.631e-6
-1.128, -1.687e-6
-1.127, -1.753e-6
-1.126, -1.777e-6
-1.125, -1.775e-6
-1.124, -1.728e-6
-1.123, -1.757e-6
-1.122, -1.793e-6
-1.121, -1.856e-6
-1.120, -1.884e-6
-1.119, -1.893e-6
-1.118, -1.826e-6
-1.117, -1.903e-6
-1.116, -1.948e-6
-1.115, -1.949e-6
-1.114, -1.998e-6
-1.113, -2.005e-6
-1.112, -2.070e-6
-1.111, -2.048e-6
-1.110, -2.064e-6
-1.109, -2.080e-6
-1.108, -2.117e-6
-1.107, -2.170e-6
-1.106, -2.217e-6
-1.105, -2.222e-6
-1.104, -2.247e-6
-1.103, -2.218e-6
-1.102, -2.292e-6
-1.101, -2.402e-6
-1.100, -2.413e-6
-1.099, -2.411e-6
-1.098, -2.439e-6
-1.097, -2.462e-6
-1.096, -2.512e-6
-1.095, -2.531e-6
-1.094, -2.583e-6
-1.093, -2.601e-6
-1.092, -2.661e-6
-1.091, -2.752e-6
-1.090, -2.722e-6
-1.089, -2.745e-6
-1.088, -2.791e-6
-1.087, -2.852e-6
-1.086, -2.950e-6
-1.085, -2.981e-6
-1.084, -2.994e-6
-1.083, -3.024e-6
-1.082, -3.026e-6
-1.081, -3.120e-6
-1.080, -3.232e-6
-1.079, -3.211e-6
-1.078, -3.285e-6
-1.077, -3.298e-6
-1.076, -3.365e-6
-1.075, -3.436e-6
-1.074, -3.443e-6
-1.073, -3.545e-6
-1.072, -3.600e-6
-1.071, -3.677e-6
-1.070, -3.735e-6
-1.069, -3.746e-6
-1.068, -3.824e-6
-1.067, -3.950e-6
-1.066, -4.016e-6
-1.065, -4.077e-6
-1.064, -4.105e-6
-1.063, -4.163e-6
-1.062, -4.261e-6
-1.061, -4.301e-6
-1.060, -4.455e-6
-1.059, -4.531e-6
-1.058, -4.562e-6
-1.057, -4.688e-6
-1.056, -4.741e-6
-1.055, -4.793e-6
-1.054, -4.897e-6
-1.053, -4.955e-6
-1.052, -5.102e-6
-1.051, -5.205e-6
-1.050, -5.252e-6
-1.049, -5.332e-6
-1.048, -5.402e-6
-1.047, -5.555e-6
-1.046, -5.652e-6
-1.045, -5.743e-6
-1.044, -5.798e-6
-1.043, -5.910e-6
-1.042, -6.005e-6
-1.041, -6.147e-6
-1.040, -6.236e-6
-1.039, -6.396e-6
-1.038, -6.464e-6
-1.037, -6.540e-6
-1.036, -6.663e-6
-1.035, -6.752e-6
-1.034, -6.823e-6
-1.033, -6.999e-6
-1.032, -7.087e-6
-1.031, -7.251e-6
-1.030, -7.350e-6
-1.029, -7.375e-6
-1.028, -7.515e-6
-1.027, -7.591e-6
-1.026, -7.797e-6
-1.025, -7.929e-6
-1.024, -7.949e-6
-1.023, -8.033e-6
-1.022, -8.167e-6
-1.021, -8.306e-6
-1.020, -8.462e-6
-1.019, -8.450e-6
-1.018, -8.603e-6
-1.017, -8.690e-6
-1.016, -8.789e-6
-1.015, -8.840e-6
-1.014, -8.948e-6
-1.013, -9.028e-6
-1.012, -9.187e-6
-1.011, -9.238e-6
-1.010, -9.312e-6
-1.009, -9.368e-6
-1.008, -9.405e-6
-1.007, -9.510e-6
-1.006, -9.568e-6
-1.005, -9.652e-6
-1.004, -9.703e-6
-1.003, -9.746e-6
-1.002, -9.802e-6
-1.001, -9.822e-6
-1.000, -9.435e-6
-1.001, -8.836e-6
-1.002, -8.262e-6
-1.003, -7.856e-6
-1.004, -7.367e-6
-1.005, -6.958e-6
-1.006, -6.533e-6
-1.007, -6.195e-6
-1.008, -5.891e-6
-1.009, -5.634e-6
-1.010, -5.285e-6
-1.011, -5.007e-6
-1.012, -4.654e-6
-1.013, -4.475e-6
-1.014, -4.231e-6
-1.015, -4.025e-6
-1.016, -3.803e-6
-1.017, -3.620e-6
-1.018, -3.363e-6
-1.019, -3.273e-6
-1.020, -3.081e-6
-1.021, -2.924e-6
-1.022, -2.803e-6
-1.023, -2.613e-6
-1.024, -2.442e-6
-1.025, -2.333e-6
-1.026, -2.201e-6
-1.027, -2.090e-6
-1.028, -1.954e-6
-1.029, -1.916e-6
-1.030, -1.777e-6
-1.031, -1.612e-6
-1.032, -1.509e-6
-1.033, -1.450e-6
-1.034, -1.397e-6
-1.035, -1.308e-6
-1.036, -1.217e-6
-1.037, -1.127e-6
-1.038, -1.018e-6
-1.039, -9.306e-7
-1.040, -8.763e-7
-1.041, -8.585e-7
-1.042, -7.520e-7
-1.043, -7.204e-7
-1.044, -6.375e-7
-1.045, -6.040e-7
-1.046, -4.767e-7
-1.047, -3.919e-7
-1.048, -4.294e-7
-1.049, -3.958e-7
-1.050, -3.287e-7
-1.051, -2.794e-7
-1.052, -1.354e-7
-1.053, -1.166e-7
-1.054, -8.011e-8
-1.055, -3.078e-8
-1.056, -3.177e-8
-1.057, 6.196e-8
-1.058, 2.545e-8
-1.059, -1.973e-10
-1.060, 1.261e-7
-1.061, 1.360e-7
-1.062, 2.701e-7
-1.063, 3.135e-7
-1.064, 2.297e-7
-1.065, 3.145e-7
-1.066, 3.954e-7
-1.067, 3.856e-7
-1.068, 4.596e-7
-1.069, 3.905e-7
-1.070, 4.921e-7
-1.071, 5.819e-7
-1.072, 5.345e-7
-1.073, 6.184e-7
-1.074, 5.365e-7
-1.075, 6.214e-7
-1.076, 6.411e-7
-1.077, 6.973e-7
-1.078, 7.388e-7
-1.079, 7.417e-7
-1.080, 8.039e-7
-1.081, 7.930e-7
-1.082, 8.187e-7
-1.083, 8.009e-7
-1.084, 8.285e-7
-1.085, 8.364e-7
-1.086, 8.917e-7
-1.087, 9.519e-7
-1.088, 9.538e-7
-1.089, 9.775e-7
-1.090, 1.016e-6
-1.091, 1.018e-6
-1.092, 1.058e-6
-1.093, 1.017e-6
-1.094, 1.098e-6
-1.095, 1.122e-6
-1.096, 1.122e-6
-1.097, 1.161e-6
-1.098, 1.151e-6
-1.099, 1.192e-6
-1.100, 1.207e-6
-1.101, 1.202e-6
-1.102, 1.259e-6
-1.103, 1.194e-6
-1.104, 1.234e-6
-1.105, 1.274e-6
-1.106, 1.353e-6
-1.107, 1.358e-6
-1.108, 1.305e-6
-1.109, 1.304e-6
-1.110, 1.343e-6
-1.111, 1.395e-6
-1.112, 1.364e-6
-1.113, 1.419e-6
-1.114, 1.430e-6
-1.115, 1.473e-6
-1.116, 1.535e-6
-1.117, 1.494e-6
-1.118, 1.487e-6
-1.119, 1.456e-6
-1.120, 1.509e-6
-1.121, 1.558e-6
-1.122, 1.614e-6
-1.123, 1.612e-6
-1.124, 1.553e-6
-1.125, 1.505e-6
-1.126, 1.631e-6
-1.127, 1.702e-6
-1.128, 1.662e-6
-1.129, 1.659e-6
-1.130, 1.708e-6
-1.131, 1.669e-6
-1.132, 1.682e-6
-1.133, 1.632e-6
-1.134, 1.757e-6
-1.135, 1.727e-6
-1.136, 1.751e-6
-1.137, 1.775e-6
-1.138, 1.703e-6
-1.139, 1.766e-6
-1.140, 1.753e-6
-1.141, 1.809e-6
-1.142, 1.847e-6
-1.143, 1.864e-6
-1.144, 1.816e-6
-1.145, 1.810e-6
-1.146, 1.863e-6
-1.147, 1.893e-6
-1.148, 1.938e-6
-1.149, 1.888e-6
-1.150, 1.923e-6
-1.151, 1.924e-6
-1.152, 1.944e-6
-1.153, 1.940e-6
-1.154, 1.900e-6
-1.155, 1.964e-6
-1.156, 1.976e-6
-1.157, 2.005e-6
-1.158, 2.054e-6
-1.159, 1.959e-6
-1.160, 1.994e-6
-1.161, 2.032e-6
-1.162, 2.051e-6
-1.163, 2.098e-6
-1.164, 2.023e-6
-1.165, 2.050e-6
-1.166, 2.066e-6
-1.167, 2.091e-6
-1.168, 2.100e-6
-1.169, 2.111e-6
-1.170, 2.141e-6
-1.171, 2.167e-6
-1.172, 2.128e-6
-1.173, 2.090e-6
-1.174, 2.113e-6
-1.175, 2.175e-6
-1.176, 2.165e-6
-1.177, 2.255e-6
-1.178, 2.222e-6
-1.179, 2.173e-6
-1.180, 2.187e-6
-1.181, 2.225e-6
-1.182, 2.224e-6
-1.183, 2.264e-6
-1.184, 2.239e-6
-1.185, 2.289e-6
-1.186, 2.311e-6
-1.187, 2.208e-6
-1.188, 2.269e-6
-1.189, 2.215e-6
-1.190, 2.321e-6
-1.191, 2.344e-6
-1.192, 2.368e-6
-1.193, 2.324e-6
-1.194, 2.314e-6
-1.195, 2.312e-6
-1.196, 2.292e-6
-1.197, 2.322e-6
-1.198, 2.378e-6
-1.199, 2.398e-6
-1.200, 2.321e-6
-1.201, 2.367e-6
-1.202, 2.370e-6
-1.203, 2.380e-6
-1.204, 2.453e-6
-1.205, 2.386e-6
-1.206, 2.466e-6
-1.207, 2.471e-6
-1.208, 2.384e-6
-1.209, 2.408e-6
-1.210, 2.380e-6
-1.211, 2.445e-6
-1.212, 2.472e-6
-1.213, 2.481e-6
-1.214, 2.476e-6
-1.215, 2.486e-6
-1.216, 2.469e-6
-1.217, 2.539e-6
-1.218, 2.489e-6
-1.219, 2.455e-6
-1.220, 2.535e-6
-1.221, 2.576e-6
-1.222, 2.645e-6
-1.223, 2.563e-6
-1.224, 2.467e-6
-1.225, 2.540e-6
-1.226, 2.565e-6
-1.227, 2.578e-6
-1.228, 2.584e-6
-1.229, 2.623e-6
-1.230, 2.658e-6
-1.231, 2.613e-6
-1.232, 2.576e-6
-1.233, 2.622e-6
-1.234, 2.618e-6
-1.235, 2.645e-6
-1.236, 2.728e-6
-1.237, 2.674e-6
-1.238, 2.708e-6
-1.239, 2.674e-6
-1.240, 2.600e-6
-1.241, 2.705e-6
-1.242, 2.698e-6
-1.243, 2.687e-6
-1.244, 2.703e-6
-1.245, 2.720e-6
-1.246, 2.749e-6
-1.247, 2.734e-6
-1.248, 2.738e-6
-1.249, 2.773e-6
-1.250, 2.748e-6
-1.251, 2.773e-6
-1.252, 2.848e-6
-1.253, 2.764e-6
-1.254, 2.780e-6
-1.255, 2.788e-6
-1.256, 2.761e-6
-1.257, 2.848e-6
-1.258, 2.804e-6
-1.259, 2.819e-6
-1.260, 2.884e-6
-1.261, 2.825e-6
-1.262, 2.879e-6
-1.263, 2.800e-6
-1.264, 2.835e-6
-1.265, 2.869e-6
-1.266, 2.879e-6
-1.267, 2.940e-6
-1.268, 2.921e-6
-1.269, 2.842e-6
-1.270, 2.892e-6
-1.271, 2.926e-6
-1.272, 2.910e-6
-1.273, 2.994e-6
-1.274, 2.921e-6
-1.275, 3.003e-6
-1.276, 3.034e-6
-1.277, 2.949e-6
-1.278, 3.039e-6
-1.279, 2.962e-6
-1.280, 2.966e-6
-1.281, 3.043e-6
-1.282, 3.027e-6
-1.283, 3.050e-6
-1.284, 3.031e-6
-1.285, 3.034e-6
-1.286, 3.036e-6
-1.287, 3.076e-6
-1.288, 3.075e-6
-1.289, 3.112e-6
-1.290, 3.123e-6
-1.291, 3.107e-6
-1.292, 3.097e-6
-1.293, 3.073e-6
-1.294, 3.177e-6
-1.295, 3.139e-6
-1.296, 3.203e-6
-1.297, 3.196e-6
-1.298, 3.181e-6
-1.299, 3.206e-6
-1.300, 3.192e-6
-1.301, 3.211e-6
-1.302, 3.283e-6
-1.303, 3.201e-6
-1.304, 3.292e-6
-1.305, 3.260e-6
-1.306, 3.245e-6
-1.307, 3.312e-6
-1.308, 3.327e-6
-1.309, 3.298e-6
-1.310, 3.355e-6
-1.311, 3.316e-6
-1.312, 3.334e-6
-1.313, 3.354e-6
-1.314, 3.372e-6
-1.315, 3.380e-6
-1.316, 3.382e-6
-1.317, 3.389e-6
-1.318, 3.463e-6
-1.319, 3.423e-6
-1.320, 3.427e-6
-1.321, 3.470e-6
-1.322, 3.475e-6
-1.323, 3.501e-6
-1.324, 3.491e-6
-1.325, 3.520e-6
-1.326, 3.569e-6
-1.327, 3.476e-6
-1.328, 3.518e-6
-1.329, 3.518e-6
-1.330, 3.584e-6
-1.331, 3.596e-6
-1.332, 3.584e-6
-1.333, 3.586e-6
-1.334, 3.593e-6
-1.335, 3.620e-6
-1.336, 3.728e-6
-1.337, 3.654e-6
-1.338, 3.637e-6
-1.339, 3.653e-6
-1.340, 3.650e-6
-1.341, 3.725e-6
-1.342, 3.773e-6
-1.343, 3.710e-6
-1.344, 3.743e-6
-1.345, 3.740e-6
-1.346, 3.806e-6
-1.347, 3.823e-6
-1.348, 3.722e-6
-1.349, 3.858e-6
-1.350, 3.841e-6
-1.351, 3.830e-6
-1.352, 3.873e-6
-1.353, 3.781e-6
-1.354, 3.928e-6
-1.355, 3.908e-6
-1.356, 3.903e-6
-1.357, 3.909e-6
-1.358, 3.912e-6
-1.359, 3.933e-6
-1.360, 3.968e-6
-1.361, 3.977e-6
-1.362, 4.028e-6
-1.363, 4.014e-6
-1.364, 3.976e-6
-1.365, 4.024e-6
-1.366, 4.024e-6
-1.367, 4.073e-6
-1.368, 4.068e-6
-1.369, 4.014e-6
-1.370, 4.075e-6
-1.371, 4.144e-6
-1.372, 4.126e-6
-1.373, 4.127e-6
-1.374, 4.091e-6
-1.375, 4.144e-6
-1.376, 4.157e-6
-1.377, 4.173e-6
-1.378, 4.269e-6
-1.379, 4.191e-6
-1.380, 4.144e-6
-1.381, 4.250e-6
-1.382, 4.263e-6
-1.383, 4.265e-6
-1.384, 4.255e-6
-1.385, 4.282e-6
-1.386, 4.377e-6
-1.387, 4.340e-6
-1.388, 4.332e-6
-1.389, 4.345e-6
-1.390, 4.381e-6
-1.391, 4.369e-6
-1.392, 4.422e-6
-1.393, 4.405e-6
-1.394, 4.446e-6
-1.395, 4.400e-6
-1.396, 4.435e-6
-1.397, 4.529e-6
-1.398, 4.436e-6
-1.399, 4.461e-6
-1.400, 4.501e-6
-1.401, 4.555e-6
-1.402, 4.568e-6
-1.403, 4.507e-6
-1.404, 4.590e-6
-1.405, 4.568e-6
-1.406, 4.556e-6
-1.407, 4.655e-6
-1.408, 4.634e-6
-1.409, 4.633e-6
-1.410, 4.611e-6
-1.411, 4.659e-6
-1.412, 4.767e-6
-1.413, 4.659e-6
-1.414, 4.667e-6
-1.415, 4.766e-6
-1.416, 4.722e-6
-1.417, 4.785e-6
-1.418, 4.776e-6
-1.419, 4.777e-6
-1.420, 4.812e-6
-1.421, 4.802e-6
-1.422, 4.866e-6
-1.423, 4.901e-6
-1.424, 4.864e-6
-1.425, 4.838e-6
-1.426, 4.940e-6
-1.427, 4.964e-6
-1.428, 4.967e-6
-1.429, 4.932e-6
-1.430, 4.975e-6
-1.431, 5.005e-6
-1.432, 4.976e-6
-1.433, 5.091e-6
-1.434, 5.053e-6
-1.435, 5.040e-6
-1.436, 5.117e-6
-1.437, 5.149e-6
-1.438, 5.149e-6
-1.439, 5.144e-6
-1.440, 5.135e-6
-1.441, 5.193e-6
-1.442, 5.191e-6
-1.443, 5.199e-6
-1.444, 5.211e-6
-1.445, 5.224e-6
-1.446, 5.355e-6
-1.447, 5.321e-6
-1.448, 5.281e-6
-1.449, 5.357e-6
-1.450, 5.332e-6
-1.451, 5.382e-6
-1.452, 5.436e-6
-1.453, 5.423e-6
-1.454, 5.443e-6
-1.455, 5.450e-6
-1.456, 5.467e-6
-1.457, 5.577e-6
-1.458, 5.512e-6
-1.459, 5.520e-6
-1.460, 5.600e-6
-1.461, 5.592e-6
-1.462, 5.656e-6
-1.463, 5.664e-6
-1.464, 5.661e-6
-1.465, 5.657e-6
-1.466, 5.689e-6
-1.467, 5.714e-6
-1.468, 5.774e-6
-1.469, 5.762e-6
-1.470, 5.772e-6
-1.471, 5.819e-6
-1.472, 5.845e-6
-1.473, 5.862e-6
-1.474, 5.845e-6
-1.475, 5.877e-6
-1.476, 5.955e-6
-1.477, 5.964e-6
-1.478, 5.978e-6
-1.479, 5.959e-6
-1.480, 6.001e-6
-1.481, 6.062e-6
-1.482, 6.136e-6
-1.483, 6.127e-6
-1.484, 6.108e-6
-1.485, 6.124e-6
-1.486, 6.205e-6
-1.487, 6.267e-6
-1.488, 6.238e-6
-1.489, 6.224e-6
-1.490, 6.262e-6
-1.491, 6.290e-6
-1.492, 6.382e-6
-1.493, 6.332e-6
-1.494, 6.362e-6
-1.495, 6.472e-6
-1.496, 6.464e-6
-1.497, 6.512e-6
-1.498, 6.508e-6
-1.499, 6.517e-6
-1.500, 6.581e-6
-1.501, 6.603e-6
-1.502, 6.557e-6
-1.503, 6.651e-6
-1.504, 6.646e-6
-1.505, 6.707e-6
-1.506, 6.722e-6
-1.507, 6.771e-6
-1.508, 6.818e-6
-1.509, 6.840e-6
-1.510, 6.856e-6
-1.511, 6.896e-6
-1.512, 6.924e-6
-1.513, 6.967e-6
-1.514, 6.944e-6
-1.515, 6.937e-6
-1.516, 7.054e-6
-1.517, 7.082e-6
-1.518, 7.115e-6
-1.519, 7.113e-6
-1.520, 7.149e-6
-1.521, 7.211e-6
-1.522, 7.214e-6
-1.523, 7.299e-6
-1.524, 7.255e-6
-1.525, 7.273e-6
-1.526, 7.379e-6
-1.527, 7.418e-6
-1.528, 7.475e-6
-1.529, 7.449e-6
-1.530, 7.485e-6
-1.531, 7.512e-6
-1.532, 7.609e-6
-1.533, 7.620e-6
-1.534, 7.647e-6
-1.535, 7.643e-6
-1.536, 7.696e-6
-1.537, 7.805e-6
-1.538, 7.775e-6
-1.539, 7.836e-6
-1.540, 7.869e-6
-1.541, 7.872e-6
-1.542, 8.002e-6
-1.543, 8.012e-6
-1.544, 7.998e-6
-1.545, 8.075e-6
-1.546, 8.098e-6
-1.547, 8.164e-6
-1.548, 8.201e-6
-1.549, 8.217e-6
-1.550, 8.284e-6
-1.551, 8.294e-6
-1.552, 8.374e-6
-1.553, 8.422e-6
-1.554, 8.405e-6
-1.555, 8.447e-6
-1.556, 8.555e-6
-1.557, 8.566e-6
-1.558, 8.633e-6
-1.559, 8.629e-6
-1.560, 8.685e-6
-1.561, 8.757e-6
-1.562, 8.785e-6
-1.563, 8.809e-6
-1.564, 8.892e-6
-1.565, 8.880e-6
-1.566, 9.023e-6
-1.567, 9.024e-6
-1.568, 9.088e-6
-1.569, 9.115e-6
-1.570, 9.110e-6
-1.571, 9.222e-6
-1.572, 9.276e-6
-1.573, 9.311e-6
-1.574, 9.365e-6
-1.575, 9.421e-6
-1.576, 9.499e-6
-1.577, 9.571e-6
-1.578, 9.604e-6
-1.579, 9.641e-6
-1.580, 9.670e-6
-1.581, 9.727e-6
-1.582, 9.858e-6
-1.583, 9.900e-6
-1.584, 9.887e-6
-1.585, 9.964e-6
-1.586, 1.001e-5
-1.587, 1.016e-5
-1.588, 1.022e-5
-1.589, 1.023e-5
-1.590, 1.030e-5
-1.591, 1.040e-5
-1.592, 1.047e-5
-1.593, 1.054e-5
-1.594, 1.054e-5
-1.595, 1.060e-5
-1.596, 1.071e-5
-1.597, 1.079e-5
-1.598, 1.087e-5
-1.599, 1.085e-5
-1.600, 1.099e-5
-1.601, 1.108e-5
-1.602, 1.115e-5
-1.603, 1.123e-5
-1.604, 1.126e-5
-1.605, 1.129e-5
-1.606, 1.141e-5
-1.607, 1.152e-5
-1.608, 1.166e-5
-1.609, 1.169e-5
-1.610, 1.169e-5
-1.611, 1.186e-5
-1.612, 1.196e-5
-1.613, 1.200e-5
-1.614, 1.211e-5
-1.615, 1.215e-5
-1.616, 1.228e-5
-1.617, 1.242e-5
-1.618, 1.246e-5
-1.619, 1.261e-5
-1.620, 1.264e-5
-1.621, 1.277e-5
-1.622, 1.295e-5
-1.623, 1.298e-5
-1.624, 1.306e-5
-1.625, 1.313e-5
-1.626, 1.324e-5
-1.627, 1.341e-5
-1.628, 1.353e-5
-1.629, 1.355e-5
-1.630, 1.366e-5
-1.631, 1.375e-5
-1.632, 1.392e-5
-1.633, 1.406e-5
-1.634, 1.410e-5
-1.635, 1.423e-5
-1.636, 1.437e-5
-1.637, 1.453e-5
-1.638, 1.464e-5
-1.639, 1.470e-5
-1.640, 1.485e-5
-1.641, 1.505e-5
-1.642, 1.517e-5
-1.643, 1.535e-5
-1.644, 1.541e-5
-1.645, 1.553e-5
-1.646, 1.578e-5
-1.647, 1.589e-5
-1.648, 1.606e-5
-1.649, 1.618e-5
-1.650, 1.625e-5
-1.651, 1.649e-5
-1.652, 1.662e-5
-1.653, 1.683e-5
-1.654, 1.694e-5
-1.655, 1.706e-5
-1.656, 1.728e-5
-1.657, 1.746e-5
-1.658, 1.761e-5
-1.659, 1.775e-5
-1.660, 1.792e-5
-1.661, 1.815e-5
-1.662, 1.837e-5
-1.663, 1.857e-5
-1.664, 1.876e-5
-1.665, 1.894e-5
-1.666, 1.926e-5
-1.667, 1.948e-5
-1.668, 1.968e-5
-1.669, 1.992e-5
-1.670, 2.008e-5
-1.671, 2.037e-5
-1.672, 2.067e-5
-1.673, 2.084e-5
-1.674, 2.109e-5
-1.675, 2.130e-5
-1.676, 2.162e-5
-1.677, 2.199e-5
-1.678, 2.221e-5
-1.679, 2.247e-5
-1.680, 2.271e-5
-1.681, 2.302e-5
-1.682, 2.340e-5
-1.683, 2.373e-5
-1.684, 2.398e-5
-1.685, 2.434e-5
-1.686, 2.464e-5
-1.687, 2.509e-5
-1.688, 2.543e-5
-1.689, 2.580e-5
-1.690, 2.620e-5
-1.691, 2.667e-5
-1.692, 2.707e-5
-1.693, 2.752e-5
-1.694, 2.787e-5
-1.695, 2.828e-5
-1.696, 2.887e-5
-1.697, 2.938e-5
-1.698, 2.983e-5
-1.699, 3.036e-5
-1.700, 3.082e-5
-1.701, 3.143e-5
-1.702, 3.208e-5
-1.703, 3.268e-5
-1.704, 3.327e-5
-1.705, 3.385e-5
-1.706, 3.460e-5
-1.707, 3.531e-5
-1.708, 3.599e-5
-1.709, 3.671e-5
-1.710, 3.742e-5
-1.711, 3.825e-5
-1.712, 3.916e-5
-1.713, 4.002e-5
-1.714, 4.088e-5
-1.715, 4.183e-5
-1.716, 4.281e-5
-1.717, 4.388e-5
-1.718, 4.494e-5
-1.719, 4.600e-5
-1.720, 4.712e-5
-1.721, 4.836e-5
-1.722, 4.965e-5
-1.723, 5.097e-5
-1.724, 5.223e-5
-1.725, 5.364e-5
-1.726, 5.512e-5
-1.727, 5.674e-5
-1.728, 5.835e-5
-1.729, 6.001e-5
-1.730, 6.170e-5
-1.731, 6.356e-5
-1.732, 6.549e-5
-1.733, 6.756e-5
-1.734, 6.956e-5
-1.735, 7.168e-5
-1.736, 7.403e-5
-1.737, 7.646e-5
-1.738, 7.898e-5
-1.739, 8.154e-5
-1.740, 8.416e-5
-1.741, 8.704e-5
-1.742, 9.015e-5
-1.743, 9.323e-5
-1.744, 9.647e-5
-1.745, 9.976e-5
-1.746, 1.034e-4
-1.747, 1.072e-4
-1.748, 1.112e-4
-1.749, 1.152e-4
-1.750, 1.194e-4
-1.751, 1.239e-4
-1.752, 1.287e-4
-1.753, 1.335e-4
-1.754, 1.386e-4
-1.755, 1.439e-4
-1.756, 1.495e-4
-1.757, 1.554e-4
-1.758, 1.617e-4
-1.759, 1.680e-4
-1.760, 1.746e-4
-1.761, 1.816e-4
-1.762, 1.889e-4
-1.763, 1.966e-4
-1.764, 2.046e-4
-1.765, 2.128e-4
-1.766, 2.216e-4
-1.767, 2.307e-4
-1.768, 2.403e-4
-1.769, 2.501e-4
-1.770, 2.604e-4
-1.771, 2.711e-4
-1.772, 2.825e-4
-1.773, 2.943e-4
-1.774, 3.065e-4
-1.775, 3.191e-4
-1.776, 3.324e-4
-1.777, 3.464e-4
-1.778, 3.610e-4
-1.779, 3.759e-4
-1.780, 3.914e-4
-1.781, 4.077e-4
-1.782, 4.247e-4
-1.783, 4.423e-4
-1.784, 4.604e-4
-1.785, 4.793e-4
-1.786, 4.991e-4
-1.787, 5.199e-4
-1.788, 5.415e-4
-1.789, 5.637e-4
-1.790, 5.865e-4
-1.791, 6.105e-4
-1.792, 6.356e-4
-1.793, 6.614e-4
-1.794, 6.878e-4
-1.795, 7.151e-4
-1.796, 7.434e-4
-1.797, 7.732e-4
-1.798, 8.040e-4
-1.799, 8.355e-4
-1.800, 8.540e-4
-1.799, 8.545e-4
-1.798, 8.530e-4
-1.797, 8.498e-4
-1.796, 8.445e-4
-1.795, 8.379e-4
-1.794, 8.307e-4
-1.793, 8.229e-4
-1.792, 8.146e-4
-1.791, 8.054e-4
-1.790, 7.955e-4
-1.789, 7.854e-4
-1.788, 7.749e-4
-1.787, 7.645e-4
-1.786, 7.536e-4
-1.785, 7.421e-4
-1.784, 7.308e-4
-1.783, 7.195e-4
-1.782, 7.080e-4
-1.781, 6.963e-4
-1.780, 6.842e-4
-1.779, 6.723e-4
-1.778, 6.606e-4
-1.777, 6.487e-4
-1.776, 6.368e-4
-1.775, 6.247e-4
-1.774, 6.128e-4
-1.773, 6.014e-4
-1.772, 5.898e-4
-1.771, 5.779e-4
-1.770, 5.661e-4
-1.769, 5.546e-4
-1.768, 5.438e-4
-1.767, 5.328e-4
-1.766, 5.218e-4
-1.765, 5.108e-4
-1.764, 4.999e-4
-1.763, 4.892e-4
-1.762, 4.788e-4
-1.761, 4.683e-4
-1.760, 4.581e-4
-1.759, 4.483e-4
-1.758, 4.387e-4
-1.757, 4.293e-4
-1.756, 4.198e-4
-1.755, 4.103e-4
-1.754, 4.011e-4
-1.753, 3.921e-4
-1.752, 3.833e-4
-1.751, 3.745e-4
-1.750, 3.658e-4
-1.749, 3.575e-4
-1.748, 3.495e-4
-1.747, 3.416e-4
-1.746, 3.335e-4
-1.745, 3.255e-4
-1.744, 3.180e-4
-1.743, 3.107e-4
-1.742, 3.035e-4
-1.741, 2.964e-4
-1.740, 2.893e-4
-1.739, 2.825e-4
-1.738, 2.760e-4
-1.737, 2.695e-4
-1.736, 2.631e-4
-1.735, 2.568e-4
-1.734, 2.506e-4
-1.733, 2.448e-4
-1.732, 2.391e-4
-1.731, 2.333e-4
-1.730, 2.275e-4
-1.729, 2.220e-4
-1.728, 2.167e-4
-1.727, 2.114e-4
-1.726, 2.062e-4
-1.725, 2.012e-4
-1.724, 1.965e-4
-1.723, 1.918e-4
-1.722, 1.873e-4
-1.721, 1.827e-4
-1.720, 1.782e-4
-1.719, 1.740e-4
-1.718, 1.699e-4
-1.717, 1.659e-4
-1.716, 1.619e-4
-1.715, 1.579e-4
-1.714, 1.542e-4
-1.713, 1.506e-4
-1.712, 1.471e-4
-1.711, 1.435e-4
-1.710, 1.400e-4
-1.709, 1.367e-4
-1.708, 1.335e-4
-1.707, 1.304e-4
-1.706, 1.273e-4
-1.705, 1.243e-4
-1.704, 1.213e-4
-1.703, 1.185e-4
-1.702, 1.157e-4
-1.701, 1.130e-4
-1.700, 1.103e-4
-1.699, 1.077e-4
-1.698, 1.053e-4
-1.697, 1.029e-4
-1.696, 1.004e-4
-1.695, 9.803e-5
-1.694, 9.577e-5
-1.693, 9.367e-5
-1.692, 9.152e-5
-1.691, 8.938e-5
-1.690, 8.722e-5
-1.689, 8.530e-5
-1.688, 8.338e-5
-1.687, 8.149e-5
-1.686, 7.964e-5
-1.685, 7.776e-5
-1.684, 7.606e-5
-1.683, 7.444e-5
-1.682, 7.269e-5
-1.681, 7.110e-5
-1.680, 6.941e-5
-1.679, 6.793e-5
-1.678, 6.647e-5
-1.677, 6.496e-5
-1.676, 6.352e-5
-1.675, 6.206e-5
-1.674, 6.070e-5
-1.673, 5.948e-5
-1.672, 5.814e-5
-1.671, 5.685e-5
-1.670, 5.559e-5
-1.669, 5.438e-5
-1.668, 5.326e-5
-1.667, 5.215e-5
-1.666, 5.097e-5
-1.665, 4.990e-5
-1.664, 4.883e-5
-1.663, 4.786e-5
-1.662, 4.688e-5
-1.661, 4.583e-5
-1.660, 4.481e-5
-1.659, 4.398e-5
-1.658, 4.308e-5
-1.657, 4.227e-5
-1.656, 4.131e-5
-1.655, 4.043e-5
-1.654, 3.963e-5
-1.653, 3.888e-5
-1.652, 3.809e-5
-1.651, 3.732e-5
-1.650, 3.647e-5
-1.649, 3.581e-5
-1.648, 3.515e-5
-1.647, 3.445e-5
-1.646, 3.379e-5
-1.645, 3.304e-5
-1.644, 3.243e-5
-1.643, 3.188e-5
-1.642, 3.123e-5
-1.641, 3.061e-5
-1.640, 3.004e-5
-1.639, 2.943e-5
-1.638, 2.893e-5
-1.637, 2.841e-5
-1.636, 2.781e-5
-1.635, 2.730e-5
-1.634, 2.679e-5
-1.633, 2.635e-5
-1.632, 2.591e-5
-1.631, 2.536e-5
-1.630, 2.492e-5
-1.629, 2.445e-5
-1.628, 2.406e-5
-1.627, 2.366e-5
-1.626, 2.323e-5
-1.625, 2.280e-5
-1.624, 2.240e-5
-1.623, 2.204e-5
-1.622, 2.168e-5
-1.621, 2.129e-5
-1.620, 2.090e-5
-1.619, 2.056e-5
-1.618, 2.029e-5
-1.617, 1.992e-5
-1.616, 1.958e-5
-1.615, 1.917e-5
-1.614, 1.894e-5
-1.613, 1.868e-5
-1.612, 1.832e-5
-1.611, 1.806e-5
-1.610, 1.771e-5
-1.609, 1.741e-5
-1.608, 1.725e-5
-1.607, 1.695e-5
-1.606, 1.666e-5
-1.605, 1.638e-5
-1.604, 1.610e-5
-1.603, 1.593e-5
-1.602, 1.567e-5
-1.601, 1.545e-5
-1.600, 1.516e-5
-1.599, 1.495e-5
-1.598, 1.477e-5
-1.597, 1.456e-5
-1.596, 1.429e-5
-1.595, 1.413e-5
-1.594, 1.393e-5
-1.593, 1.374e-5
-1.592, 1.355e-5
-1.591, 1.325e-5
-1.590, 1.311e-5
-1.589, 1.292e-5
-1.588, 1.277e-5
-1.587, 1.258e-5
-1.586, 1.241e-5
-1.585, 1.221e-5
-1.584, 1.203e-5
-1.583, 1.190e-5
-1.582, 1.176e-5
-1.581, 1.156e-5
-1.580, 1.139e-5
-1.579, 1.127e-5
-1.578, 1.113e-5
-1.577, 1.097e-5
-1.576, 1.086e-5
-1.575, 1.064e-5
-1.574, 1.054e-5
-1.573, 1.041e-5
-1.572, 1.028e-5
-1.571, 1.012e-5
-1.570, 9.952e-6
-1.569, 9.828e-6
-1.568, 9.781e-6
-1.567, 9.665e-6
-1.566, 9.513e-6
-1.565, 9.347e-6
-1.564, 9.234e-6
-1.563, 9.187e-6
-1.562, 9.058e-6
-1.561, 8.913e-6
-1.560, 8.790e-6
-1.559, 8.721e-6
-1.558, 8.646e-6
-1.557, 8.489e-6
-1.556, 8.343e-6
-1.555, 8.274e-6
-1.554, 8.153e-6
-1.553, 8.113e-6
-1.552, 7.992e-6
-1.551, 7.856e-6
-1.550, 7.750e-6
-1.549, 7.655e-6
-1.548, 7.625e-6
-1.547, 7.552e-6
-1.546, 7.403e-6
-1.545, 7.355e-6
-1.544, 7.224e-6
-1.543, 7.157e-6
-1.542, 7.123e-6
-1.541, 6.964e-6
-1.540, 6.845e-6
-1.539, 6.859e-6
-1.538, 6.758e-6
-1.537, 6.718e-6
-1.536, 6.602e-6
-1.535, 6.503e-6
-1.534, 6.484e-6
-1.533, 6.408e-6
-1.532, 6.325e-6
-1.531, 6.231e-6
-1.530, 6.086e-6
-1.529, 6.048e-6
-1.528, 6.034e-6
-1.527, 5.921e-6
-1.526, 5.896e-6
-1.525, 5.816e-6
-1.524, 5.731e-6
-1.523, 5.688e-6
-1.522, 5.658e-6
-1.521, 5.542e-6
-1.520, 5.507e-6
-1.519, 5.413e-6
-1.518, 5.356e-6
-1.517, 5.343e-6
-1.516, 5.212e-6
-1.515, 5.220e-6
-1.514, 5.132e-6
-1.513, 5.099e-6
-1.512, 5.071e-6
-1.511, 4.943e-6
-1.510, 4.870e-6
-1.509, 4.873e-6
-1.508, 4.826e-6
-1.507, 4.788e-6
-1.506, 4.701e-6
-1.505, 4.591e-6
-1.504, 4.593e-6
-1.503, 4.570e-6
-1.502, 4.524e-6
-1.501, 4.493e-6
-1.500, 4.389e-6
-1.499, 4.349e-6
-1.498, 4.333e-6
-1.497, 4.259e-6
-1.496, 4.257e-6
-1.495, 4.169e-6
-1.494, 4.135e-6
-1.493, 4.131e-6
-1.492, 4.057e-6
-1.491, 3.981e-6
-1.490, 3.975e-6
-1.489, 3.874e-6
-1.488, 3.932e-6
-1.487, 3.871e-6
-1.486, 3.785e-6
-1.485, 3.773e-6
-1.484, 3.697e-6
-1.483, 3.673e-6
-1.482, 3.666e-6
-1.481, 3.608e-6
-1.480, 3.567e-6
-1.479, 3.550e-6
-1.478, 3.469e-6
-1.477, 3.515e-6
-1.476, 3.432e-6
-1.475, 3.352e-6
-1.474, 3.410e-6
-1.473, 3.351e-6
-1.472, 3.269e-6
-1.471, 3.259e-6
-1.470, 3.166e-6
-1.469, 3.127e-6
-1.468, 3.205e-6
-1.467, 3.172e-6
-1.466, 3.134e-6
-1.465, 3.057e-6
-1.464, 2.968e-6
-1.463, 2.981e-6
-1.462, 2.975e-6
-1.461, 2.961e-6
-1.460, 2.894e-6
-1.459, 2.824e-6
-1.458, 2.839e-6
-1.457, 2.834e-6
-1.456, 2.752e-6
-1.455, 2.766e-6
-1.454, 2.742e-6
-1.453, 2.720e-6
-1.452, 2.704e-6
-1.451, 2.593e-6
-1.450, 2.613e-6
-1.449, 2.580e-6
-1.448, 2.598e-6
-1.447, 2.623e-6
-1.446, 2.522e-6
-1.445, 2.476e-6
-1.444, 2.488e-6
-1.443, 2.416e-6
-1.442, 2.447e-6
-1.441, 2.421e-6
-1.440, 2.332e-6
-1.439, 2.319e-6
-1.438, 2.348e-6
-1.437, 2.285e-6
-1.436, 2.277e-6
-1.435, 2.207e-6
-1.434, 2.212e-6
-1.433, 2.184e-6
-1.432, 2.163e-6
-1.431, 2.136e-6
-1.430, 2.079e-6
-1.429, 2.057e-6
-1.428, 2.129e-6
-1.427, 2.059e-6
-1.426, 2.041e-6
-1.425, 2.001e-6
-1.424, 1.929e-6
-1.423, 1.957e-6
-1.422, 1.979e-6
-1.421, 1.925e-6
-1.420, 1.929e-6
-1.419, 1.863e-6
-1.418, 1.850e-6
-1.417, 1.822e-6
-1.416, 1.776e-6
-1.415, 1.770e-6
-1.414, 1.779e-6
-1.413, 1.781e-6
-1.412, 1.792e-6
-1.411, 1.727e-6
-1.410, 1.680e-6
-1.409, 1.689e-6
-1.408, 1.654e-6
-1.407, 1.698e-6
-1.406, 1.627e-6
-1.405, 1.584e-6
-1.404, 1.572e-6
-1.403, 1.566e-6
-1.402, 1.566e-6
-1.401, 1.529e-6
-1.400, 1.524e-6
-1.399, 1.478e-6
-1.398, 1.497e-6
-1.397, 1.485e-6
-1.396, 1.462e-6
-1.395, 1.420e-6
-1.394, 1.394e-6
-1.393, 1.437e-6
-1.392, 1.396e-6
-1.391, 1.353e-6
-1.390, 1.307e-6
-1.389, 1.291e-6
-1.388, 1.363e-6
-1.387, 1.337e-6
-1.386, 1.260e-6
-1.385, 1.286e-6
-1.384, 1.225e-6
-1.383, 1.241e-6
-1.382, 1.204e-6
-1.381, 1.162e-6
-1.380, 1.190e-6
-1.379, 1.156e-6
-1.378, 1.126e-6
-1.377, 1.154e-6
-1.376, 1.115e-6
-1.375, 1.060e-6
-1.374, 1.128e-6
-1.373, 1.099e-6
-1.372, 1.100e-6
-1.371, 1.040e-6
-1.370, 9.617e-7
-1.369, 9.844e-7
-1.368, 1.041e-6
-1.367, 9.578e-7
-1.366, 9.884e-7
-1.365, 9.134e-7
-1.364, 8.877e-7
-1.363, 9.519e-7
-1.362, 8.877e-7
-1.361, 9.085e-7
-1.360, 8.700e-7
-1.359, 8.354e-7
-1.358, 8.562e-7
-1.357, 8.059e-7
-1.356, 7.920e-7
-1.355, 7.871e-7
-1.354, 7.664e-7
-1.353, 8.098e-7
-1.352, 8.177e-7
-1.351, 6.855e-7
-1.350, 7.092e-7
-1.349, 6.796e-7
-1.348, 6.776e-7
-1.347, 7.279e-7
-1.346, 6.628e-7
-1.345, 6.510e-7
-1.344, 6.332e-7
-1.343, 5.947e-7
-1.342, 6.371e-7
-1.341, 5.918e-7
-1.340, 5.543e-7
-1.339, 5.898e-7
-1.338, 5.464e-7
-1.337, 5.483e-7
-1.336, 5.128e-7
-1.335, 4.576e-7
-1.334, 5.316e-7
-1.333, 5.168e-7
-1.332, 4.941e-7
-1.331, 4.260e-7
-1.330, 3.954e-7
-1.329, 3.787e-7
-1.328, 4.586e-7
-1.327, 3.875e-7
-1.326, 3.905e-7
-1.325, 3.461e-7
-1.324, 3.047e-7
-1.323, 3.579e-7
-1.322, 3.047e-7
-1.321, 2.603e-7
-1.320, 3.185e-7
-1.319, 2.830e-7
-1.318, 2.820e-7
-1.317, 2.918e-7
-1.316, 2.001e-7
-1.315, 2.277e-7
-1.314, 1.981e-7
-1.313, 2.021e-7
-1.312, 2.317e-7
-1.311, 1.389e-7
-1.310, 1.448e-7
-1.309, 1.113e-7
-1.308, 1.665e-7
-1.307, 1.695e-7
-1.306, 9.353e-8
-1.305, 8.860e-8
-1.304, 5.308e-8
-1.303, 9.550e-8
-1.302, 8.268e-8
-1.301, 4.617e-8
-1.300, 1.756e-8
-1.299, 6.886e-8
-1.298, 5.801e-8
-1.297, 1.953e-8
-1.296, 6.709e-9
-1.295, -4.065e-8
-1.294, -1.697e-8
-1.293, 2.762e-9
-1.292, -1.993e-8
-1.291, -3.078e-8
-1.290, -6.630e-8
-1.289, -1.176e-7
-1.288, -7.715e-8
-1.287, -8.998e-8
-1.286, -6.827e-8
-1.285, -9.984e-8
-1.284, -8.011e-8
-1.283, -4.657e-8
-1.282, -1.127e-7
-1.281, -1.719e-7
-1.280, -1.798e-7
-1.279, -2.261e-7
-1.278, -1.176e-7
-1.277, -1.511e-7
-1.276, -1.946e-7
-1.275, -1.699e-7
-1.274, -2.419e-7
-1.273, -2.034e-7
-1.272, -1.847e-7
-1.271, -2.784e-7
-1.270, -2.557e-7
-1.269, -3.001e-7
-1.268, -2.538e-7
-1.267, -2.360e-7
-1.266, -3.159e-7
-1.265, -2.942e-7
-1.264, -3.307e-7
-1.263, -3.445e-7
-1.262, -3.011e-7
-1.261, -3.573e-7
-1.260, -3.386e-7
-1.259, -3.297e-7
-1.258, -3.416e-7
-1.257, -3.475e-7
-1.256, -3.771e-7
-1.255, -4.205e-7
-1.254, -4.017e-7
-1.253, -3.731e-7
-1.252, -4.008e-7
-1.251, -3.800e-7
-1.250, -4.304e-7
-1.249, -4.442e-7
-1.248, -3.761e-7
-1.247, -4.353e-7
-1.246, -4.560e-7
-1.245, -4.678e-7
-1.244, -4.945e-7
-1.243, -4.945e-7
-1.242, -4.728e-7
-1.241, -5.063e-7
-1.240, -4.856e-7
-1.239, -5.142e-7
-1.238, -4.609e-7
-1.237, -4.708e-7
-1.236, -5.566e-7
-1.235, -5.379e-7
-1.234, -5.586e-7
-1.233, -5.083e-7
-1.232, -5.270e-7
-1.231, -5.359e-7
-1.230, -5.438e-7
-1.229, -5.409e-7
-1.228, -5.409e-7
-1.227, -5.862e-7
-1.226, -5.803e-7
-1.225, -6.415e-7
-1.224, -6.760e-7
-1.223, -5.764e-7
-1.222, -5.872e-7
-1.221, -6.119e-7
-1.220, -6.129e-7
-1.219, -6.632e-7
-1.218, -6.464e-7
-1.217, -6.405e-7
-1.216, -7.323e-7
-1.215, -6.829e-7
-1.214, -7.135e-7
-1.213, -6.750e-7
-1.212, -6.819e-7
-1.211, -7.234e-7
-1.210, -6.957e-7
-1.209, -7.125e-7
-1.208, -7.096e-7
-1.207, -7.224e-7
-1.206, -7.944e-7
-1.205, -7.895e-7
-1.204, -7.500e-7
-1.203, -7.401e-7
-1.202, -7.826e-7
-1.201, -7.993e-7
-1.200, -8.585e-7
-1.199, -8.240e-7
-1.198, -7.905e-7
-1.197, -8.191e-7
-1.196, -7.836e-7
-1.195, -8.526e-7
-1.194, -8.753e-7
-1.193, -8.654e-7
-1.192, -8.536e-7
-1.191, -8.832e-7
-1.190, -8.832e-7
-1.189, -8.950e-7
-1.188, -8.941e-7
-1.187, -9.523e-7
-1.186, -9.463e-7
-1.185, -9.227e-7
-1.184, -9.463e-7
-1.183, -9.207e-7
-1.182, -9.296e-7
-1.181, -9.937e-7
-1.180, -1.005e-6
-1.179, -1.046e-6
-1.178, -9.957e-7
-1.177, -9.819e-7
-1.176, -1.018e-6
-1.175, -1.021e-6
-1.174, -1.044e-6
-1.173, -1.041e-6
-1.172, -1.047e-6
-1.171, -1.137e-6
-1.170, -1.105e-6
-1.169, -1.076e-6
-1.168, -1.091e-6
-1.167, -1.079e-6
-1.166, -1.117e-6
-1.165, -1.149e-6
-1.164, -1.140e-6
-1.163, -1.202e-6
-1.162, -1.223e-6
-1.161, -1.184e-6
-1.160, -1.226e-6
-1.159, -1.208e-6
-1.158, -1.212e-6
-1.157, -1.238e-6
-1.156, -1.286e-6
-1.155, -1.303e-6
-1.154, -1.346e-6
-1.153, -1.263e-6
-1.152, -1.321e-6
-1.151, -1.311e-6
-1.150, -1.298e-6
-1.149, -1.376e-6
-1.148, -1.340e-6
-1.147, -1.366e-6
-1.146, -1.456e-6
-1.145, -1.426e-6
-1.144, -1.486e-6
-1.143, -1.422e-6
-1.142, -1.446e-6
-1.141, -1.494e-6
-1.140, -1.511e-6
-1.139, -1.537e-6
-1.138, -1.546e-6
-1.137, -1.581e-6
-1.136, -1.636e-6
-1.135, -1.613e-6
-1.134, -1.621e-6
-1.133, -1.630e-6
-1.132, -1.623e-6
-1.131, -1.637e-6
-1.130, -1.711e-6
-1.129, -1.668e-6
-1.128, -1.744e-6
-1.127, -1.771e-6
-1.126, -1.770e-6
-1.125, -1.832e-6
-1.124, -1.813e-6
-1.123, -1.813e-6
-1.122, -1.820e-6
-1.121, -1.847e-6
-1.120, -1.951e-6
-1.119, -1.931e-6
-1.118, -1.907e-6
-1.117, -1.957e-6
-1.116, -2.021e-6
-1.115, -2.031e-6
-1.114, -2.080e-6
-1.113, -2.021e-6
-1.112, -2.075e-6
-1.111, -2.117e-6
-1.110, -2.151e-6
-1.109, -2.213e-6
-1.108, -2.210e-6
-1.107, -2.224e-6
-1.106, -2.272e-6
-1.105, -2.280e-6
-1.104, -2.360e-6
-1.103, -2.324e-6
-1.102, -2.395e-6
-1.101, -2.441e-6
-1.100, -2.470e-6
-1.099, -2.483e-6
-1.098, -2.536e-6
-1.097, -2.532e-6
-1.096, -2.647e-6
-1.095, -2.645e-6
-1.094, -2.648e-6
-1.093, -2.690e-6
-1.092, -2.741e-6
-1.091, -2.822e-6
-1.090, -2.838e-6
-1.089, -2.860e-6
-1.088, -2.920e-6
-1.087, -2.955e-6
-1.086, -3.001e-6
-1.085, -3.078e-6
-1.084, -3.107e-6
-1.083, -3.142e-6
-1.082, -3.187e-6
-1.081, -3.268e-6
-1.080, -3.336e-6
-1.079, -3.325e-6
-1.078, -3.369e-6
-1.077, -3.437e-6
-1.076, -3.500e-6
-1.075, -3.618e-6
-1.074, -3.638e-6
-1.073, -3.719e-6
-1.072, -3.805e-6
-1.071, -3.828e-6
-1.070, -3.913e-6
-1.069, -3.943e-6
-1.068, -3.980e-6
-1.067, -4.092e-6
-1.066, -4.179e-6
-1.065, -4.268e-6
-1.064, -4.347e-6
-1.063, -4.350e-6
-1.062, -4.461e-6
-1.061, -4.533e-6
-1.060, -4.615e-6
-1.059, -4.734e-6
-1.058, -4.764e-6
-1.057, -4.880e-6
-1.056, -4.998e-6
-1.055, -5.099e-6
-1.054, -5.195e-6
-1.053, -5.223e-6
-1.052, -5.301e-6
-1.051, -5.442e-6
-1.050, -5.534e-6
-1.049, -5.637e-6
-1.048, -5.729e-6
-1.047, -5.828e-6
-1.046, -5.978e-6
-1.045, -6.019e-6
-1.044, -6.188e-6
-1.043, -6.253e-6
-1.042, -6.327e-6
-1.041, -6.487e-6
-1.040, -6.615e-6
-1.039, -6.676e-6
-1.038, -6.823e-6
-1.037, -6.979e-6
-1.036, -7.079e-6
-1.035, -7.233e-6
-1.034, -7.302e-6
-1.033, -7.416e-6
-1.032, -7.503e-6
-1.031, -7.607e-6
-1.030, -7.775e-6
-1.029, -7.888e-6
-1.028, -7.981e-6
-1.027, -8.142e-6
-1.026, -8.262e-6
-1.025, -8.403e-6
-1.024, -8.521e-6
-1.023, -8.572e-6
-1.022, -8.715e-6
-1.021, -8.810e-6
-1.020, -8.923e-6
-1.019, -9.109e-6
-1.018, -9.147e-6
-1.017, -9.261e-6
-1.016, -9.432e-6
-1.015, -9.475e-6
-1.014, -9.595e-6
-1.013, -9.696e-6
-1.012, -9.787e-6
-1.011, -9.942e-6
-1.010, -9.950e-6
-1.009, -1.009e-5
-1.008, -1.013e-5
-1.007, -1.021e-5
-1.006, -1.032e-5
-1.005, -1.042e-5
-1.004, -1.046e-5
-1.003, -1.054e-5
-1.002, -1.056e-5
-1.001, -1.065e-5
-1.000, -1.026e-5
-1.001, -9.559e-6
-1.002, -8.990e-6
-1.003, -8.525e-6
-1.004, -8.016e-6
-1.005, -7.565e-6
-1.006, -7.108e-6
-1.007, -6.697e-6
-1.008, -6.366e-6
-1.009, -5.996e-6
-1.010, -5.737e-6
-1.011, -5.383e-6
-1.012, -5.073e-6
-1.013, -4.883e-6
-1.014, -4.602e-6
-1.015, -4.411e-6
-1.016, -4.193e-6
-1.017, -3.895e-6
-1.018, -3.708e-6
-1.019, -3.510e-6
-1.020, -3.304e-6
-1.021, -3.165e-6
-1.022, -2.968e-6
-1.023, -2.773e-6
-1.024, -2.729e-6
-1.025, -2.552e-6
-1.026, -2.420e-6
-1.027, -2.222e-6
-1.028, -2.077e-6
-1.029, -2.036e-6
-1.030, -1.900e-6
-1.031, -1.801e-6
-1.032, -1.679e-6
-1.033, -1.570e-6
-1.034, -1.526e-6
-1.035, -1.427e-6
-1.036, -1.287e-6
-1.037, -1.169e-6
-1.038, -1.095e-6
-1.039, -1.061e-6
-1.040, -1.005e-6
-1.041, -8.842e-7
-1.042, -7.905e-7
-1.043, -7.362e-7
-1.044, -6.326e-7
-1.045, -6.395e-7
-1.046, -5.566e-7
-1.047, -4.876e-7
-1.048, -4.530e-7
-1.049, -3.741e-7
-1.050, -3.317e-7
-1.051, -2.962e-7
-1.052, -2.015e-7
-1.053, -1.206e-7
-1.054, -1.117e-7
-1.055, -1.215e-7
-1.056, -7.025e-8
-1.057, 2.545e-8
-1.058, 4.617e-8
-1.059, 1.024e-7
-1.060, 1.508e-7
-1.061, 2.060e-7
-1.062, 2.721e-7
-1.063, 2.721e-7
-1.064, 2.563e-7
-1.065, 2.928e-7
-1.066, 3.283e-7
-1.067, 4.388e-7
-1.068, 4.892e-7
-1.069, 4.635e-7
-1.070, 5.099e-7
-1.071, 5.454e-7
-1.072, 5.513e-7
-1.073, 6.115e-7
-1.074, 5.957e-7
-1.075, 6.658e-7
-1.076, 7.151e-7
-1.077, 7.397e-7
-1.078, 8.049e-7
-1.079, 7.772e-7
-1.080, 7.802e-7
-1.081, 8.177e-7
-1.082, 8.394e-7
-1.083, 8.414e-7
-1.084, 8.779e-7
-1.085, 8.848e-7
-1.086, 9.943e-7
-1.087, 1.022e-6
-1.088, 1.053e-6
-1.089, 1.107e-6
-1.090, 1.048e-6
-1.091, 1.081e-6
-1.092, 1.136e-6
-1.093, 1.062e-6
-1.094, 1.097e-6
-1.095, 1.138e-6
-1.096, 1.109e-6
-1.097, 1.216e-6
-1.098, 1.235e-6
-1.099, 1.244e-6
-1.100, 1.219e-6
-1.101, 1.239e-6
-1.102, 1.296e-6
-1.103, 1.294e-6
-1.104, 1.287e-6
-1.105, 1.306e-6
-1.106, 1.340e-6
-1.107, 1.410e-6
-1.108, 1.383e-6
-1.109, 1.402e-6
-1.110, 1.406e-6
-1.111, 1.358e-6
-1.112, 1.466e-6
-1.113, 1.446e-6
-1.114, 1.461e-6
-1.115, 1.497e-6
-1.116, 1.507e-6
-1.117, 1.523e-6
-1.118, 1.568e-6
-1.119, 1.471e-6
-1.120, 1.542e-6
-1.121, 1.591e-6
-1.122, 1.657e-6
-1.123, 1.664e-6
-1.124, 1.599e-6
-1.125, 1.660e-6
-1.126, 1.649e-6
-1.127, 1.673e-6
-1.128, 1.696e-6
-1.129, 1.706e-6
-1.130, 1.733e-6
-1.131, 1.713e-6
-1.132, 1.737e-6
-1.133, 1.782e-6
-1.134, 1.774e-6
-1.135, 1.696e-6
-1.136, 1.806e-6
-1.137, 1.808e-6
-1.138, 1.810e-6
-1.139, 1.846e-6
-1.140, 1.839e-6
-1.141, 1.886e-6
-1.142, 1.911e-6
-1.143, 1.897e-6
-1.144, 1.866e-6
-1.145, 1.863e-6
-1.146, 1.908e-6
-1.147, 1.940e-6
-1.148, 1.936e-6
-1.149, 1.967e-6
-1.150, 1.937e-6
-1.151, 1.996e-6
-1.152, 2.034e-6
-1.153, 2.001e-6
-1.154, 1.995e-6
-1.155, 2.009e-6
-1.156, 1.979e-6
-1.157, 2.045e-6
-1.158, 2.029e-6
-1.159, 2.091e-6
-1.160, 2.071e-6
-1.161, 2.083e-6
-1.162, 2.157e-6
-1.163, 2.058e-6
-1.164, 2.079e-6
-1.165, 2.141e-6
-1.166, 2.148e-6
-1.167, 2.185e-6
-1.168, 2.192e-6
-1.169, 2.161e-6
-1.170, 2.167e-6
-1.171, 2.125e-6
-1.172, 2.216e-6
-1.173, 2.211e-6
-1.174, 2.196e-6
-1.175, 2.190e-6
-1.176, 2.207e-6
-1.177, 2.206e-6
-1.178, 2.226e-6
-1.179, 2.167e-6
-1.180, 2.227e-6
-1.181, 2.298e-6
-1.182, 2.279e-6
-1.183, 2.308e-6
-1.184, 2.276e-6
-1.185, 2.284e-6
-1.186, 2.321e-6
-1.187, 2.321e-6
-1.188, 2.278e-6
-1.189, 2.296e-6
-1.190, 2.273e-6
-1.191, 2.349e-6
-1.192, 2.353e-6
-1.193, 2.354e-6
-1.194, 2.406e-6
-1.195, 2.336e-6
-1.196, 2.422e-6
-1.197, 2.390e-6
-1.198, 2.380e-6
-1.199, 2.365e-6
-1.200, 2.367e-6
-1.201, 2.349e-6
-1.202, 2.445e-6
-1.203, 2.439e-6
-1.204, 2.472e-6
-1.205, 2.470e-6
-1.206, 2.429e-6
-1.207, 2.524e-6
-1.208, 2.484e-6
-1.209, 2.443e-6
-1.210, 2.511e-6
-1.211, 2.482e-6
-1.212, 2.521e-6
-1.213, 2.515e-6
-1.214, 2.498e-6
-1.215, 2.536e-6
-1.216, 2.498e-6
-1.217, 2.547e-6
-1.218, 2.560e-6
-1.219, 2.575e-6
-1.220, 2.600e-6
-1.221, 2.527e-6
-1.222, 2.565e-6
-1.223, 2.585e-6
-1.224, 2.557e-6
-1.225, 2.566e-6
-1.226, 2.628e-6
-1.227, 2.630e-6
-1.228, 2.666e-6
-1.229, 2.640e-6
-1.230, 2.623e-6
-1.231, 2.655e-6
-1.232, 2.670e-6
-1.233, 2.716e-6
-1.234, 2.675e-6
-1.235, 2.686e-6
-1.236, 2.708e-6
-1.237, 2.694e-6
-1.238, 2.682e-6
-1.239, 2.706e-6
-1.240, 2.743e-6
-1.241, 2.773e-6
-1.242, 2.760e-6
-1.243, 2.739e-6
-1.244, 2.729e-6
-1.245, 2.738e-6
-1.246, 2.761e-6
-1.247, 2.862e-6
-1.248, 2.812e-6
-1.249, 2.801e-6
-1.250, 2.806e-6
-1.251, 2.768e-6
-1.252, 2.882e-6
-1.253, 2.838e-6
-1.254, 2.844e-6
-1.255, 2.879e-6
-1.256, 2.875e-6
-1.257, 2.950e-6
-1.258, 2.929e-6
-1.259, 2.860e-6
-1.260, 2.912e-6
-1.261, 2.901e-6
-1.262, 2.922e-6
-1.263, 2.977e-6
-1.264, 2.902e-6
-1.265, 2.948e-6
-1.266, 2.972e-6
-1.267, 3.028e-6
-1.268, 3.075e-6
-1.269, 2.966e-6
-1.270, 3.020e-6
-1.271, 3.030e-6
-1.272, 2.969e-6
-1.273, 3.053e-6
-1.274, 3.046e-6
-1.275, 3.068e-6
-1.276, 3.094e-6
-1.277, 3.069e-6
-1.278, 3.091e-6
-1.279, 3.082e-6
-1.280, 3.117e-6
-1.281, 3.157e-6
-1.282, 3.201e-6
-1.283, 3.146e-6
-1.284, 3.137e-6
-1.285, 3.105e-6
-1.286, 3.150e-6
-1.287, 3.222e-6
-1.288, 3.222e-6
-1.289, 3.216e-6
-1.290, 3.218e-6
-1.291, 3.196e-6
-1.292, 3.270e-6
-1.293, 3.268e-6
-1.294, 3.249e-6
-1.295, 3.279e-6
-1.296, 3.240e-6
-1.297, 3.308e-6
-1.298, 3.274e-6
-1.299, 3.242e-6
-1.300, 3.345e-6
-1.301, 3.353e-6
-1.302, 3.372e-6
-1.303, 3.397e-6
-1.304, 3.363e-6
-1.305, 3.336e-6
-1.306, 3.353e-6
-1.307, 3.450e-6
-1.308, 3.401e-6
-1.309, 3.395e-6
-1.310, 3.451e-6
-1.311, 3.440e-6
-1.312, 3.465e-6
-1.313, 3.480e-6
-1.314, 3.418e-6
-1.315, 3.457e-6
-1.316, 3.503e-6
-1.317, 3.503e-6
-1.318, 3.555e-6
-1.319, 3.527e-6
-1.320, 3.473e-6
-1.321, 3.531e-6
-1.322, 3.571e-6
-1.323, 3.584e-6
-1.324, 3.588e-6
-1.325, 3.571e-6
-1.326, 3.644e-6
-1.327, 3.614e-6
-1.328, 3.617e-6
-1.329, 3.620e-6
-1.330, 3.600e-6
-1.331, 3.710e-6
-1.332, 3.701e-6
-1.333, 3.699e-6
-1.334, 3.708e-6
-1.335, 3.674e-6
-1.336, 3.745e-6
-1.337, 3.732e-6
-1.338, 3.817e-6
-1.339, 3.780e-6
-1.340, 3.739e-6
-1.341, 3.827e-6
-1.342, 3.807e-6
-1.343, 3.845e-6
-1.344, 3.804e-6
-1.345, 3.833e-6
-1.346, 3.935e-6
-1.347, 3.936e-6
-1.348, 3.896e-6
-1.349, 3.843e-6
-1.350, 3.885e-6
-1.351, 3.906e-6
-1.352, 4.022e-6
-1.353, 3.971e-6
-1.354, 3.994e-6
-1.355, 3.984e-6
-1.356, 3.984e-6
-1.357, 4.024e-6
-1.358, 4.027e-6
-1.359, 4.036e-6
-1.360, 4.074e-6
-1.361, 4.069e-6
-1.362, 4.099e-6
-1.363, 4.080e-6
-1.364, 4.106e-6
-1.365, 4.109e-6
-1.366, 4.118e-6
-1.367, 4.185e-6
-1.368, 4.155e-6
-1.369, 4.148e-6
-1.370, 4.147e-6
-1.371, 4.238e-6
-1.372, 4.213e-6
-1.373, 4.201e-6
-1.374, 4.274e-6
-1.375, 4.247e-6
-1.376, 4.270e-6
-1.377, 4.282e-6
-1.378, 4.336e-6
-1.379, 4.310e-6
-1.380, 4.270e-6
-1.381, 4.318e-6
-1.382, 4.331e-6
-1.383, 4.365e-6
-1.384, 4.373e-6
-1.385, 4.373e-6
-1.386, 4.427e-6
-1.387, 4.437e-6
-1.388, 4.426e-6
-1.389, 4.468e-6
-1.390, 4.421e-6
-1.391, 4.469e-6
-1.392, 4.529e-6
-1.393, 4.487e-6
-1.394, 4.496e-6
-1.395, 4.488e-6
-1.396, 4.502e-6
-1.397, 4.624e-6
-1.398, 4.598e-6
-1.399, 4.586e-6
-1.400, 4.613e-6
-1.401, 4.604e-6
-1.402, 4.675e-6
-1.403, 4.630e-6
-1.404, 4.701e-6
-1.405, 4.651e-6
-1.406, 4.664e-6
-1.407, 4.733e-6
-1.408, 4.677e-6
-1.409, 4.759e-6
-1.410, 4.788e-6
-1.411, 4.812e-6
-1.412, 4.847e-6
-1.413, 4.808e-6
-1.414, 4.802e-6
-1.415, 4.868e-6
-1.416, 4.851e-6
-1.417, 4.923e-6
-1.418, 4.920e-6
-1.419, 4.865e-6
-1.420, 4.905e-6
-1.421, 4.901e-6
-1.422, 4.984e-6
-1.423, 5.008e-6
-1.424, 4.983e-6
-1.425, 4.974e-6
-1.426, 5.011e-6
-1.427, 5.026e-6
-1.428, 5.096e-6
-1.429, 5.068e-6
-1.430, 5.100e-6
-1.431, 5.133e-6
-1.432, 5.120e-6
-1.433, 5.185e-6
-1.434, 5.163e-6
-1.435, 5.164e-6
-1.436, 5.226e-6
-1.437, 5.261e-6
-1.438, 5.300e-6
-1.439, 5.281e-6
-1.440, 5.270e-6
-1.441, 5.340e-6
-1.442, 5.406e-6
-1.443, 5.366e-6
-1.444, 5.375e-6
-1.445, 5.356e-6
-1.446, 5.395e-6
-1.447, 5.462e-6
-1.448, 5.433e-6
-1.449, 5.490e-6
-1.450, 5.457e-6
-1.451, 5.557e-6
-1.452, 5.580e-6
-1.453, 5.588e-6
-1.454, 5.583e-6
-1.455, 5.601e-6
-1.456, 5.619e-6
-1.457, 5.684e-6
-1.458, 5.651e-6
-1.459, 5.685e-6
-1.460, 5.721e-6
-1.461, 5.704e-6
-1.462, 5.780e-6
-1.463, 5.768e-6
-1.464, 5.792e-6
-1.465, 5.841e-6
-1.466, 5.817e-6
-1.467, 5.872e-6
-1.468, 5.911e-6
-1.469, 5.902e-6
-1.470, 5.930e-6
-1.471, 5.951e-6
-1.472, 5.990e-6
-1.473, 6.073e-6
-1.474, 6.019e-6
-1.475, 6.055e-6
-1.476, 6.125e-6
-1.477, 6.134e-6
-1.478, 6.188e-6
-1.479, 6.174e-6
-1.480, 6.179e-6
-1.481, 6.205e-6
-1.482, 6.255e-6
-1.483, 6.294e-6
-1.484, 6.309e-6
-1.485, 6.297e-6
-1.486, 6.437e-6
-1.487, 6.417e-6
-1.488, 6.448e-6
-1.489, 6.440e-6
-1.490, 6.459e-6
-1.491, 6.491e-6
-1.492, 6.580e-6
-1.493, 6.530e-6
-1.494, 6.579e-6
-1.495, 6.613e-6
-1.496, 6.611e-6
-1.497, 6.696e-6
-1.498, 6.712e-6
-1.499, 6.712e-6
-1.500, 6.772e-6
-1.501, 6.771e-6
-1.502, 6.828e-6
-1.503, 6.865e-6
-1.504, 6.898e-6
-1.505, 6.940e-6
-1.506, 6.959e-6
-1.507, 7.022e-6
-1.508, 7.065e-6
-1.509, 7.016e-6
-1.510, 7.043e-6
-1.511, 7.085e-6
-1.512, 7.139e-6
-1.513, 7.207e-6
-1.514, 7.178e-6
-1.515, 7.262e-6
-1.516, 7.361e-6
-1.517, 7.372e-6
-1.518, 7.402e-6
-1.519, 7.368e-6
-1.520, 7.407e-6
-1.521, 7.518e-6
-1.522, 7.517e-6
-1.523, 7.558e-6
-1.524, 7.567e-6
-1.525, 7.588e-6
-1.526, 7.672e-6
-1.527, 7.715e-6
-1.528, 7.725e-6
-1.529, 7.760e-6
-1.530, 7.815e-6
-1.531, 7.828e-6
-1.532, 7.921e-6
-1.533, 7.848e-6
-1.534, 7.969e-6
-1.535, 7.994e-6
-1.536, 8.044e-6
-1.537, 8.146e-6
-1.538, 8.088e-6
-1.539, 8.150e-6
-1.540, 8.206e-6
-1.541, 8.191e-6
-1.542, 8.336e-6
-1.543, 8.327e-6
-1.544, 8.331e-6
-1.545, 8.432e-6
-1.546, 8.457e-6
-1.547, 8.535e-6
-1.548, 8.557e-6
-1.549, 8.593e-6
-1.550, 8.656e-6
-1.551, 8.666e-6
-1.552, 8.762e-6
-1.553, 8.788e-6
-1.554, 8.798e-6
-1.555, 8.808e-6
-1.556, 8.943e-6
-1.557, 8.973e-6
-1.558, 9.052e-6
-1.559, 9.038e-6
-1.560, 9.058e-6
-1.561, 9.190e-6
-1.562, 9.221e-6
-1.563, 9.266e-6
-1.564, 9.301e-6
-1.565, 9.339e-6
-1.566, 9.447e-6
-1.567, 9.483e-6
-1.568, 9.570e-6
-1.569, 9.590e-6
-1.570, 9.644e-6
-1.571, 9.690e-6
-1.572, 9.773e-6
-1.573, 9.823e-6
-1.574, 9.847e-6
-1.575, 9.894e-6
-1.576, 9.987e-6
-1.577, 1.008e-5
-1.578, 1.011e-5
-1.579, 1.016e-5
-1.580, 1.019e-5
-1.581, 1.029e-5
-1.582, 1.039e-5
-1.583, 1.040e-5
-1.584, 1.049e-5
-1.585, 1.051e-5
-1.586, 1.059e-5
-1.587, 1.074e-5
-1.588, 1.076e-5
-1.589, 1.081e-5
-1.590, 1.085e-5
-1.591, 1.097e-5
-1.592, 1.107e-5
-1.593, 1.106e-5
-1.594, 1.119e-5
-1.595, 1.124e-5
-1.596, 1.132e-5
-1.597, 1.145e-5
-1.598, 1.147e-5
-1.599, 1.154e-5
-1.600, 1.161e-5
-1.601, 1.165e-5
-1.602, 1.184e-5
-1.603, 1.188e-5
-1.604, 1.197e-5
-1.605, 1.204e-5
-1.606, 1.211e-5
-1.607, 1.228e-5
-1.608, 1.237e-5
-1.609, 1.238e-5
-1.610, 1.249e-5
-1.611, 1.260e-5
-1.612, 1.274e-5
-1.613, 1.282e-5
-1.614, 1.283e-5
-1.615, 1.296e-5
-1.616, 1.308e-5
-1.617, 1.320e-5
-1.618, 1.333e-5
-1.619, 1.334e-5
-1.620, 1.346e-5
-1.621, 1.365e-5
-1.622, 1.376e-5
-1.623, 1.389e-5
-1.624, 1.392e-5
-1.625, 1.404e-5
-1.626, 1.418e-5
-1.627, 1.428e-5
-1.628, 1.444e-5
-1.629, 1.454e-5
-1.630, 1.464e-5
-1.631, 1.478e-5
-1.632, 1.490e-5
-1.633, 1.505e-5
-1.634, 1.513e-5
-1.635, 1.528e-5
-1.636, 1.547e-5
-1.637, 1.559e-5
-1.638, 1.570e-5
-1.639, 1.585e-5
-1.640, 1.599e-5
-1.641, 1.621e-5
-1.642, 1.636e-5
-1.643, 1.647e-5
-1.644, 1.661e-5
-1.645, 1.675e-5
-1.646, 1.697e-5
-1.647, 1.718e-5
-1.648, 1.730e-5
-1.649, 1.747e-5
-1.650, 1.759e-5
-1.651, 1.783e-5
-1.652, 1.808e-5
-1.653, 1.820e-5
-1.654, 1.839e-5
-1.655, 1.852e-5
-1.656, 1.880e-5
-1.657, 1.903e-5
-1.658, 1.918e-5
-1.659, 1.942e-5
-1.660, 1.968e-5
-1.661, 1.985e-5
-1.662, 2.013e-5
-1.663, 2.031e-5
-1.664, 2.057e-5
-1.665, 2.078e-5
-1.666, 2.110e-5
-1.667, 2.136e-5
-1.668, 2.163e-5
-1.669, 2.186e-5
-1.670, 2.214e-5
-1.671, 2.250e-5
-1.672, 2.279e-5
-1.673, 2.306e-5
-1.674, 2.332e-5
-1.675, 2.364e-5
-1.676, 2.403e-5
-1.677, 2.435e-5
-1.678, 2.470e-5
-1.679, 2.497e-5
-1.680, 2.535e-5
-1.681, 2.579e-5
-1.682, 2.615e-5
-1.683, 2.655e-5
-1.684, 2.691e-5
-1.685, 2.733e-5
-1.686, 2.779e-5
-1.687, 2.827e-5
-1.688, 2.872e-5
-1.689, 2.912e-5
-1.690, 2.961e-5
-1.691, 3.020e-5
-1.692, 3.068e-5
-1.693, 3.129e-5
-1.694, 3.175e-5
-1.695, 3.232e-5
-1.696, 3.300e-5
-1.697, 3.357e-5
-1.698, 3.425e-5
-1.699, 3.478e-5
-1.700, 3.547e-5
-1.701, 3.632e-5
-1.702, 3.706e-5
-1.703, 3.779e-5
-1.704, 3.846e-5
-1.705, 3.929e-5
-1.706, 4.022e-5
-1.707, 4.110e-5
-1.708, 4.201e-5
-1.709, 4.292e-5
-1.710, 4.388e-5
-1.711, 4.496e-5
-1.712, 4.608e-5
-1.713, 4.713e-5
-1.714, 4.826e-5
-1.715, 4.942e-5
-1.716, 5.075e-5
-1.717, 5.212e-5
-1.718, 5.345e-5
-1.719, 5.483e-5
-1.720, 5.631e-5
-1.721, 5.790e-5
-1.722, 5.958e-5
-1.723, 6.121e-5
-1.724, 6.294e-5
-1.725, 6.475e-5
-1.726, 6.670e-5
-1.727, 6.877e-5
-1.728, 7.080e-5
-1.729, 7.297e-5
-1.730, 7.522e-5
-1.731, 7.763e-5
-1.732, 8.021e-5
-1.733, 8.274e-5
-1.734, 8.539e-5
-1.735, 8.825e-5
-1.736, 9.128e-5
-1.737, 9.446e-5
-1.738, 9.771e-5
-1.739, 1.010e-4
-1.740, 1.046e-4
-1.741, 1.084e-4
-1.742, 1.123e-4
-1.743, 1.164e-4
-1.744, 1.205e-4
-1.745, 1.251e-4
-1.746, 1.298e-4
-1.747, 1.348e-4
-1.748, 1.400e-4
-1.749, 1.452e-4
-1.750, 1.507e-4
-1.751, 1.567e-4
-1.752, 1.629e-4
-1.753, 1.693e-4
-1.754, 1.759e-4
-1.755, 1.829e-4
-1.756, 1.903e-4
-1.757, 1.980e-4
-1.758, 2.060e-4
-1.759, 2.143e-4
-1.760, 2.230e-4
-1.761, 2.324e-4
-1.762, 2.421e-4
-1.763, 2.521e-4
-1.764, 2.625e-4
-1.765, 2.733e-4
-1.766, 2.848e-4
-1.767, 2.969e-4
-1.768, 3.093e-4
-1.769, 3.222e-4
-1.770, 3.356e-4
-1.771, 3.497e-4
-1.772, 3.647e-4
-1.773, 3.801e-4
-1.774, 3.958e-4
-1.775, 4.123e-4
-1.776, 4.295e-4
-1.777, 4.477e-4
-1.778, 4.663e-4
-1.779, 4.855e-4
-1.780, 5.057e-4
-1.781, 5.269e-4
-1.782, 5.488e-4
-1.783, 5.714e-4
-1.784, 5.946e-4
-1.785, 6.189e-4
-1.786, 6.441e-4
-1.787, 6.705e-4
-1.788, 6.976e-4
-1.789, 7.253e-4
-1.790, 7.541e-4
-1.791, 7.843e-4
-1.792, 8.155e-4
-1.793, 8.478e-4
-1.794, 8.807e-4
-1.795, 9.145e-4
-1.796, 9.499e-4
-1.797, 9.865e-4
-1.798, 1.024e-3
-1.799, 1.063e-3
-1.800, 1.085e-3
-1.799, 1.086e-3
-1.798, 1.084e-3
-1.797, 1.079e-3
-1.796, 1.073e-3
-1.795, 1.065e-3
-1.794, 1.057e-3
-1.793, 1.048e-3
-1.792, 1.037e-3
-1.791, 1.026e-3
-1.790, 1.014e-3
-1.789, 1.002e-3
-1.788, 9.894e-4
-1.787, 9.763e-4
-1.786, 9.627e-4
-1.785, 9.489e-4
-1.784, 9.351e-4
-1.783, 9.213e-4
-1.782, 9.070e-4
-1.781, 8.924e-4
-1.780, 8.778e-4
-1.779, 8.632e-4
-1.778, 8.489e-4
-1.777, 8.341e-4
-1.776, 8.193e-4
-1.775, 8.045e-4
-1.774, 7.901e-4
-1.773, 7.759e-4
-1.772, 7.616e-4
-1.771, 7.471e-4
-1.770, 7.328e-4
-1.769, 7.185e-4
-1.768, 7.042e-4
-1.767, 6.900e-4
-1.766, 6.760e-4
-1.765, 6.624e-4
-1.764, 6.494e-4
-1.763, 6.366e-4
-1.762, 6.234e-4
-1.761, 6.105e-4
-1.760, 5.976e-4
-1.759, 5.853e-4
-1.758, 5.731e-4
-1.757, 5.608e-4
-1.756, 5.485e-4
-1.755, 5.368e-4
-1.754, 5.252e-4
-1.753, 5.140e-4
-1.752, 5.029e-4
-1.751, 4.917e-4
-1.750, 4.809e-4
-1.749, 4.702e-4
-1.748, 4.598e-4
-1.747, 4.496e-4
-1.746, 4.393e-4
-1.745, 4.294e-4
-1.744, 4.198e-4
-1.743, 4.102e-4
-1.742, 4.007e-4
-1.741, 3.913e-4
-1.740, 3.822e-4
-1.739, 3.735e-4
-1.738, 3.650e-4
-1.737, 3.565e-4
-1.736, 3.480e-4
-1.735, 3.398e-4
-1.734, 3.319e-4
-1.733, 3.243e-4
-1.732, 3.165e-4
-1.731, 3.090e-4
-1.730, 3.017e-4
-1.729, 2.947e-4
-1.728, 2.878e-4
-1.727, 2.810e-4
-1.726, 2.742e-4
-1.725, 2.677e-4
-1.724, 2.614e-4
-1.723, 2.553e-4
-1.722, 2.492e-4
-1.721, 2.431e-4
-1.720, 2.373e-4
-1.719, 2.316e-4
-1.718, 2.262e-4
-1.717, 2.207e-4
-1.716, 2.154e-4
-1.715, 2.102e-4
-1.714, 2.053e-4
-1.713, 2.004e-4
-1.712, 1.956e-4
-1.711, 1.908e-4
-1.710, 1.862e-4
-1.709, 1.818e-4
-1.708, 1.775e-4
-1.707, 1.733e-4
-1.706, 1.691e-4
-1.705, 1.651e-4
-1.704, 1.613e-4
-1.703, 1.574e-4
-1.702, 1.536e-4
-1.701, 1.498e-4
-1.700, 1.463e-4
-1.699, 1.428e-4
-1.698, 1.395e-4
-1.697, 1.362e-4
-1.696, 1.329e-4
-1.695, 1.298e-4
-1.694, 1.268e-4
-1.693, 1.239e-4
-1.692, 1.209e-4
-1.691, 1.180e-4
-1.690, 1.152e-4
-1.689, 1.126e-4
-1.688, 1.100e-4
-1.687, 1.074e-4
-1.686, 1.049e-4
-1.685, 1.025e-4
-1.684, 1.002e-4
-1.683, 9.785e-5
-1.682, 9.558e-5
-1.681, 9.331e-5
-1.680, 9.121e-5
-1.679, 8.919e-5
-1.678, 8.721e-5
-1.677, 8.520e-5
-1.676, 8.319e-5
-1.675, 8.132e-5
-1.674, 7.955e-5
-1.673, 7.774e-5
-1.672, 7.598e-5
-1.671, 7.418e-5
-1.670, 7.257e-5
-1.669, 7.108e-5
-1.668, 6.948e-5
-1.667, 6.794e-5
-1.666, 6.642e-5
-1.665, 6.494e-5
-1.664, 6.356e-5
-1.663, 6.225e-5
-1.662, 6.077e-5
-1.661, 5.950e-5
-1.660, 5.817e-5
-1.659, 5.701e-5
-1.658, 5.582e-5
-1.657, 5.459e-5
-1.656, 5.348e-5
-1.655, 5.230e-5
-1.654, 5.125e-5
-1.653, 5.021e-5
-1.652, 4.911e-5
-1.651, 4.806e-5
-1.650, 4.711e-5
-1.649, 4.610e-5
-1.648, 4.522e-5
-1.647, 4.432e-5
-1.646, 4.331e-5
-1.645, 4.249e-5
-1.644, 4.166e-5
-1.643, 4.081e-5
-1.642, 4.001e-5
-1.641, 3.908e-5
-1.640, 3.838e-5
-1.639, 3.772e-5
-1.638, 3.697e-5
-1.637, 3.623e-5
-1.636, 3.546e-5
-1.635, 3.475e-5
-1.634, 3.411e-5
-1.633, 3.352e-5
-1.632, 3.271e-5
-1.631, 3.192e-5
-1.630, 3.127e-5
-1.629, 3.070e-5
-1.628, 3.012e-5
-1.627, 2.950e-5
-1.626, 2.895e-5
-1.625, 2.845e-5
-1.624, 2.801e-5
-1.623, 2.746e-5
-1.622, 2.686e-5
-1.621, 2.637e-5
-1.620, 2.594e-5
-1.619, 2.546e-5
-1.618, 2.506e-5
-1.617, 2.462e-5
-1.616, 2.413e-5
-1.615, 2.380e-5
-1.614, 2.338e-5
-1.613, 2.297e-5
-1.612, 2.256e-5
-1.611, 2.215e-5
-1.610, 2.180e-5
-1.609, 2.149e-5
-1.608, 2.110e-5
-1.607, 2.076e-5
-1.606, 2.040e-5
-1.605, 2.005e-5
-1.604, 1.981e-5
-1.603, 1.942e-5
-1.602, 1.911e-5
-1.601, 1.878e-5
-1.600, 1.848e-5
-1.599, 1.825e-5
-1.598, 1.797e-5
-1.597, 1.766e-5
-1.596, 1.740e-5
-1.595, 1.711e-5
-1.594, 1.689e-5
-1.593, 1.667e-5
-1.592, 1.637e-5
-1.591, 1.607e-5
-1.590, 1.586e-5
-1.589, 1.567e-5
-1.588, 1.545e-5
-1.587, 1.516e-5
-1.586, 1.493e-5
-1.585, 1.478e-5
-1.584, 1.456e-5
-1.583, 1.431e-5
-1.582, 1.413e-5
-1.581, 1.387e-5
-1.580, 1.369e-5
-1.579, 1.358e-5
-1.578, 1.332e-5
-1.577, 1.315e-5
-1.576, 1.295e-5
-1.575, 1.275e-5
-1.574, 1.263e-5
-1.573, 1.243e-5
-1.572, 1.222e-5
-1.571, 1.206e-5
-1.570, 1.186e-5
-1.569, 1.176e-5
-1.568, 1.162e-5
-1.567, 1.144e-5
-1.566, 1.130e-5
-1.565, 1.114e-5
-1.564, 1.100e-5
-1.563, 1.085e-5
-1.562, 1.065e-5
-1.561, 1.049e-5
-1.560, 1.042e-5
-1.559, 1.028e-5
-1.558, 1.012e-5
-1.557, 1.006e-5
-1.556, 9.828e-6
-1.555, 9.750e-6
-1.554, 9.654e-6
-1.553, 9.498e-6
-1.552, 9.384e-6
-1.551, 9.199e-6
-1.550, 9.144e-6
-1.549, 9.065e-6
-1.548, 8.891e-6
-1.547, 8.790e-6
-1.546, 8.658e-6
-1.545, 8.560e-6
-1.544, 8.535e-6
-1.543, 8.351e-6
-1.542, 8.252e-6
-1.541, 8.141e-6
-1.540, 8.024e-6
-1.539, 7.983e-6
-1.538, 7.849e-6
-1.537, 7.752e-6
-1.536, 7.650e-6
-1.535, 7.546e-6
-1.534, 7.478e-6
-1.533, 7.414e-6
-1.532, 7.268e-6
-1.531, 7.142e-6
-1.530, 7.102e-6
-1.529, 7.020e-6
-1.528, 6.941e-6
-1.527, 6.846e-6
-1.526, 6.733e-6
-1.525, 6.674e-6
-1.524, 6.664e-6
-1.523, 6.545e-6
-1.522, 6.481e-6
-1.521, 6.328e-6
-1.520, 6.297e-6
-1.519, 6.233e-6
-1.518, 6.149e-6
-1.517, 6.052e-6
-1.516, 5.971e-6
-1.515, 5.947e-6
-1.514, 5.949e-6
-1.513, 5.827e-6
-1.512, 5.727e-6
-1.511, 5.678e-6
-1.510, 5.601e-6
-1.509, 5.577e-6
-1.508, 5.493e-6
-1.507, 5.356e-6
-1.506, 5.348e-6
-1.505, 5.280e-6
-1.504, 5.229e-6
-1.503, 5.190e-6
-1.502, 5.145e-6
-1.501, 5.062e-6
-1.500, 5.037e-6
-1.499, 4.965e-6
-1.498, 4.953e-6
-1.497, 4.816e-6
-1.496, 4.740e-6
-1.495, 4.726e-6
-1.494, 4.680e-6
-1.493, 4.631e-6
-1.492, 4.552e-6
-1.491, 4.512e-6
-1.490, 4.433e-6
-1.489, 4.445e-6
-1.488, 4.384e-6
-1.487, 4.321e-6
-1.486, 4.199e-6
-1.485, 4.211e-6
-1.484, 4.162e-6
-1.483, 4.126e-6
-1.482, 4.090e-6
-1.481, 3.959e-6
-1.480, 3.951e-6
-1.479, 3.934e-6
-1.478, 3.887e-6
-1.477, 3.859e-6
-1.476, 3.760e-6
-1.475, 3.708e-6
-1.474, 3.776e-6
-1.473, 3.690e-6
-1.472, 3.629e-6
-1.471, 3.573e-6
-1.470, 3.506e-6
-1.469, 3.529e-6
-1.468, 3.462e-6
-1.467, 3.407e-6
-1.466, 3.408e-6
-1.465, 3.318e-6
-1.464, 3.314e-6
-1.463, 3.335e-6
-1.462, 3.227e-6
-1.461, 3.227e-6
-1.460, 3.164e-6
-1.459, 3.156e-6
-1.458, 3.119e-6
-1.457, 3.019e-6
-1.456, 3.022e-6
-1.455, 3.026e-6
-1.454, 2.969e-6
-1.453, 2.971e-6
-1.452, 2.872e-6
-1.451, 2.848e-6
-1.450, 2.813e-6
-1.449, 2.857e-6
-1.448, 2.766e-6
-1.447, 2.757e-6
-1.446, 2.652e-6
-1.445, 2.666e-6
-1.444, 2.693e-6
-1.443, 2.579e-6
-1.442, 2.632e-6
-1.441, 2.545e-6
-1.440, 2.518e-6
-1.439, 2.529e-6
-1.438, 2.442e-6
-1.437, 2.464e-6
-1.436, 2.380e-6
-1.435, 2.384e-6
-1.434, 2.439e-6
-1.433, 2.353e-6
-1.432, 2.297e-6
-1.431, 2.246e-6
-1.430, 2.198e-6
-1.429, 2.257e-6
-1.428, 2.217e-6
-1.427, 2.161e-6
-1.426, 2.203e-6
-1.425, 2.106e-6
-1.424, 2.130e-6
-1.423, 2.111e-6
-1.422, 2.025e-6
-1.421, 2.009e-6
-1.420, 2.015e-6
-1.419, 1.993e-6
-1.418, 2.023e-6
-1.417, 1.968e-6
-1.416, 1.883e-6
-1.415, 1.886e-6
-1.414, 1.844e-6
-1.413, 1.811e-6
-1.412, 1.833e-6
-1.411, 1.773e-6
-1.410, 1.817e-6
-1.409, 1.801e-6
-1.408, 1.770e-6
-1.407, 1.727e-6
-1.406, 1.640e-6
-1.405, 1.639e-6
-1.404, 1.689e-6
-1.403, 1.624e-6
-1.402, 1.619e-6
-1.401, 1.609e-6
-1.400, 1.546e-6
-1.399, 1.594e-6
-1.398, 1.544e-6
-1.397, 1.536e-6
-1.396, 1.525e-6
-1.395, 1.468e-6
-1.394, 1.470e-6
-1.393, 1.498e-6
-1.392, 1.413e-6
-1.391, 1.397e-6
-1.390, 1.378e-6
-1.389, 1.395e-6
-1.388, 1.394e-6
-1.387, 1.385e-6
-1.386, 1.310e-6
-1.385, 1.331e-6
-1.384, 1.268e-6
-1.383, 1.252e-6
-1.382, 1.210e-6
-1.381, 1.177e-6
-1.380, 1.258e-6
-1.379, 1.211e-6
-1.378, 1.168e-6
-1.377, 1.169e-6
-1.376, 1.051e-6
-1.375, 1.109e-6
-1.374, 1.127e-6
-1.373, 1.103e-6
-1.372, 1.081e-6
-1.371, 1.032e-6
-1.370, 1.008e-6
-1.369, 1.027e-6
-1.368, 1.001e-6
-1.367, 9.854e-7
-1.366, 9.538e-7
-1.365, 9.400e-7
-1.364, 9.578e-7
-1.363, 9.173e-7
-1.362, 8.917e-7
-1.361, 8.976e-7
-1.360, 8.512e-7
-1.359, 8.848e-7
-1.358, 8.798e-7
-1.357, 8.187e-7
-1.356, 8.098e-7
-1.355, 8.118e-7
-1.354, 7.555e-7
-1.353, 7.970e-7
-1.352, 7.417e-7
-1.351, 7.250e-7
-1.350, 7.309e-7
-1.349, 6.993e-7
-1.348, 6.993e-7
-1.347, 6.825e-7
-1.346, 6.263e-7
-1.345, 6.381e-7
-1.344, 6.756e-7
-1.343, 6.214e-7
-1.342, 5.888e-7
-1.341, 4.970e-7
-1.340, 5.434e-7
-1.339, 5.779e-7
-1.338, 5.424e-7
-1.337, 5.355e-7
-1.336, 5.109e-7
-1.335, 4.951e-7
-1.334, 4.901e-7
-1.333, 4.694e-7
-1.332, 4.517e-7
-1.331, 4.359e-7
-1.330, 4.250e-7
-1.329, 3.944e-7
-1.328, 4.152e-7
-1.327, 3.648e-7
-1.326, 3.540e-7
-1.325, 3.648e-7
-1.324, 3.550e-7
-1.323, 3.619e-7
-1.322, 2.662e-7
-1.321, 2.563e-7
-1.320, 2.938e-7
-1.319, 2.721e-7
-1.318, 2.622e-7
-1.317, 2.691e-7
-1.316, 2.188e-7
-1.315, 2.247e-7
-1.314, 2.080e-7
-1.313, 2.129e-7
-1.312, 1.882e-7
-1.311, 1.813e-7
-1.310, 1.685e-7
-1.309, 1.873e-7
-1.308, 1.142e-7
-1.307, 1.310e-7
-1.306, 6.689e-8
-1.305, 1.369e-7
-1.304, 1.241e-7
-1.303, 9.748e-8
-1.302, 7.478e-8
-1.301, 1.164e-8
-1.300, 3.532e-8
-1.299, 5.801e-8
-1.298, 4.815e-8
-1.297, 2.940e-8
-1.296, -2.980e-8
-1.295, -4.144e-9
-1.294, -4.459e-8
-1.293, -4.854e-8
-1.292, -3.473e-8
-1.291, -1.186e-7
-1.290, -8.800e-8
-1.289, -2.782e-8
-1.288, -9.886e-8
-1.287, -1.048e-7
-1.286, -1.452e-7
-1.285, -1.304e-7
-1.284, -1.008e-7
-1.283, -1.373e-7
-1.282, -1.531e-7
-1.281, -1.294e-7
-1.280, -2.015e-7
-1.279, -1.344e-7
-1.278, -2.399e-7
-1.277, -2.212e-7
-1.276, -2.212e-7
-1.275, -2.390e-7
-1.274, -1.738e-7
-1.273, -2.478e-7
-1.272, -2.597e-7
-1.271, -2.715e-7
-1.270, -3.228e-7
-1.269, -2.646e-7
-1.268, -2.981e-7
-1.267, -3.396e-7
-1.266, -2.893e-7
-1.265, -3.041e-7
-1.264, -2.883e-7
-1.263, -3.218e-7
-1.262, -3.682e-7
-1.261, -3.524e-7
-1.260, -3.761e-7
-1.259, -3.662e-7
-1.258, -3.386e-7
-1.257, -3.998e-7
-1.256, -3.721e-7
-1.255, -4.284e-7
-1.254, -3.978e-7
-1.253, -3.998e-7
-1.252, -4.787e-7
-1.251, -4.353e-7
-1.250, -4.866e-7
-1.249, -4.274e-7
-1.248, -4.225e-7
-1.247, -4.698e-7
-1.246, -4.432e-7
-1.245, -4.343e-7
-1.244, -4.836e-7
-1.243, -4.757e-7
-1.242, -4.905e-7
-1.241, -5.685e-7
-1.240, -5.034e-7
-1.239, -5.034e-7
-1.238, -4.698e-7
-1.237, -5.162e-7
-1.236, -5.537e-7
-1.235, -5.142e-7
-1.234, -5.241e-7
-1.233, -5.379e-7
-1.232, -5.665e-7
-1.231, -6.148e-7
-1.230, -5.655e-7
-1.229, -5.764e-7
-1.228, -5.714e-7
-1.227, -5.912e-7
-1.226, -6.257e-7
-1.225, -6.030e-7
-1.224, -5.882e-7
-1.223, -6.602e-7
-1.222, -6.721e-7
-1.221, -6.869e-7
-1.220, -6.928e-7
-1.219, -6.257e-7
-1.218, -6.957e-7
-1.217, -6.543e-7
-1.216, -6.790e-7
-1.215, -6.869e-7
-1.214, -6.336e-7
-1.213, -6.839e-7
-1.212, -7.105e-7
-1.211, -7.549e-7
-1.210, -7.530e-7
-1.209, -6.691e-7
-1.208, -7.628e-7
-1.207, -7.589e-7
-1.206, -7.431e-7
-1.205, -7.559e-7
-1.204, -7.263e-7
-1.203, -7.648e-7
-1.202, -8.082e-7
-1.201, -8.072e-7
-1.200, -8.694e-7
-1.199, -7.974e-7
-1.198, -8.122e-7
-1.197, -8.950e-7
-1.196, -8.635e-7
-1.195, -8.625e-7
-1.194, -8.635e-7
-1.193, -8.575e-7
-1.192, -9.266e-7
-1.191, -9.049e-7
-1.190, -9.384e-7
-1.189, -9.029e-7
-1.188, -8.980e-7
-1.187, -9.562e-7
-1.186, -9.365e-7
-1.185, -9.473e-7
-1.184, -9.424e-7
-1.183, -9.710e-7
-1.182, -9.907e-7
-1.181, -1.055e-6
-1.180, -9.878e-7
-1.179, -1.015e-6
-1.178, -1.027e-6
-1.177, -1.069e-6
-1.176, -1.099e-6
-1.175, -1.035e-6
-1.174, -1.059e-6
-1.173, -1.049e-6
-1.172, -1.095e-6
-1.171, -1.163e-6
-1.170, -1.059e-6
-1.169, -1.082e-6
-1.168, -1.074e-6
-1.167, -1.152e-6
-1.166, -1.214e-6
-1.165, -1.185e-6
-1.164, -1.175e-6
-1.163, -1.215e-6
-1.162, -1.196e-6
-1.161, -1.243e-6
-1.160, -1.239e-6
-1.159, -1.206e-6
-1.158, -1.258e-6
-1.157, -1.230e-6
-1.156, -1.289e-6
-1.155, -1.285e-6
-1.154, -1.268e-6
-1.153, -1.351e-6
-1.152, -1.321e-6
-1.151, -1.376e-6
-1.150, -1.378e-6
-1.149, -1.327e-6
-1.148, -1.423e-6
-1.147, -1.418e-6
-1.146, -1.430e-6
-1.145, -1.463e-6
-1.144, -1.425e-6
-1.143, -1.502e-6
-1.142, -1.522e-6
-1.141, -1.500e-6
-1.140, -1.531e-6
-1.139, -1.515e-6
-1.138, -1.543e-6
-1.137, -1.590e-6
-1.136, -1.567e-6
-1.135, -1.632e-6
-1.134, -1.613e-6
-1.133, -1.659e-6
-1.132, -1.699e-6
-1.131, -1.683e-6
-1.130, -1.719e-6
-1.129, -1.677e-6
-1.128, -1.693e-6
-1.127, -1.780e-6
-1.126, -1.784e-6
-1.125, -1.812e-6
-1.124, -1.840e-6
-1.123, -1.831e-6
-1.122, -1.948e-6
-1.121, -1.890e-6
-1.120, -1.913e-6
-1.119, -1.950e-6
-1.118, -1.938e-6
-1.117, -2.029e-6
-1.116, -2.020e-6
-1.115, -2.073e-6
-1.114, -2.073e-6
-1.113, -2.076e-6
-1.112, -2.131e-6
-1.111, -2.158e-6
-1.110, -2.133e-6
-1.109, -2.201e-6
-1.108, -2.218e-6
-1.107, -2.292e-6
-1.106, -2.354e-6
-1.105, -2.348e-6
-1.104, -2.404e-6
-1.103, -2.413e-6
-1.102, -2.425e-6
-1.101, -2.502e-6
-1.100, -2.488e-6
-1.099, -2.535e-6
-1.098, -2.576e-6
-1.097, -2.628e-6
-1.096, -2.672e-6
-1.095, -2.679e-6
-1.094, -2.748e-6
-1.093, -2.777e-6
-1.092, -2.778e-6
-1.091, -2.867e-6
-1.090, -2.880e-6
-1.089, -2.946e-6
-1.088, -3.026e-6
-1.087, -3.021e-6
-1.086, -3.126e-6
-1.085, -3.092e-6
-1.084, -3.152e-6
-1.083, -3.198e-6
-1.082, -3.260e-6
-1.081, -3.313e-6
-1.080, -3.334e-6
-1.079, -3.418e-6
-1.078, -3.482e-6
-1.077, -3.526e-6
-1.076, -3.581e-6
-1.075, -3.634e-6
-1.074, -3.660e-6
-1.073, -3.774e-6
-1.072, -3.831e-6
-1.071, -3.925e-6
-1.070, -3.960e-6
-1.069, -3.994e-6
-1.068, -4.129e-6
-1.067, -4.193e-6
-1.066, -4.274e-6
-1.065, -4.310e-6
-1.064, -4.343e-6
-1.063, -4.459e-6
-1.062, -4.526e-6
-1.061, -4.608e-6
-1.060, -4.738e-6
-1.059, -4.779e-6
-1.058, -4.848e-6
-1.057, -4.960e-6
-1.056, -5.029e-6
-1.055, -5.104e-6
-1.054, -5.190e-6
-1.053, -5.290e-6
-1.052, -5.422e-6
-1.051, -5.505e-6
-1.050, -5.619e-6
-1.049, -5.705e-6
-1.048, -5.789e-6
-1.047, -5.938e-6
-1.046, -6.022e-6
-1.045, -6.072e-6
-1.044, -6.207e-6
-1.043, -6.308e-6
-1.042, -6.447e-6
-1.041, -6.560e-6
-1.040, -6.689e-6
-1.039, -6.779e-6
-1.038, -6.840e-6
-1.037, -7.026e-6
-1.036, -7.100e-6
-1.035, -7.190e-6
-1.034, -7.315e-6
-1.033, -7.463e-6
-1.032, -7.593e-6
-1.031, -7.736e-6
-1.030, -7.815e-6
-1.029, -7.903e-6
-1.028, -8.014e-6
-1.027, -8.152e-6
-1.026, -8.266e-6
-1.025, -8.331e-6
-1.024, -8.497e-6
-1.023, -8.635e-6
-1.022, -8.759e-6
-1.021, -8.880e-6
-1.020, -8.906e-6
-1.019, -9.026e-6
-1.018, -9.131e-6
-1.017, -9.222e-6
-1.016, -9.402e-6
-1.015, -9.456e-6
-1.014, -9.577e-6
-1.013, -9.703e-6
-1.012, -9.801e-6
-1.011, -9.925e-6
-1.010, -9.946e-6
-1.009, -1.001e-5
-1.008, -1.013e-5
-1.007, -1.018e-5
-1.006, -1.029e-5
-1.005, -1.033e-5
-1.004, -1.040e-5
-1.003, -1.051e-5
-1.002, -1.057e-5
-1.001, -1.067e-5
