Potential V vs RHE, Current mA cm-2
0.013299999999999867,-0.1766974413531431
0.012299999999999978,-0.7437137303390498
0.011299999999999866,-1.0925815368857679
0.010299999999999976,-1.3980177065266295
0.009299999999999864,-1.6156003044458718
0.008299999999999974,-1.7910245056291363
0.007299999999999862,-1.9650339955125358
0.006299999999999972,-2.095187435100119
0.00529999999999986,-2.1828995356917518
0.0042999999999999705,-2.3144676865791998
0.0032999999999998586,-2.3569090255751513
0.0022999999999999687,-2.4007650758709675
0.0012999999999998568,-2.4446211261667834
0.00029999999999996696,-2.4884771764625997
-0.000700000000000145,-2.532333226758415
-0.0017000000000000348,-2.576189277054232
-0.0027000000000001467,-2.618630616050183
-0.0037000000000000366,-2.662486666345999
-0.0047000000000001485,-2.706342716641815
-0.005700000000000038,-2.7501987669376318
-0.00670000000000015,-2.794054817233447
-0.00770000000000004,-2.8379108675292635
-0.008700000000000152,-2.8379108675292635
-0.009700000000000042,-2.8803522065252145
-0.010700000000000154,-2.8803522065252145
-0.011700000000000044,-2.8803522065252145
-0.012700000000000156,-2.8803522065252145
-0.013700000000000045,-2.8803522065252145
-0.014700000000000157,-2.8803522065252145
-0.015700000000000047,-2.8803522065252145
-0.01670000000000016,-2.924208256821031
-0.01770000000000005,-2.968064307116847
-0.01870000000000016,-2.968064307116847
-0.01970000000000005,-3.0119203574126634
-0.020700000000000163,-3.0119203574126634
-0.021700000000000053,-3.0119203574126634
-0.022700000000000164,-3.0119203574126634
-0.023700000000000054,-3.0119203574126634
-0.024700000000000166,-3.0119203574126634
-0.025700000000000056,-3.0119203574126634
-0.026700000000000168,-2.968064307116847
-0.027700000000000058,-3.0119203574126634
-0.02870000000000017,-3.0119203574126634
-0.02970000000000006,-3.0119203574126634
-0.03070000000000017,-3.055776407708479
-0.03170000000000006,-3.055776407708479
-0.03270000000000017,-3.0996324580042955
-0.03370000000000006,-3.0996324580042955
-0.034700000000000175,-3.0996324580042955
-0.035700000000000065,-3.1420737970002466
-0.03670000000000018,-3.0996324580042955
-0.03770000000000007,-3.0996324580042955
-0.03870000000000018,-3.055776407708479
-0.03970000000000007,-3.055776407708479
-0.04070000000000018,-3.055776407708479
-0.04170000000000007,-3.055776407708479
-0.04270000000000018,-3.0996324580042955
-0.04370000000000007,-3.0996324580042955
-0.044700000000000184,-3.0996324580042955
-0.045700000000000074,-3.1420737970002466
-0.046700000000000186,-3.1420737970002466
-0.047700000000000076,-3.1420737970002466
-0.04870000000000019,-3.1859298472960624
-0.04970000000000008,-3.1420737970002466
-0.05070000000000019,-3.1420737970002466
-0.05170000000000008,-3.0996324580042955
-0.05270000000000019,-3.1420737970002466
-0.05370000000000008,-3.0996324580042955
-0.05470000000000019,-3.0996324580042955
-0.05570000000000008,-3.0996324580042955
-0.056700000000000195,-3.0996324580042955
-0.057700000000000085,-3.1420737970002466
-0.058700000000000196,-3.1859298472960624
-0.059700000000000086,-3.1859298472960624
-0.0607000000000002,-3.1859298472960624
-0.06170000000000009,-3.1859298472960624
-0.0627000000000002,-3.1859298472960624
-0.06370000000000009,-3.1859298472960624
-0.0647000000000002,-3.1859298472960624
-0.06570000000000009,-3.1420737970002466
-0.0667000000000002,-3.1420737970002466
-0.0677000000000001,-3.1420737970002466
-0.0687000000000002,-3.1420737970002466
-0.0697000000000001,-3.1420737970002466
-0.07070000000000021,-3.1859298472960624
-0.0717000000000001,-3.1859298472960624
-0.07270000000000021,-3.1859298472960624
-0.0737000000000001,-3.1859298472960624
-0.07470000000000021,-3.1859298472960624
-0.0757000000000001,-3.2297858975918787
-0.07670000000000021,-3.1859298472960624
-0.0777000000000001,-3.1859298472960624
-0.07870000000000021,-3.1859298472960624
-0.0797000000000001,-3.1420737970002466
-0.08070000000000022,-3.1420737970002466
-0.0817000000000001,-3.1859298472960624
-0.08270000000000022,-3.1859298472960624
-0.08370000000000011,-3.1859298472960624
-0.08470000000000022,-3.1859298472960624
-0.08570000000000011,-3.1859298472960624
-0.08670000000000022,-3.2297858975918787
-0.08770000000000011,-3.273641947887695
-0.08870000000000022,-3.2297858975918787
-0.08970000000000011,-3.2297858975918787
-0.09070000000000022,-3.1859298472960624
-0.09170000000000011,-3.1859298472960624
-0.09270000000000023,-3.1859298472960624
-0.09370000000000012,-3.1859298472960624
-0.09470000000000023,-3.1859298472960624
-0.09570000000000012,-3.1859298472960624
-0.09670000000000023,-3.1859298472960624
-0.09770000000000012,-3.2297858975918787
-0.09870000000000023,-3.2297858975918787
-0.09970000000000012,-3.273641947887695
-0.10070000000000023,-3.273641947887695
-0.10170000000000012,-3.273641947887695
-0.10270000000000024,-3.2297858975918787
-0.10370000000000013,-3.2297858975918787
-0.10470000000000024,-3.2297858975918787
-0.10570000000000013,-3.2297858975918787
-0.10670000000000024,-3.1859298472960624
-0.10770000000000013,-3.1859298472960624
-0.10870000000000024,-3.1859298472960624
-0.10970000000000013,-3.2297858975918787
-0.11070000000000024,-3.2297858975918787
-0.11170000000000013,-3.273641947887695
-0.11270000000000002,-3.273641947887695
-0.11370000000000013,-3.273641947887695
-0.11470000000000002,-3.273641947887695
-0.11570000000000014,-3.273641947887695
-0.11670000000000003,-3.273641947887695
-0.11770000000000014,-3.273641947887695
-0.11870000000000003,-3.2297858975918787
-0.11970000000000014,-3.2297858975918787
-0.12070000000000003,-3.2297858975918787
-0.12170000000000014,-3.2297858975918787
-0.12270000000000003,-3.2297858975918787
-0.12370000000000014,-3.2297858975918787
-0.12470000000000003,-3.273641947887695
-0.12570000000000014,-3.273641947887695
-0.12670000000000003,-3.317497998183511
-0.12770000000000015,-3.273641947887695
-0.12870000000000004,-3.317497998183511
-0.12970000000000015,-3.317497998183511
-0.13070000000000004,-3.273641947887695
-0.13170000000000015,-3.273641947887695
-0.13270000000000004,-3.273641947887695
-0.13370000000000015,-3.2297858975918787
-0.13470000000000004,-3.2297858975918787
-0.13570000000000015,-3.2297858975918787
-0.13670000000000004,-3.2297858975918787
-0.13770000000000016,-3.273641947887695
-0.13870000000000005,-3.317497998183511
-0.13970000000000016,-3.317497998183511
-0.14070000000000005,-3.317497998183511
-0.14170000000000016,-3.317497998183511
-0.14270000000000005,-3.317497998183511
-0.14370000000000016,-3.317497998183511
-0.14470000000000005,-3.317497998183511
-0.14570000000000016,-3.273641947887695
-0.14670000000000005,-3.2297858975918787
-0.14770000000000016,-3.273641947887695
-0.14870000000000005,-3.273641947887695
-0.14970000000000017,-3.273641947887695
-0.15070000000000006,-3.317497998183511
-0.15170000000000017,-3.317497998183511
-0.15270000000000006,-3.317497998183511
-0.15370000000000017,-3.361354048479327
-0.15470000000000006,-3.317497998183511
-0.15570000000000017,-3.361354048479327
-0.15670000000000006,-3.361354048479327
-0.15770000000000017,-3.317497998183511
-0.15870000000000006,-3.317497998183511
-0.15970000000000018,-3.317497998183511
-0.16070000000000007,-3.273641947887695
-0.16170000000000018,-3.273641947887695
-0.16270000000000007,-3.273641947887695
-0.16370000000000018,-3.317497998183511
-0.16470000000000007,-3.317497998183511
-0.16570000000000018,-3.361354048479327
-0.16670000000000007,-3.361354048479327
-0.16770000000000018,-3.361354048479327
-0.16870000000000007,-3.361354048479327
-0.16970000000000018,-3.361354048479327
-0.17070000000000007,-3.361354048479327
-0.17170000000000019,-3.361354048479327
-0.17270000000000008,-3.317497998183511
-0.1737000000000002,-3.317497998183511
-0.17470000000000008,-3.317497998183511
-0.1757000000000002,-3.317497998183511
-0.17670000000000008,-3.361354048479327
-0.1777000000000002,-3.361354048479327
-0.17870000000000008,-3.403795387475278
-0.1797000000000002,-3.403795387475278
-0.18070000000000008,-3.403795387475278
-0.1817000000000002,-3.403795387475278
-0.18270000000000008,-3.403795387475278
-0.1837000000000002,-3.403795387475278
-0.1847000000000001,-3.403795387475278
-0.1857000000000002,-3.361354048479327
-0.1867000000000001,-3.361354048479327
-0.1877000000000002,-3.361354048479327
-0.1887000000000001,-3.361354048479327
-0.1897000000000002,-3.403795387475278
-0.1907000000000001,-3.447651437771094
-0.1917000000000001,-3.447651437771094
-0.19269999999999998,-3.447651437771094
-0.1937000000000001,-3.4915074880669104
-0.19469999999999998,-3.4915074880669104
-0.1957000000000001,-3.4915074880669104
-0.19669999999999999,-3.4915074880669104
-0.1977000000000001,-3.447651437771094
-0.1987,-3.447651437771094
-0.1997000000000001,-3.447651437771094
-0.2007,-3.447651437771094
-0.2017000000000001,-3.447651437771094
-0.2027,-3.447651437771094
-0.2037000000000001,-3.447651437771094
-0.2047,-3.4915074880669104
-0.2057000000000001,-3.5353635383627267
-0.2067,-3.579219588658543
-0.2077000000000001,-3.5353635383627267
-0.2087,-3.579219588658543
-0.2097000000000001,-3.579219588658543
-0.2107,-3.579219588658543
-0.2117000000000001,-3.5353635383627267
-0.2127,-3.5353635383627267
-0.2137000000000001,-3.5353635383627267
-0.2147,-3.5353635383627267
-0.2157000000000001,-3.579219588658543
-0.2167,-3.579219588658543
-0.21770000000000012,-3.579219588658543
-0.2187,-3.623075638954359
-0.21970000000000012,-3.6655169779503103
-0.2207,-3.6655169779503103
-0.22170000000000012,-3.6655169779503103
-0.2227,-3.7093730282461257
-0.22370000000000012,-3.6655169779503103
-0.2247,-3.6655169779503103
-0.22570000000000012,-3.7093730282461257
-0.2267,-3.6655169779503103
-0.22770000000000012,-3.6655169779503103
-0.22870000000000001,-3.7093730282461257
-0.22970000000000013,-3.7093730282461257
-0.23070000000000002,-3.7532290785419424
-0.23170000000000013,-3.7970851288377587
-0.23270000000000002,-3.7970851288377587
-0.23370000000000013,-3.840941179133574
-0.23470000000000002,-3.840941179133574
-0.23570000000000013,-3.840941179133574
-0.23670000000000002,-3.840941179133574
-0.2376999999999999,-3.840941179133574
-0.23870000000000002,-3.840941179133574
-0.2396999999999999,-3.840941179133574
-0.24070000000000003,-3.840941179133574
-0.24169999999999991,-3.884797229429391
-0.24270000000000003,-3.884797229429391
-0.24369999999999992,-3.927238568425342
-0.24470000000000003,-3.971094618721158
-0.24569999999999992,-3.971094618721158
-0.24670000000000003,-4.014950669016974
-0.24769999999999992,-4.0588067193127895
-0.24870000000000003,-4.0588067193127895
-0.24969999999999992,-4.102662769608606
-0.25070000000000003,-4.0588067193127895
-0.2516999999999999,-4.102662769608606
-0.25270000000000004,-4.102662769608606
-0.2536999999999999,-4.102662769608606
-0.25470000000000004,-4.102662769608606
-0.2556999999999999,-4.146518819904423
-0.25670000000000004,-4.1889601589003735
-0.25769999999999993,-4.23281620919619
-0.25870000000000004,-4.276672259492005
-0.25969999999999993,-4.276672259492005
-0.26070000000000004,-4.3205283097878215
-0.26169999999999993,-4.3205283097878215
-0.26270000000000004,-4.364384360083638
-0.26369999999999993,-4.364384360083638
-0.26470000000000005,-4.406825699079589
-0.26569999999999994,-4.406825699079589
-0.26670000000000005,-4.406825699079589
-0.26769999999999994,-4.450681749375406
-0.26870000000000005,-4.450681749375406
-0.26969999999999994,-4.494537799671222
-0.27070000000000005,-4.582249900262854
-0.27169999999999994,-4.582249900262854
-0.27270000000000005,-4.668547289554621
-0.27369999999999994,-4.668547289554621
-0.27470000000000006,-4.712403339850438
-0.27569999999999995,-4.756259390146253
-0.27670000000000006,-4.756259390146253
-0.27769999999999995,-4.756259390146253
-0.27870000000000006,-4.800115440442069
-0.27969999999999995,-4.800115440442069
-0.28070000000000006,-4.843971490737885
-0.28169999999999995,-4.843971490737885
-0.28270000000000006,-4.9302688800296535
-0.28369999999999995,-4.974124930325469
-0.28470000000000006,-5.017980980621284
-0.28569999999999995,-5.0618370309171015
-0.28670000000000007,-5.149549131508733
-0.28769999999999996,-5.149549131508733
-0.28870000000000007,-5.191990470504685
-0.28969999999999996,-5.235846520800501
-0.29070000000000007,-5.279702571096316
-0.29169999999999996,-5.279702571096316
-0.29270000000000007,-5.323558621392133
-0.29369999999999996,-5.323558621392133
-0.2947000000000001,-5.367414671687949
-0.29569999999999996,-5.411270721983764
-0.2967000000000001,-5.497568111275533
-0.29769999999999996,-5.5414241615713475
-0.2987000000000001,-5.629136262162981
-0.29969999999999997,-5.672992312458796
-0.3007000000000001,-5.715433651454749
-0.30169999999999997,-5.80314575204638
-0.3027000000000001,-5.847001802342197
-0.30369999999999997,-5.847001802342197
-0.3047000000000001,-5.890857852638012
-0.30569999999999997,-5.9347139029338285
-0.3067000000000001,-5.977155241929781
-0.3077,-6.021011292225596
-0.3087000000000001,-6.064867342521412
-0.3097,-6.108723392817228
-0.3107000000000001,-6.238876832404812
-0.3117,-6.282732882700628
-0.3127000000000001,-6.37044498329226
-0.3137,-6.458157083883892
-0.3147000000000001,-6.500598422879844
-0.3157,-6.588310523471475
-0.3167000000000001,-6.632166573767292
-0.3177,-6.632166573767292
-0.3187000000000001,-6.6760226240631075
-0.3197,-6.719878674358924
-0.3207000000000001,-6.806176063650692
-0.3217,-6.850032113946507
-0.3227000000000001,-6.93774421453814
-0.3237,-7.024041603829907
-0.3247000000000001,-7.111753704421539
-0.3257,-7.199465805013171
-0.3267000000000001,-7.329619244600755
-0.3277,-7.4173313451923875
-0.3287000000000001,-7.50504344578402
-0.3297,-7.5474847847799715
-0.3307000000000001,-7.591340835075788
-0.3317,-7.679052935667419
-0.3327000000000001,-7.7653503249591855
-0.3337,-7.853062425550818
-0.3347000000000001,-7.896918475846635
-0.3357,-7.984630576438266
-0.3367000000000001,-8.070927965730034
-0.3377,-8.158640066321666
-0.3387000000000001,-8.246352166913299
-0.3397,-8.376505606500881
-0.3407000000000001,-8.464217707092514
-0.3417,-8.55051509638428
-0.3427000000000001,-8.638227196975913
-0.3437,-8.725939297567548
-0.3447000000000001,-8.812236686859313
-0.3457,-8.899948787450944
-0.3467000000000001,-8.987660888042578
-0.3477,-9.073958277334345
-0.3487000000000001,-9.161670377925978
-0.3497,-9.293238528813426
-0.3507000000000001,-9.423391968401008
-0.3517,-9.55496011928846
-0.3527000000000001,-9.685113558876042
-0.3537,-9.81668170976349
-0.3547000000000001,-9.946835149351072
-0.3557,-10.078403300238522
-0.35670000000000013,-10.164700689530287
-0.3577,-10.25241279012192
-0.35870000000000013,-10.382566229709504
-0.3597,-10.470278330301136
-0.36070000000000013,-10.644287820184536
-0.3617,-10.775855971071984
-0.3626999999999999,-10.906009410659568
-0.3637,-11.037577561547016
-0.3646999999999999,-11.1677310011346
-0.3657,-11.343155202317865
-0.3666999999999999,-11.473308641905447
-0.3677,-11.604876792792895
-0.3686999999999999,-11.73503023238048
-0.36970000000000003,-11.86659838326793
-0.3706999999999999,-11.996751822855511
-0.37170000000000003,-12.12831997374296
-0.3726999999999999,-12.302329463626359
-0.37370000000000003,-12.432482903213943
-0.3746999999999999,-12.607907104397206
-0.37570000000000003,-12.73806054398479
-0.3766999999999999,-12.913484745168056
-0.37770000000000004,-13.13135028534727
-0.3786999999999999,-13.349215825526485
-0.37970000000000004,-13.523225315409885
-0.3806999999999999,-13.698649516593148
-0.38170000000000004,-13.872659006476551
-0.38269999999999993,-14.046668496359947
-0.38370000000000004,-14.217848563643619
-0.38469999999999993,-14.345172580631472
-0.38570000000000004,-14.529085049613924
-0.38669999999999993,-14.65640906660178
-0.38770000000000004,-14.868615761581536
-0.38869999999999993,-15.05252823056399
-0.38970000000000005,-15.264734925543747
-0.39069999999999994,-15.448647394526201
-0.39170000000000005,-15.660854089505953
-0.39269999999999994,-15.91550212348166
-0.39370000000000005,-16.141855931460068
-0.39469999999999994,-16.354062626439823
-0.39570000000000005,-16.580416434418233
-0.39669999999999994,-16.792623129397985
-0.39770000000000005,-16.962388485381787
-0.39869999999999994,-17.188742293360193
-0.39970000000000006,-17.358507649344002
-0.40069999999999995,-17.584861457322408
-0.40170000000000006,-17.797068152302163
-0.40269999999999995,-18.009274847281915
-0.40370000000000006,-18.27806999425627
-0.40469999999999995,-18.49027668923603
-0.40570000000000006,-18.759071836210385
-0.40669999999999995,-19.056161209182044
-0.40770000000000006,-19.3249563561564
-0.40869999999999995,-19.579604390132108
-0.40970000000000006,-19.848399537106463
-0.41069999999999995,-20.06060623208622
-0.41170000000000007,-20.329401379060574
-0.41269999999999996,-20.541608074040333
-0.41370000000000007,-20.810403221014692
-0.41469999999999996,-21.065051254990397
-0.41570000000000007,-21.333846401964752
-0.41669999999999996,-21.58849443594046
-0.41770000000000007,-21.899730921910766
-0.41869999999999996,-22.15437895588647
-0.4197000000000001,-22.46561544185678
-0.42069999999999996,-22.776851927827092
-0.4217000000000001,-23.031499961802798
-0.42269999999999996,-23.300295108777156
-0.4237000000000001,-23.597384481748815
-0.42469999999999997,-23.908620967719123
-0.4257000000000001,-24.20571034069078
-0.42669999999999997,-24.516946826661083
-0.4277000000000001,-24.814036199632742
-0.42869999999999997,-25.12527268560305
-0.4297000000000001,-25.478950510569312
-0.43069999999999997,-25.77603988354097
-0.4317000000000001,-26.129717708507226
-0.4327,-26.440954194477534
-0.4337000000000001,-26.780484906445146
-0.4347,-27.091721392415455
-0.4357000000000001,-27.43125210438306
-0.4367,-27.78492992934932
-0.4377000000000001,-28.09616641531963
-0.4387,-28.393255788291288
-0.4397000000000001,-28.704492274261593
-0.4407,-29.001581647233255
-0.4417000000000001,-29.35525947219951
-0.4427,-29.708937297165768
-0.4437000000000001,-30.04846800913338
-0.4447,-30.444587173095588
-0.4457000000000001,-30.8407063370578
-0.4467,-31.23682550102001
-0.4477000000000001,-31.57635621298762
-0.4487,-31.972475376949827
-0.4497000000000001,-32.368594540912035
-0.4507,-32.70812525287965
-0.4517000000000001,-33.01936173884996
-0.4527,-33.373039563816214
-0.4537000000000001,-33.755011614779775
-0.4547,-34.15113077874198
-0.4557000000000001,-34.5472499427042
-0.4567,-34.94336910666641
-0.4577000000000001,-35.32534115762997
-0.4587,-35.763901660588125
-0.4597000000000001,-36.16002082455034
-0.4607,-36.55613998851254
-0.4617000000000001,-36.95225915247476
-0.4627,-37.334231203438314
-0.4637000000000001,-37.73035036740053
-0.4647,-38.08402819236679
-0.4657000000000001,-38.46600024333035
-0.4667,-38.86211940729255
-0.4677000000000001,-39.258238571254765
-0.4687,-39.61191639622103
-0.4697000000000001,-40.03632978618054
-0.4707,-40.4748902891387
-0.4717000000000001,-40.91345079209687
-0.4727,-41.30956995605907
-0.4737000000000001,-41.74813045901723
-0.4747,-42.186690961975394
-0.4757000000000001,-42.6111043519349
-0.4767,-42.96478217690117
-0.4777000000000001,-43.40334267985933
-0.4787,-43.79946184382153
-0.4797000000000001,-44.181433894785094
-0.4807,-44.577553058747306
-0.48170000000000013,-45.01611356170547
-0.4827,-45.497115403659585
-0.48370000000000013,-45.97811724561369
-0.4847,-46.45911908756781
-0.48570000000000013,-46.94012092952192
-0.4867,-47.40697565847737
-0.4876999999999999,-47.84553616143554
-0.4887,-48.2840966643937
-0.4896999999999999,-48.72265716735186
-0.4907,-49.118776331314066
-0.4916999999999999,-49.50074838227763
-0.4927,-49.89686754623985
-0.4936999999999999,-50.29298671020206
-0.49470000000000003,-50.73154721316022
-0.4956999999999999,-51.127666377122424
-0.49670000000000003,-51.594521106077885
-0.4976999999999999,-52.11796428702795
-0.49870000000000003,-52.59896612898206
-0.4996999999999999,-53.079967970936174
-0.5007,-53.56096981289029
-0.5016999999999999,-53.999530315848446
-0.5027,-54.480532157802564
-0.5036999999999999,-54.919092660760725
-0.5047,-55.31521182472294
-0.5056999999999999,-55.65474253669055
-0.5067,-55.96597902266086
-0.5076999999999999,-56.404539525619015
