June 26, 2026   08:06:41
Cyclic Voltammetry
File: c:/users/guazh/data/20260623_doe_duplica2/2026-06-24-exp13\exp13-2026-06-26t07_48_59-h2koh\exp13_cv_sr_100mvs_efin_-1700mv.bin
Data Source:  Experiment
Instrument Model:  CHI760E
Header: CV ran at 100 mVs
Note: 

Init E (V) = -1
High E (V) = -1
Low E (V) = -1.7
Final E (V) = -1
Init P/N = N
Scan Rate (V/s) = 0.1
Segment = 3
Sample Interval (V) = 0.001
Quiet Time (sec) = 2
Sensitivity (A/V) = 0.01
Comp R (ohm) = 2.3

Results:

Channel 1:
Segment 1:

Segment 2:

Segment 3:

Potential/V, Current/A

-1.000, 1.555e-5
-1.001, 2.580e-5
-1.002, 2.707e-5
-1.003, 2.744e-5
-1.004, 2.847e-5
-1.005, 2.850e-5
-1.006, 2.903e-5
-1.007, 2.969e-5
-1.008, 2.928e-5
-1.009, 3.013e-5
-1.010, 3.021e-5
-1.011, 3.036e-5
-1.012, 3.082e-5
-1.013, 3.095e-5
-1.014, 3.091e-5
-1.015, 3.146e-5
-1.016, 3.132e-5
-1.017, 3.170e-5
-1.018, 3.181e-5
-1.019, 3.173e-5
-1.020, 3.195e-5
-1.021, 3.201e-5
-1.022, 3.223e-5
-1.023, 3.258e-5
-1.024, 3.285e-5
-1.025, 3.267e-5
-1.026, 3.309e-5
-1.027, 3.285e-5
-1.028, 3.309e-5
-1.029, 3.334e-5
-1.030, 3.326e-5
-1.031, 3.362e-5
-1.032, 3.343e-5
-1.033, 3.358e-5
-1.034, 3.397e-5
-1.035, 3.373e-5
-1.036, 3.395e-5
-1.037, 3.403e-5
-1.038, 3.408e-5
-1.039, 3.423e-5
-1.040, 3.401e-5
-1.041, 3.426e-5
-1.042, 3.458e-5
-1.043, 3.424e-5
-1.044, 3.485e-5
-1.045, 3.464e-5
-1.046, 3.456e-5
-1.047, 3.503e-5
-1.048, 3.472e-5
-1.049, 3.509e-5
-1.050, 3.499e-5
-1.051, 3.492e-5
-1.052, 3.519e-5
-1.053, 3.505e-5
-1.054, 3.533e-5
-1.055, 3.541e-5
-1.056, 3.544e-5
-1.057, 3.565e-5
-1.058, 3.564e-5
-1.059, 3.544e-5
-1.060, 3.571e-5
-1.061, 3.556e-5
-1.062, 3.570e-5
-1.063, 3.616e-5
-1.064, 3.581e-5
-1.065, 3.599e-5
-1.066, 3.624e-5
-1.067, 3.592e-5
-1.068, 3.626e-5
-1.069, 3.609e-5
-1.070, 3.598e-5
-1.071, 3.672e-5
-1.072, 3.628e-5
-1.073, 3.647e-5
-1.074, 3.656e-5
-1.075, 3.663e-5
-1.076, 3.681e-5
-1.077, 3.669e-5
-1.078, 3.657e-5
-1.079, 3.702e-5
-1.080, 3.676e-5
-1.081, 3.697e-5
-1.082, 3.705e-5
-1.083, 3.690e-5
-1.084, 3.720e-5
-1.085, 3.694e-5
-1.086, 3.691e-5
-1.087, 3.746e-5
-1.088, 3.705e-5
-1.089, 3.736e-5
-1.090, 3.758e-5
-1.091, 3.736e-5
-1.092, 3.771e-5
-1.093, 3.754e-5
-1.094, 3.762e-5
-1.095, 3.797e-5
-1.096, 3.755e-5
-1.097, 3.770e-5
-1.098, 3.789e-5
-1.099, 3.785e-5
-1.100, 3.793e-5
-1.101, 3.810e-5
-1.102, 3.796e-5
-1.103, 3.838e-5
-1.104, 3.803e-5
-1.105, 3.825e-5
-1.106, 3.849e-5
-1.107, 3.816e-5
-1.108, 3.857e-5
-1.109, 3.861e-5
-1.110, 3.837e-5
-1.111, 3.873e-5
-1.112, 3.863e-5
-1.113, 3.871e-5
-1.114, 3.910e-5
-1.115, 3.870e-5
-1.116, 3.910e-5
-1.117, 3.892e-5
-1.118, 3.921e-5
-1.119, 3.957e-5
-1.120, 3.905e-5
-1.121, 3.941e-5
-1.122, 3.981e-5
-1.123, 3.917e-5
-1.124, 3.984e-5
-1.125, 3.946e-5
-1.126, 3.978e-5
-1.127, 4.004e-5
-1.128, 3.998e-5
-1.129, 4.005e-5
-1.130, 4.005e-5
-1.131, 4.014e-5
-1.132, 4.046e-5
-1.133, 4.053e-5
-1.134, 4.043e-5
-1.135, 4.087e-5
-1.136, 4.066e-5
-1.137, 4.099e-5
-1.138, 4.090e-5
-1.139, 4.106e-5
-1.140, 4.129e-5
-1.141, 4.133e-5
-1.142, 4.128e-5
-1.143, 4.169e-5
-1.144, 4.165e-5
-1.145, 4.181e-5
-1.146, 4.201e-5
-1.147, 4.187e-5
-1.148, 4.226e-5
-1.149, 4.232e-5
-1.150, 4.237e-5
-1.151, 4.285e-5
-1.152, 4.289e-5
-1.153, 4.289e-5
-1.154, 4.330e-5
-1.155, 4.316e-5
-1.156, 4.371e-5
-1.157, 4.346e-5
-1.158, 4.357e-5
-1.159, 4.414e-5
-1.160, 4.391e-5
-1.161, 4.414e-5
-1.162, 4.445e-5
-1.163, 4.457e-5
-1.164, 4.505e-5
-1.165, 4.489e-5
-1.166, 4.536e-5
-1.167, 4.571e-5
-1.168, 4.533e-5
-1.169, 4.590e-5
-1.170, 4.614e-5
-1.171, 4.631e-5
-1.172, 4.680e-5
-1.173, 4.671e-5
-1.174, 4.716e-5
-1.175, 4.765e-5
-1.176, 4.735e-5
-1.177, 4.809e-5
-1.178, 4.852e-5
-1.179, 4.838e-5
-1.180, 4.874e-5
-1.181, 4.913e-5
-1.182, 4.935e-5
-1.183, 4.985e-5
-1.184, 4.985e-5
-1.185, 5.038e-5
-1.186, 5.075e-5
-1.187, 5.089e-5
-1.188, 5.149e-5
-1.189, 5.168e-5
-1.190, 5.194e-5
-1.191, 5.291e-5
-1.192, 5.274e-5
-1.193, 5.324e-5
-1.194, 5.367e-5
-1.195, 5.406e-5
-1.196, 5.467e-5
-1.197, 5.486e-5
-1.198, 5.545e-5
-1.199, 5.624e-5
-1.200, 5.611e-5
-1.201, 5.701e-5
-1.202, 5.760e-5
-1.203, 5.791e-5
-1.204, 5.861e-5
-1.205, 5.879e-5
-1.206, 5.954e-5
-1.207, 6.026e-5
-1.208, 6.057e-5
-1.209, 6.134e-5
-1.210, 6.208e-5
-1.211, 6.242e-5
-1.212, 6.338e-5
-1.213, 6.377e-5
-1.214, 6.436e-5
-1.215, 6.494e-5
-1.216, 6.583e-5
-1.217, 6.647e-5
-1.218, 6.727e-5
-1.219, 6.797e-5
-1.220, 6.886e-5
-1.221, 6.958e-5
-1.222, 7.013e-5
-1.223, 7.122e-5
-1.224, 7.200e-5
-1.225, 7.276e-5
-1.226, 7.383e-5
-1.227, 7.464e-5
-1.228, 7.602e-5
-1.229, 7.725e-5
-1.230, 7.728e-5
-1.231, 7.863e-5
-1.232, 7.974e-5
-1.233, 8.039e-5
-1.234, 8.186e-5
-1.235, 8.258e-5
-1.236, 8.388e-5
-1.237, 8.464e-5
-1.238, 8.595e-5
-1.239, 8.735e-5
-1.240, 8.807e-5
-1.241, 8.957e-5
-1.242, 9.092e-5
-1.243, 9.196e-5
-1.244, 9.369e-5
-1.245, 9.446e-5
-1.246, 9.599e-5
-1.247, 9.776e-5
-1.248, 9.852e-5
-1.249, 1.001e-4
-1.250, 1.017e-4
-1.251, 1.033e-4
-1.252, 1.048e-4
-1.253, 1.060e-4
-1.254, 1.079e-4
-1.255, 1.093e-4
-1.256, 1.111e-4
-1.257, 1.126e-4
-1.258, 1.143e-4
-1.259, 1.158e-4
-1.260, 1.172e-4
-1.261, 1.194e-4
-1.262, 1.209e-4
-1.263, 1.231e-4
-1.264, 1.248e-4
-1.265, 1.264e-4
-1.266, 1.286e-4
-1.267, 1.309e-4
-1.268, 1.328e-4
-1.269, 1.349e-4
-1.270, 1.368e-4
-1.271, 1.392e-4
-1.272, 1.411e-4
-1.273, 1.434e-4
-1.274, 1.458e-4
-1.275, 1.472e-4
-1.276, 1.500e-4
-1.277, 1.523e-4
-1.278, 1.548e-4
-1.279, 1.578e-4
-1.280, 1.600e-4
-1.281, 1.626e-4
-1.282, 1.654e-4
-1.283, 1.674e-4
-1.284, 1.702e-4
-1.285, 1.727e-4
-1.286, 1.753e-4
-1.287, 1.785e-4
-1.288, 1.811e-4
-1.289, 1.840e-4
-1.290, 1.875e-4
-1.291, 1.899e-4
-1.292, 1.932e-4
-1.293, 1.960e-4
-1.294, 1.991e-4
-1.295, 2.022e-4
-1.296, 2.057e-4
-1.297, 2.088e-4
-1.298, 2.117e-4
-1.299, 2.151e-4
-1.300, 2.183e-4
-1.301, 2.220e-4
-1.302, 2.257e-4
-1.303, 2.294e-4
-1.304, 2.330e-4
-1.305, 2.364e-4
-1.306, 2.398e-4
-1.307, 2.439e-4
-1.308, 2.479e-4
-1.309, 2.512e-4
-1.310, 2.552e-4
-1.311, 2.597e-4
-1.312, 2.636e-4
-1.313, 2.683e-4
-1.314, 2.726e-4
-1.315, 2.766e-4
-1.316, 2.815e-4
-1.317, 2.856e-4
-1.318, 2.894e-4
-1.319, 2.944e-4
-1.320, 2.990e-4
-1.321, 3.034e-4
-1.322, 3.087e-4
-1.323, 3.128e-4
-1.324, 3.187e-4
-1.325, 3.233e-4
-1.326, 3.281e-4
-1.327, 3.336e-4
-1.328, 3.383e-4
-1.329, 3.431e-4
-1.330, 3.484e-4
-1.331, 3.538e-4
-1.332, 3.594e-4
-1.333, 3.646e-4
-1.334, 3.706e-4
-1.335, 3.759e-4
-1.336, 3.831e-4
-1.337, 3.871e-4
-1.338, 3.934e-4
-1.339, 3.993e-4
-1.340, 4.055e-4
-1.341, 4.102e-4
-1.342, 4.165e-4
-1.343, 4.228e-4
-1.344, 4.282e-4
-1.345, 4.332e-4
-1.346, 4.397e-4
-1.347, 4.458e-4
-1.348, 4.511e-4
-1.349, 4.577e-4
-1.350, 4.646e-4
-1.351, 4.708e-4
-1.352, 4.754e-4
-1.353, 4.823e-4
-1.354, 4.882e-4
-1.355, 4.944e-4
-1.356, 5.010e-4
-1.357, 5.072e-4
-1.358, 5.143e-4
-1.359, 5.192e-4
-1.360, 5.250e-4
-1.361, 5.319e-4
-1.362, 5.375e-4
-1.363, 5.417e-4
-1.364, 5.485e-4
-1.365, 5.540e-4
-1.366, 5.602e-4
-1.367, 5.678e-4
-1.368, 5.729e-4
-1.369, 5.794e-4
-1.370, 5.857e-4
-1.371, 5.900e-4
-1.372, 5.953e-4
-1.373, 6.014e-4
-1.374, 6.078e-4
-1.375, 6.110e-4
-1.376, 6.177e-4
-1.377, 6.227e-4
-1.378, 6.292e-4
-1.379, 6.334e-4
-1.380, 6.393e-4
-1.381, 6.443e-4
-1.382, 6.510e-4
-1.383, 6.559e-4
-1.384, 6.620e-4
-1.385, 6.674e-4
-1.386, 6.719e-4
-1.387, 6.764e-4
-1.388, 6.832e-4
-1.389, 6.860e-4
-1.390, 6.920e-4
-1.391, 6.980e-4
-1.392, 7.026e-4
-1.393, 7.090e-4
-1.394, 7.134e-4
-1.395, 7.183e-4
-1.396, 7.237e-4
-1.397, 7.296e-4
-1.398, 7.336e-4
-1.399, 7.403e-4
-1.400, 7.452e-4
-1.401, 7.491e-4
-1.402, 7.544e-4
-1.403, 7.601e-4
-1.404, 7.654e-4
-1.405, 7.706e-4
-1.406, 7.771e-4
-1.407, 7.827e-4
-1.408, 7.878e-4
-1.409, 7.926e-4
-1.410, 7.980e-4
-1.411, 8.033e-4
-1.412, 8.084e-4
-1.413, 8.149e-4
-1.414, 8.209e-4
-1.415, 8.272e-4
-1.416, 8.325e-4
-1.417, 8.369e-4
-1.418, 8.427e-4
-1.419, 8.489e-4
-1.420, 8.554e-4
-1.421, 8.614e-4
-1.422, 8.678e-4
-1.423, 8.738e-4
-1.424, 8.774e-4
-1.425, 8.849e-4
-1.426, 8.912e-4
-1.427, 8.957e-4
-1.428, 9.001e-4
-1.429, 9.067e-4
-1.430, 9.126e-4
-1.431, 9.207e-4
-1.432, 9.280e-4
-1.433, 9.335e-4
-1.434, 9.416e-4
-1.435, 9.487e-4
-1.436, 9.515e-4
-1.437, 9.589e-4
-1.438, 9.649e-4
-1.439, 9.719e-4
-1.440, 9.784e-4
-1.441, 9.868e-4
-1.442, 9.935e-4
-1.443, 9.985e-4
-1.444, 1.006e-3
-1.445, 1.012e-3
-1.446, 1.018e-3
-1.447, 1.025e-3
-1.448, 1.034e-3
-1.449, 1.040e-3
-1.450, 1.048e-3
-1.451, 1.055e-3
-1.452, 1.062e-3
-1.453, 1.067e-3
-1.454, 1.076e-3
-1.455, 1.082e-3
-1.456, 1.090e-3
-1.457, 1.098e-3
-1.458, 1.106e-3
-1.459, 1.113e-3
-1.460, 1.120e-3
-1.461, 1.129e-3
-1.462, 1.138e-3
-1.463, 1.145e-3
-1.464, 1.156e-3
-1.465, 1.163e-3
-1.466, 1.170e-3
-1.467, 1.177e-3
-1.468, 1.187e-3
-1.469, 1.195e-3
-1.470, 1.202e-3
-1.471, 1.210e-3
-1.472, 1.217e-3
-1.473, 1.226e-3
-1.474, 1.233e-3
-1.475, 1.243e-3
-1.476, 1.253e-3
-1.477, 1.262e-3
-1.478, 1.269e-3
-1.479, 1.279e-3
-1.480, 1.290e-3
-1.481, 1.296e-3
-1.482, 1.307e-3
-1.483, 1.317e-3
-1.484, 1.329e-3
-1.485, 1.335e-3
-1.486, 1.344e-3
-1.487, 1.355e-3
-1.488, 1.361e-3
-1.489, 1.375e-3
-1.490, 1.384e-3
-1.491, 1.392e-3
-1.492, 1.412e-3
-1.493, 1.418e-3
-1.494, 1.430e-3
-1.495, 1.442e-3
-1.496, 1.451e-3
-1.497, 1.462e-3
-1.498, 1.473e-3
-1.499, 1.487e-3
-1.500, 1.493e-3
-1.501, 1.505e-3
-1.502, 1.517e-3
-1.503, 1.530e-3
-1.504, 1.540e-3
-1.505, 1.553e-3
-1.506, 1.564e-3
-1.507, 1.579e-3
-1.508, 1.591e-3
-1.509, 1.604e-3
-1.510, 1.621e-3
-1.511, 1.635e-3
-1.512, 1.644e-3
-1.513, 1.660e-3
-1.514, 1.673e-3
-1.515, 1.684e-3
-1.516, 1.698e-3
-1.517, 1.714e-3
-1.518, 1.730e-3
-1.519, 1.744e-3
-1.520, 1.760e-3
-1.521, 1.776e-3
-1.522, 1.793e-3
-1.523, 1.803e-3
-1.524, 1.819e-3
-1.525, 1.833e-3
-1.526, 1.848e-3
-1.527, 1.867e-3
-1.528, 1.883e-3
-1.529, 1.902e-3
-1.530, 1.926e-3
-1.531, 1.937e-3
-1.532, 1.959e-3
-1.533, 1.972e-3
-1.534, 1.992e-3
-1.535, 2.012e-3
-1.536, 2.030e-3
-1.537, 2.048e-3
-1.538, 2.065e-3
-1.539, 2.084e-3
-1.540, 2.105e-3
-1.541, 2.123e-3
-1.542, 2.141e-3
-1.543, 2.161e-3
-1.544, 2.179e-3
-1.545, 2.209e-3
-1.546, 2.230e-3
-1.547, 2.255e-3
-1.548, 2.273e-3
-1.549, 2.298e-3
-1.550, 2.319e-3
-1.551, 2.346e-3
-1.552, 2.370e-3
-1.553, 2.388e-3
-1.554, 2.417e-3
-1.555, 2.442e-3
-1.556, 2.465e-3
-1.557, 2.486e-3
-1.558, 2.514e-3
-1.559, 2.545e-3
-1.560, 2.565e-3
-1.561, 2.592e-3
-1.562, 2.620e-3
-1.563, 2.646e-3
-1.564, 2.666e-3
-1.565, 2.698e-3
-1.566, 2.724e-3
-1.567, 2.758e-3
-1.568, 2.788e-3
-1.569, 2.819e-3
-1.570, 2.858e-3
-1.571, 2.890e-3
-1.572, 2.920e-3
-1.573, 2.952e-3
-1.574, 2.989e-3
-1.575, 3.018e-3
-1.576, 3.049e-3
-1.577, 3.079e-3
-1.578, 3.119e-3
-1.579, 3.134e-3
-1.580, 3.168e-3
-1.581, 3.200e-3
-1.582, 3.236e-3
-1.583, 3.278e-3
-1.584, 3.314e-3
-1.585, 3.358e-3
-1.586, 3.411e-3
-1.587, 3.439e-3
-1.588, 3.482e-3
-1.589, 3.523e-3
-1.590, 3.563e-3
-1.591, 3.591e-3
-1.592, 3.636e-3
-1.593, 3.678e-3
-1.594, 3.714e-3
-1.595, 3.757e-3
-1.596, 3.795e-3
-1.597, 3.834e-3
-1.598, 3.881e-3
-1.599, 3.923e-3
-1.600, 3.973e-3
-1.601, 4.026e-3
-1.602, 4.063e-3
-1.603, 4.109e-3
-1.604, 4.149e-3
-1.605, 4.198e-3
-1.606, 4.243e-3
-1.607, 4.292e-3
-1.608, 4.345e-3
-1.609, 4.413e-3
-1.610, 4.447e-3
-1.611, 4.513e-3
-1.612, 4.573e-3
-1.613, 4.620e-3
-1.614, 4.651e-3
-1.615, 4.704e-3
-1.616, 4.740e-3
-1.617, 4.803e-3
-1.618, 4.860e-3
-1.619, 4.923e-3
-1.620, 4.997e-3
-1.621, 5.054e-3
-1.622, 5.107e-3
-1.623, 5.163e-3
-1.624, 5.234e-3
-1.625, 5.281e-3
-1.626, 5.340e-3
-1.627, 5.422e-3
-1.628, 5.458e-3
-1.629, 5.502e-3
-1.630, 5.556e-3
-1.631, 5.603e-3
-1.632, 5.655e-3
-1.633, 5.735e-3
-1.634, 5.810e-3
-1.635, 5.882e-3
-1.636, 5.983e-3
-1.637, 6.039e-3
-1.638, 6.127e-3
-1.639, 6.197e-3
-1.640, 6.248e-3
-1.641, 6.325e-3
-1.642, 6.402e-3
-1.643, 6.476e-3
-1.644, 6.520e-3
-1.645, 6.589e-3
-1.646, 6.641e-3
-1.647, 6.701e-3
-1.648, 6.777e-3
-1.649, 6.845e-3
-1.650, 6.934e-3
-1.651, 7.046e-3
-1.652, 7.104e-3
-1.653, 7.195e-3
-1.654, 7.275e-3
-1.655, 7.351e-3
-1.656, 7.382e-3
-1.657, 7.471e-3
-1.658, 7.538e-3
-1.659, 7.613e-3
-1.660, 7.711e-3
-1.661, 7.789e-3
-1.662, 7.905e-3
-1.663, 7.986e-3
-1.664, 8.037e-3
-1.665, 8.125e-3
-1.666, 8.234e-3
-1.667, 8.297e-3
-1.668, 8.379e-3
-1.669, 8.471e-3
-1.670, 8.600e-3
-1.671, 8.657e-3
-1.672, 8.760e-3
-1.673, 8.851e-3
-1.674, 8.901e-3
-1.675, 8.938e-3
-1.676, 9.008e-3
-1.677, 9.071e-3
-1.678, 9.166e-3
-1.679, 9.287e-3
-1.680, 9.397e-3
-1.681, 9.555e-3
-1.682, 9.648e-3
-1.683, 9.706e-3
-1.684, 9.789e-3
-1.685, 9.863e-3
-1.686, 9.903e-3
-1.687, 9.999e-3
-1.688, 1.006e-2
-1.689, 1.023e-2
-1.690, 1.035e-2
-1.691, 1.047e-2
-1.692, 1.059e-2
-1.693, 1.067e-2
-1.694, 1.075e-2
-1.695, 1.082e-2
-1.696, 1.093e-2
-1.697, 1.092e-2
-1.698, 1.096e-2
-1.699, 1.106e-2
-1.700, 1.103e-2
-1.699, 1.101e-2
-1.698, 1.096e-2
-1.697, 1.088e-2
-1.696, 1.083e-2
-1.695, 1.073e-2
-1.694, 1.064e-2
-1.693, 1.059e-2
-1.692, 1.052e-2
-1.691, 1.038e-2
-1.690, 1.027e-2
-1.689, 1.015e-2
-1.688, 1.002e-2
-1.687, 9.973e-3
-1.686, 9.866e-3
-1.685, 9.794e-3
-1.684, 9.765e-3
-1.683, 9.680e-3
-1.682, 9.615e-3
-1.681, 9.538e-3
-1.680, 9.442e-3
-1.679, 9.340e-3
-1.678, 9.264e-3
-1.677, 9.175e-3
-1.676, 9.020e-3
-1.675, 8.911e-3
-1.674, 8.835e-3
-1.673, 8.720e-3
-1.672, 8.677e-3
-1.671, 8.614e-3
-1.670, 8.569e-3
-1.669, 8.511e-3
-1.668, 8.394e-3
-1.667, 8.323e-3
-1.666, 8.258e-3
-1.665, 8.176e-3
-1.664, 8.069e-3
-1.663, 7.996e-3
-1.662, 7.897e-3
-1.661, 7.829e-3
-1.660, 7.744e-3
-1.659, 7.676e-3
-1.658, 7.633e-3
-1.657, 7.564e-3
-1.656, 7.491e-3
-1.655, 7.427e-3
-1.654, 7.358e-3
-1.653, 7.249e-3
-1.652, 7.192e-3
-1.651, 7.102e-3
-1.650, 7.006e-3
-1.649, 6.930e-3
-1.648, 6.866e-3
-1.647, 6.790e-3
-1.646, 6.749e-3
-1.645, 6.702e-3
-1.644, 6.642e-3
-1.643, 6.594e-3
-1.642, 6.517e-3
-1.641, 6.449e-3
-1.640, 6.383e-3
-1.639, 6.340e-3
-1.638, 6.229e-3
-1.637, 6.154e-3
-1.636, 6.075e-3
-1.635, 6.018e-3
-1.634, 5.982e-3
-1.633, 5.920e-3
-1.632, 5.879e-3
-1.631, 5.840e-3
-1.630, 5.765e-3
-1.629, 5.708e-3
-1.628, 5.677e-3
-1.627, 5.608e-3
-1.626, 5.534e-3
-1.625, 5.481e-3
-1.624, 5.424e-3
-1.623, 5.349e-3
-1.622, 5.277e-3
-1.621, 5.216e-3
-1.620, 5.150e-3
-1.619, 5.116e-3
-1.618, 5.070e-3
-1.617, 5.031e-3
-1.616, 4.986e-3
-1.615, 4.923e-3
-1.614, 4.872e-3
-1.613, 4.826e-3
-1.612, 4.773e-3
-1.611, 4.700e-3
-1.610, 4.652e-3
-1.609, 4.599e-3
-1.608, 4.558e-3
-1.607, 4.504e-3
-1.606, 4.456e-3
-1.605, 4.418e-3
-1.604, 4.381e-3
-1.603, 4.315e-3
-1.602, 4.277e-3
-1.601, 4.234e-3
-1.600, 4.188e-3
-1.599, 4.137e-3
-1.598, 4.097e-3
-1.597, 4.038e-3
-1.596, 3.997e-3
-1.595, 3.952e-3
-1.594, 3.920e-3
-1.593, 3.883e-3
-1.592, 3.837e-3
-1.591, 3.794e-3
-1.590, 3.748e-3
-1.589, 3.710e-3
-1.588, 3.667e-3
-1.587, 3.631e-3
-1.586, 3.592e-3
-1.585, 3.554e-3
-1.584, 3.516e-3
-1.583, 3.482e-3
-1.582, 3.449e-3
-1.581, 3.400e-3
-1.580, 3.359e-3
-1.579, 3.327e-3
-1.578, 3.295e-3
-1.577, 3.260e-3
-1.576, 3.218e-3
-1.575, 3.185e-3
-1.574, 3.142e-3
-1.573, 3.109e-3
-1.572, 3.075e-3
-1.571, 3.041e-3
-1.570, 3.012e-3
-1.569, 2.978e-3
-1.568, 2.947e-3
-1.567, 2.920e-3
-1.566, 2.887e-3
-1.565, 2.850e-3
-1.564, 2.818e-3
-1.563, 2.795e-3
-1.562, 2.764e-3
-1.561, 2.741e-3
-1.560, 2.711e-3
-1.559, 2.673e-3
-1.558, 2.657e-3
-1.557, 2.613e-3
-1.556, 2.588e-3
-1.555, 2.561e-3
-1.554, 2.537e-3
-1.553, 2.506e-3
-1.552, 2.483e-3
-1.551, 2.457e-3
-1.550, 2.427e-3
-1.549, 2.404e-3
-1.548, 2.377e-3
-1.547, 2.352e-3
-1.546, 2.324e-3
-1.545, 2.298e-3
-1.544, 2.275e-3
-1.543, 2.253e-3
-1.542, 2.229e-3
-1.541, 2.203e-3
-1.540, 2.181e-3
-1.539, 2.158e-3
-1.538, 2.129e-3
-1.537, 2.110e-3
-1.536, 2.084e-3
-1.535, 2.065e-3
-1.534, 2.042e-3
-1.533, 2.029e-3
-1.532, 2.004e-3
-1.531, 1.977e-3
-1.530, 1.958e-3
-1.529, 1.938e-3
-1.528, 1.913e-3
-1.527, 1.887e-3
-1.526, 1.873e-3
-1.525, 1.850e-3
-1.524, 1.830e-3
-1.523, 1.813e-3
-1.522, 1.792e-3
-1.521, 1.780e-3
-1.520, 1.758e-3
-1.519, 1.737e-3
-1.518, 1.718e-3
-1.517, 1.703e-3
-1.516, 1.685e-3
-1.515, 1.664e-3
-1.514, 1.646e-3
-1.513, 1.629e-3
-1.512, 1.611e-3
-1.511, 1.594e-3
-1.510, 1.579e-3
-1.509, 1.565e-3
-1.508, 1.545e-3
-1.507, 1.530e-3
-1.506, 1.511e-3
-1.505, 1.495e-3
-1.504, 1.479e-3
-1.503, 1.463e-3
-1.502, 1.449e-3
-1.501, 1.432e-3
-1.500, 1.417e-3
-1.499, 1.402e-3
-1.498, 1.389e-3
-1.497, 1.372e-3
-1.496, 1.356e-3
-1.495, 1.342e-3
-1.494, 1.328e-3
-1.493, 1.312e-3
-1.492, 1.299e-3
-1.491, 1.285e-3
-1.490, 1.273e-3
-1.489, 1.257e-3
-1.488, 1.245e-3
-1.487, 1.231e-3
-1.486, 1.218e-3
-1.485, 1.204e-3
-1.484, 1.192e-3
-1.483, 1.181e-3
-1.482, 1.166e-3
-1.481, 1.155e-3
-1.480, 1.141e-3
-1.479, 1.130e-3
-1.478, 1.116e-3
-1.477, 1.104e-3
-1.476, 1.093e-3
-1.475, 1.083e-3
-1.474, 1.070e-3
-1.473, 1.058e-3
-1.472, 1.048e-3
-1.471, 1.035e-3
-1.470, 1.022e-3
-1.469, 1.013e-3
-1.468, 1.002e-3
-1.467, 9.926e-4
-1.466, 9.840e-4
-1.465, 9.711e-4
-1.464, 9.612e-4
-1.463, 9.586e-4
-1.462, 9.387e-4
-1.461, 9.292e-4
-1.460, 9.197e-4
-1.459, 9.088e-4
-1.458, 8.979e-4
-1.457, 8.864e-4
-1.456, 8.785e-4
-1.455, 8.669e-4
-1.454, 8.565e-4
-1.453, 8.473e-4
-1.452, 8.387e-4
-1.451, 8.302e-4
-1.450, 8.212e-4
-1.449, 8.113e-4
-1.448, 8.028e-4
-1.447, 7.947e-4
-1.446, 7.875e-4
-1.445, 7.770e-4
-1.444, 7.669e-4
-1.443, 7.561e-4
-1.442, 7.487e-4
-1.441, 7.383e-4
-1.440, 7.306e-4
-1.439, 7.229e-4
-1.438, 7.138e-4
-1.437, 7.062e-4
-1.436, 6.981e-4
-1.435, 6.887e-4
-1.434, 6.812e-4
-1.433, 6.735e-4
-1.432, 6.655e-4
-1.431, 6.574e-4
-1.430, 6.489e-4
-1.429, 6.440e-4
-1.428, 6.380e-4
-1.427, 6.281e-4
-1.426, 6.219e-4
-1.425, 6.138e-4
-1.424, 6.059e-4
-1.423, 5.987e-4
-1.422, 5.916e-4
-1.421, 5.846e-4
-1.420, 5.775e-4
-1.419, 5.704e-4
-1.418, 5.637e-4
-1.417, 5.576e-4
-1.416, 5.515e-4
-1.415, 5.442e-4
-1.414, 5.384e-4
-1.413, 5.310e-4
-1.412, 5.234e-4
-1.411, 5.179e-4
-1.410, 5.116e-4
-1.409, 5.046e-4
-1.408, 4.987e-4
-1.407, 4.925e-4
-1.406, 4.868e-4
-1.405, 4.805e-4
-1.404, 4.747e-4
-1.403, 4.684e-4
-1.402, 4.629e-4
-1.401, 4.564e-4
-1.400, 4.502e-4
-1.399, 4.446e-4
-1.398, 4.394e-4
-1.397, 4.346e-4
-1.396, 4.285e-4
-1.395, 4.229e-4
-1.394, 4.182e-4
-1.393, 4.118e-4
-1.392, 4.073e-4
-1.391, 4.016e-4
-1.390, 3.975e-4
-1.389, 3.924e-4
-1.388, 3.875e-4
-1.387, 3.823e-4
-1.386, 3.769e-4
-1.385, 3.717e-4
-1.384, 3.671e-4
-1.383, 3.627e-4
-1.382, 3.569e-4
-1.381, 3.520e-4
-1.380, 3.476e-4
-1.379, 3.430e-4
-1.378, 3.389e-4
-1.377, 3.338e-4
-1.376, 3.298e-4
-1.375, 3.255e-4
-1.374, 3.214e-4
-1.373, 3.169e-4
-1.372, 3.131e-4
-1.371, 3.098e-4
-1.370, 3.042e-4
-1.369, 2.998e-4
-1.368, 2.960e-4
-1.367, 2.919e-4
-1.366, 2.874e-4
-1.365, 2.835e-4
-1.364, 2.797e-4
-1.363, 2.761e-4
-1.362, 2.717e-4
-1.361, 2.681e-4
-1.360, 2.642e-4
-1.359, 2.606e-4
-1.358, 2.565e-4
-1.357, 2.531e-4
-1.356, 2.495e-4
-1.355, 2.455e-4
-1.354, 2.422e-4
-1.353, 2.384e-4
-1.352, 2.351e-4
-1.351, 2.313e-4
-1.350, 2.277e-4
-1.349, 2.249e-4
-1.348, 2.211e-4
-1.347, 2.189e-4
-1.346, 2.152e-4
-1.345, 2.119e-4
-1.344, 2.088e-4
-1.343, 2.045e-4
-1.342, 2.015e-4
-1.341, 1.991e-4
-1.340, 1.954e-4
-1.339, 1.921e-4
-1.338, 1.891e-4
-1.337, 1.857e-4
-1.336, 1.830e-4
-1.335, 1.798e-4
-1.334, 1.769e-4
-1.333, 1.741e-4
-1.332, 1.708e-4
-1.331, 1.678e-4
-1.330, 1.651e-4
-1.329, 1.622e-4
-1.328, 1.589e-4
-1.327, 1.562e-4
-1.326, 1.532e-4
-1.325, 1.504e-4
-1.324, 1.481e-4
-1.323, 1.449e-4
-1.322, 1.424e-4
-1.321, 1.397e-4
-1.320, 1.370e-4
-1.319, 1.345e-4
-1.318, 1.314e-4
-1.317, 1.286e-4
-1.316, 1.261e-4
-1.315, 1.234e-4
-1.314, 1.212e-4
-1.313, 1.183e-4
-1.312, 1.162e-4
-1.311, 1.141e-4
-1.310, 1.111e-4
-1.309, 1.087e-4
-1.308, 1.061e-4
-1.307, 1.038e-4
-1.306, 1.017e-4
-1.305, 9.870e-5
-1.304, 9.691e-5
-1.303, 9.435e-5
-1.302, 9.211e-5
-1.301, 9.008e-5
-1.300, 8.779e-5
-1.299, 8.547e-5
-1.298, 8.350e-5
-1.297, 8.066e-5
-1.296, 7.908e-5
-1.295, 7.645e-5
-1.294, 7.449e-5
-1.293, 7.236e-5
-1.292, 7.045e-5
-1.291, 6.826e-5
-1.290, 6.639e-5
-1.289, 6.393e-5
-1.288, 6.242e-5
-1.287, 6.028e-5
-1.286, 5.818e-5
-1.285, 5.719e-5
-1.284, 5.443e-5
-1.283, 5.182e-5
-1.282, 5.033e-5
-1.281, 4.829e-5
-1.280, 4.638e-5
-1.279, 4.508e-5
-1.278, 4.305e-5
-1.277, 4.153e-5
-1.276, 3.979e-5
-1.275, 3.777e-5
-1.274, 3.628e-5
-1.273, 3.444e-5
-1.272, 3.315e-5
-1.271, 3.145e-5
-1.270, 2.944e-5
-1.269, 2.830e-5
-1.268, 2.634e-5
-1.267, 2.469e-5
-1.266, 2.339e-5
-1.265, 2.166e-5
-1.264, 2.050e-5
-1.263, 1.883e-5
-1.262, 1.716e-5
-1.261, 1.595e-5
-1.260, 1.439e-5
-1.259, 1.301e-5
-1.258, 1.188e-5
-1.257, 1.027e-5
-1.256, 9.292e-6
-1.255, 7.851e-6
-1.254, 6.283e-6
-1.253, 5.414e-6
-1.252, 3.935e-6
-1.251, 2.790e-6
-1.250, 1.725e-6
-1.249, 4.223e-7
-1.248, -7.123e-7
-1.247, -1.669e-6
-1.246, -3.001e-6
-1.245, -3.879e-6
-1.244, -5.063e-6
-1.243, -6.227e-6
-1.242, -7.036e-6
-1.241, -8.309e-6
-1.240, -9.049e-6
-1.239, -9.819e-6
-1.238, -1.134e-5
-1.237, -1.192e-5
-1.236, -1.299e-5
-1.235, -1.397e-5
-1.234, -1.465e-5
-1.233, -1.589e-5
-1.232, -1.641e-5
-1.231, -1.711e-5
-1.230, -1.826e-5
-1.229, -1.966e-5
-1.228, -1.991e-5
-1.227, -2.064e-5
-1.226, -2.139e-5
-1.225, -2.220e-5
-1.224, -2.275e-5
-1.223, -2.351e-5
-1.222, -2.446e-5
-1.221, -2.493e-5
-1.220, -2.566e-5
-1.219, -2.630e-5
-1.218, -2.689e-5
-1.217, -2.776e-5
-1.216, -2.816e-5
-1.215, -2.876e-5
-1.214, -2.961e-5
-1.213, -3.001e-5
-1.212, -3.046e-5
-1.211, -3.130e-5
-1.210, -3.202e-5
-1.209, -3.301e-5
-1.208, -3.334e-5
-1.207, -3.366e-5
-1.206, -3.461e-5
-1.205, -3.483e-5
-1.204, -3.542e-5
-1.203, -3.610e-5
-1.202, -3.620e-5
-1.201, -3.693e-5
-1.200, -3.712e-5
-1.199, -3.761e-5
-1.198, -3.829e-5
-1.197, -3.833e-5
-1.196, -3.876e-5
-1.195, -3.946e-5
-1.194, -3.949e-5
-1.193, -4.028e-5
-1.192, -4.042e-5
-1.191, -4.096e-5
-1.190, -4.137e-5
-1.189, -4.157e-5
-1.188, -4.186e-5
-1.187, -4.247e-5
-1.186, -4.255e-5
-1.185, -4.301e-5
-1.184, -4.319e-5
-1.183, -4.350e-5
-1.182, -4.415e-5
-1.181, -4.395e-5
-1.180, -4.451e-5
-1.179, -4.476e-5
-1.178, -4.538e-5
-1.177, -4.552e-5
-1.176, -4.567e-5
-1.175, -4.589e-5
-1.174, -4.629e-5
-1.173, -4.626e-5
-1.172, -4.655e-5
-1.171, -4.689e-5
-1.170, -4.693e-5
-1.169, -4.746e-5
-1.168, -4.761e-5
-1.167, -4.776e-5
-1.166, -4.814e-5
-1.165, -4.797e-5
-1.164, -4.836e-5
-1.163, -4.878e-5
-1.162, -4.869e-5
-1.161, -4.906e-5
-1.160, -4.912e-5
-1.159, -4.905e-5
-1.158, -4.983e-5
-1.157, -4.935e-5
-1.156, -4.970e-5
-1.155, -5.017e-5
-1.154, -4.988e-5
-1.153, -5.055e-5
-1.152, -5.044e-5
-1.151, -5.076e-5
-1.150, -5.114e-5
-1.149, -5.087e-5
-1.148, -5.132e-5
-1.147, -5.132e-5
-1.146, -5.130e-5
-1.145, -5.164e-5
-1.144, -5.205e-5
-1.143, -5.233e-5
-1.142, -5.289e-5
-1.141, -5.237e-5
-1.140, -5.282e-5
-1.139, -5.315e-5
-1.138, -5.296e-5
-1.137, -5.340e-5
-1.136, -5.295e-5
-1.135, -5.336e-5
-1.134, -5.336e-5
-1.133, -5.366e-5
-1.132, -5.367e-5
-1.131, -5.389e-5
-1.130, -5.371e-5
-1.129, -5.387e-5
-1.128, -5.398e-5
-1.127, -5.412e-5
-1.126, -5.423e-5
-1.125, -5.450e-5
-1.124, -5.436e-5
-1.123, -5.457e-5
-1.122, -5.466e-5
-1.121, -5.501e-5
-1.120, -5.471e-5
-1.119, -5.462e-5
-1.118, -5.535e-5
-1.117, -5.493e-5
-1.116, -5.520e-5
-1.115, -5.550e-5
-1.114, -5.535e-5
-1.113, -5.570e-5
-1.112, -5.526e-5
-1.111, -5.553e-5
-1.110, -5.602e-5
-1.109, -5.546e-5
-1.108, -5.597e-5
-1.107, -5.590e-5
-1.106, -5.596e-5
-1.105, -5.621e-5
-1.104, -5.594e-5
-1.103, -5.629e-5
-1.102, -5.642e-5
-1.101, -5.621e-5
-1.100, -5.652e-5
-1.099, -5.655e-5
-1.098, -5.644e-5
-1.097, -5.701e-5
-1.096, -5.662e-5
-1.095, -5.683e-5
-1.094, -5.723e-5
-1.093, -5.701e-5
-1.092, -5.714e-5
-1.091, -5.717e-5
-1.090, -5.721e-5
-1.089, -5.752e-5
-1.088, -5.749e-5
-1.087, -5.738e-5
-1.086, -5.764e-5
-1.085, -5.748e-5
-1.084, -5.762e-5
-1.083, -5.775e-5
-1.082, -5.785e-5
-1.081, -5.829e-5
-1.080, -5.816e-5
-1.079, -5.813e-5
-1.078, -5.829e-5
-1.077, -5.820e-5
-1.076, -5.849e-5
-1.075, -5.893e-5
-1.074, -5.844e-5
-1.073, -5.886e-5
-1.072, -5.877e-5
-1.071, -5.876e-5
-1.070, -5.896e-5
-1.069, -5.886e-5
-1.068, -5.899e-5
-1.067, -5.949e-5
-1.066, -5.912e-5
-1.065, -5.949e-5
-1.064, -5.908e-5
-1.063, -5.938e-5
-1.062, -5.969e-5
-1.061, -5.956e-5
-1.060, -5.972e-5
-1.059, -5.988e-5
-1.058, -5.960e-5
-1.057, -5.991e-5
-1.056, -5.981e-5
-1.055, -5.987e-5
-1.054, -6.007e-5
-1.053, -5.984e-5
-1.052, -6.009e-5
-1.051, -6.028e-5
-1.050, -6.036e-5
-1.049, -6.060e-5
-1.048, -6.049e-5
-1.047, -6.039e-5
-1.046, -6.089e-5
-1.045, -6.055e-5
-1.044, -6.058e-5
-1.043, -6.093e-5
-1.042, -6.071e-5
-1.041, -6.116e-5
-1.040, -6.088e-5
-1.039, -6.105e-5
-1.038, -6.147e-5
-1.037, -6.112e-5
-1.036, -6.130e-5
-1.035, -6.141e-5
-1.034, -6.126e-5
-1.033, -6.164e-5
-1.032, -6.140e-5
-1.031, -6.166e-5
-1.030, -6.186e-5
-1.029, -6.164e-5
-1.028, -6.183e-5
-1.027, -6.190e-5
-1.026, -6.181e-5
-1.025, -6.257e-5
-1.024, -6.236e-5
-1.023, -6.243e-5
-1.022, -6.269e-5
-1.021, -6.251e-5
-1.020, -6.262e-5
-1.019, -6.265e-5
-1.018, -6.275e-5
-1.017, -6.300e-5
-1.016, -6.290e-5
-1.015, -6.285e-5
-1.014, -6.321e-5
-1.013, -6.303e-5
-1.012, -6.325e-5
-1.011, -6.363e-5
-1.010, -6.353e-5
-1.009, -6.364e-5
-1.008, -6.359e-5
-1.007, -6.377e-5
-1.006, -6.401e-5
-1.005, -6.391e-5
-1.004, -6.388e-5
-1.003, -6.446e-5
-1.002, -6.421e-5
-1.001, -6.463e-5
