June 26, 2026   08:07:08
Cyclic Voltammetry
File: c:/users/guazh/data/20260623_doe_duplica2/2026-06-24-exp13\exp13-2026-06-26t07_48_59-h2koh\exp13_cv_sr_200mvs_efin_-1700mv.bin
Data Source:  Experiment
Instrument Model:  CHI760E
Header: CV ran at 200 mVs
Note: 

Init E (V) = -1
High E (V) = -1
Low E (V) = -1.7
Final E (V) = -1
Init P/N = N
Scan Rate (V/s) = 0.2
Segment = 3
Sample Interval (V) = 0.001
Quiet Time (sec) = 2
Sensitivity (A/V) = 0.01
Comp R (ohm) = 2.3

Results:

Channel 1:
Segment 1:

Segment 2:

Segment 3:

Potential/V, Current/A

-1.000, 2.553e-5
-1.001, 5.174e-5
-1.002, 5.636e-5
-1.003, 5.814e-5
-1.004, 5.896e-5
-1.005, 5.942e-5
-1.006, 6.016e-5
-1.007, 6.085e-5
-1.008, 6.104e-5
-1.009, 6.144e-5
-1.010, 6.206e-5
-1.011, 6.202e-5
-1.012, 6.268e-5
-1.013, 6.290e-5
-1.014, 6.291e-5
-1.015, 6.360e-5
-1.016, 6.347e-5
-1.017, 6.369e-5
-1.018, 6.453e-5
-1.019, 6.402e-5
-1.020, 6.466e-5
-1.021, 6.459e-5
-1.022, 6.495e-5
-1.023, 6.520e-5
-1.024, 6.551e-5
-1.025, 6.532e-5
-1.026, 6.578e-5
-1.027, 6.572e-5
-1.028, 6.599e-5
-1.029, 6.595e-5
-1.030, 6.664e-5
-1.031, 6.651e-5
-1.032, 6.615e-5
-1.033, 6.655e-5
-1.034, 6.706e-5
-1.035, 6.677e-5
-1.036, 6.725e-5
-1.037, 6.702e-5
-1.038, 6.717e-5
-1.039, 6.739e-5
-1.040, 6.730e-5
-1.041, 6.761e-5
-1.042, 6.772e-5
-1.043, 6.756e-5
-1.044, 6.819e-5
-1.045, 6.782e-5
-1.046, 6.817e-5
-1.047, 6.804e-5
-1.048, 6.804e-5
-1.049, 6.851e-5
-1.050, 6.892e-5
-1.051, 6.829e-5
-1.052, 6.913e-5
-1.053, 6.877e-5
-1.054, 6.885e-5
-1.055, 6.878e-5
-1.056, 6.901e-5
-1.057, 6.915e-5
-1.058, 6.939e-5
-1.059, 6.932e-5
-1.060, 6.959e-5
-1.061, 6.904e-5
-1.062, 6.964e-5
-1.063, 6.998e-5
-1.064, 6.945e-5
-1.065, 6.967e-5
-1.066, 6.998e-5
-1.067, 6.990e-5
-1.068, 7.043e-5
-1.069, 7.000e-5
-1.070, 7.004e-5
-1.071, 7.040e-5
-1.072, 7.023e-5
-1.073, 7.059e-5
-1.074, 7.046e-5
-1.075, 7.117e-5
-1.076, 7.097e-5
-1.077, 7.065e-5
-1.078, 7.071e-5
-1.079, 7.118e-5
-1.080, 7.116e-5
-1.081, 7.119e-5
-1.082, 7.108e-5
-1.083, 7.141e-5
-1.084, 7.166e-5
-1.085, 7.093e-5
-1.086, 7.126e-5
-1.087, 7.174e-5
-1.088, 7.149e-5
-1.089, 7.168e-5
-1.090, 7.193e-5
-1.091, 7.152e-5
-1.092, 7.192e-5
-1.093, 7.218e-5
-1.094, 7.199e-5
-1.095, 7.265e-5
-1.096, 7.217e-5
-1.097, 7.243e-5
-1.098, 7.262e-5
-1.099, 7.255e-5
-1.100, 7.294e-5
-1.101, 7.260e-5
-1.102, 7.267e-5
-1.103, 7.324e-5
-1.104, 7.292e-5
-1.105, 7.295e-5
-1.106, 7.328e-5
-1.107, 7.316e-5
-1.108, 7.328e-5
-1.109, 7.321e-5
-1.110, 7.335e-5
-1.111, 7.398e-5
-1.112, 7.365e-5
-1.113, 7.369e-5
-1.114, 7.368e-5
-1.115, 7.380e-5
-1.116, 7.458e-5
-1.117, 7.383e-5
-1.118, 7.420e-5
-1.119, 7.434e-5
-1.120, 7.467e-5
-1.121, 7.477e-5
-1.122, 7.448e-5
-1.123, 7.466e-5
-1.124, 7.515e-5
-1.125, 7.494e-5
-1.126, 7.511e-5
-1.127, 7.567e-5
-1.128, 7.565e-5
-1.129, 7.543e-5
-1.130, 7.602e-5
-1.131, 7.533e-5
-1.132, 7.594e-5
-1.133, 7.628e-5
-1.134, 7.588e-5
-1.135, 7.663e-5
-1.136, 7.630e-5
-1.137, 7.664e-5
-1.138, 7.685e-5
-1.139, 7.680e-5
-1.140, 7.736e-5
-1.141, 7.693e-5
-1.142, 7.705e-5
-1.143, 7.797e-5
-1.144, 7.766e-5
-1.145, 7.781e-5
-1.146, 7.808e-5
-1.147, 7.811e-5
-1.148, 7.875e-5
-1.149, 7.815e-5
-1.150, 7.855e-5
-1.151, 7.934e-5
-1.152, 7.920e-5
-1.153, 7.953e-5
-1.154, 7.971e-5
-1.155, 7.932e-5
-1.156, 8.050e-5
-1.157, 7.976e-5
-1.158, 8.009e-5
-1.159, 8.099e-5
-1.160, 8.089e-5
-1.161, 8.099e-5
-1.162, 8.093e-5
-1.163, 8.134e-5
-1.164, 8.181e-5
-1.165, 8.190e-5
-1.166, 8.265e-5
-1.167, 8.289e-5
-1.168, 8.251e-5
-1.169, 8.308e-5
-1.170, 8.390e-5
-1.171, 8.346e-5
-1.172, 8.427e-5
-1.173, 8.427e-5
-1.174, 8.429e-5
-1.175, 8.491e-5
-1.176, 8.547e-5
-1.177, 8.588e-5
-1.178, 8.668e-5
-1.179, 8.614e-5
-1.180, 8.714e-5
-1.181, 8.685e-5
-1.182, 8.733e-5
-1.183, 8.822e-5
-1.184, 8.805e-5
-1.185, 8.889e-5
-1.186, 8.925e-5
-1.187, 8.969e-5
-1.188, 8.997e-5
-1.189, 9.010e-5
-1.190, 9.108e-5
-1.191, 9.157e-5
-1.192, 9.172e-5
-1.193, 9.256e-5
-1.194, 9.316e-5
-1.195, 9.312e-5
-1.196, 9.407e-5
-1.197, 9.451e-5
-1.198, 9.508e-5
-1.199, 9.595e-5
-1.200, 9.606e-5
-1.201, 9.697e-5
-1.202, 9.754e-5
-1.203, 9.809e-5
-1.204, 9.909e-5
-1.205, 9.935e-5
-1.206, 1.003e-4
-1.207, 1.011e-4
-1.208, 1.013e-4
-1.209, 1.025e-4
-1.210, 1.030e-4
-1.211, 1.034e-4
-1.212, 1.049e-4
-1.213, 1.054e-4
-1.214, 1.061e-4
-1.215, 1.070e-4
-1.216, 1.080e-4
-1.217, 1.085e-4
-1.218, 1.094e-4
-1.219, 1.104e-4
-1.220, 1.118e-4
-1.221, 1.119e-4
-1.222, 1.132e-4
-1.223, 1.148e-4
-1.224, 1.151e-4
-1.225, 1.161e-4
-1.226, 1.176e-4
-1.227, 1.184e-4
-1.228, 1.200e-4
-1.229, 1.216e-4
-1.230, 1.222e-4
-1.231, 1.234e-4
-1.232, 1.245e-4
-1.233, 1.257e-4
-1.234, 1.269e-4
-1.235, 1.280e-4
-1.236, 1.295e-4
-1.237, 1.305e-4
-1.238, 1.320e-4
-1.239, 1.341e-4
-1.240, 1.352e-4
-1.241, 1.367e-4
-1.242, 1.380e-4
-1.243, 1.399e-4
-1.244, 1.416e-4
-1.245, 1.425e-4
-1.246, 1.441e-4
-1.247, 1.462e-4
-1.248, 1.475e-4
-1.249, 1.496e-4
-1.250, 1.512e-4
-1.251, 1.524e-4
-1.252, 1.550e-4
-1.253, 1.568e-4
-1.254, 1.586e-4
-1.255, 1.609e-4
-1.256, 1.626e-4
-1.257, 1.646e-4
-1.258, 1.665e-4
-1.259, 1.683e-4
-1.260, 1.714e-4
-1.261, 1.729e-4
-1.262, 1.749e-4
-1.263, 1.773e-4
-1.264, 1.795e-4
-1.265, 1.821e-4
-1.266, 1.845e-4
-1.267, 1.867e-4
-1.268, 1.892e-4
-1.269, 1.919e-4
-1.270, 1.944e-4
-1.271, 1.970e-4
-1.272, 1.991e-4
-1.273, 2.024e-4
-1.274, 2.051e-4
-1.275, 2.072e-4
-1.276, 2.106e-4
-1.277, 2.130e-4
-1.278, 2.160e-4
-1.279, 2.192e-4
-1.280, 2.224e-4
-1.281, 2.250e-4
-1.282, 2.278e-4
-1.283, 2.312e-4
-1.284, 2.342e-4
-1.285, 2.372e-4
-1.286, 2.411e-4
-1.287, 2.442e-4
-1.288, 2.471e-4
-1.289, 2.509e-4
-1.290, 2.546e-4
-1.291, 2.577e-4
-1.292, 2.618e-4
-1.293, 2.657e-4
-1.294, 2.693e-4
-1.295, 2.726e-4
-1.296, 2.766e-4
-1.297, 2.806e-4
-1.298, 2.847e-4
-1.299, 2.884e-4
-1.300, 2.928e-4
-1.301, 2.966e-4
-1.302, 3.012e-4
-1.303, 3.057e-4
-1.304, 3.093e-4
-1.305, 3.141e-4
-1.306, 3.187e-4
-1.307, 3.231e-4
-1.308, 3.279e-4
-1.309, 3.322e-4
-1.310, 3.376e-4
-1.311, 3.418e-4
-1.312, 3.466e-4
-1.313, 3.518e-4
-1.314, 3.565e-4
-1.315, 3.618e-4
-1.316, 3.674e-4
-1.317, 3.723e-4
-1.318, 3.776e-4
-1.319, 3.835e-4
-1.320, 3.879e-4
-1.321, 3.938e-4
-1.322, 3.994e-4
-1.323, 4.058e-4
-1.324, 4.109e-4
-1.325, 4.166e-4
-1.326, 4.230e-4
-1.327, 4.270e-4
-1.328, 4.338e-4
-1.329, 4.407e-4
-1.330, 4.461e-4
-1.331, 4.495e-4
-1.332, 4.580e-4
-1.333, 4.648e-4
-1.334, 4.706e-4
-1.335, 4.776e-4
-1.336, 4.835e-4
-1.337, 4.897e-4
-1.338, 4.964e-4
-1.339, 5.042e-4
-1.340, 5.113e-4
-1.341, 5.181e-4
-1.342, 5.252e-4
-1.343, 5.332e-4
-1.344, 5.395e-4
-1.345, 5.468e-4
-1.346, 5.553e-4
-1.347, 5.616e-4
-1.348, 5.675e-4
-1.349, 5.730e-4
-1.350, 5.815e-4
-1.351, 5.900e-4
-1.352, 5.973e-4
-1.353, 6.041e-4
-1.354, 6.112e-4
-1.355, 6.195e-4
-1.356, 6.275e-4
-1.357, 6.345e-4
-1.358, 6.421e-4
-1.359, 6.509e-4
-1.360, 6.590e-4
-1.361, 6.680e-4
-1.362, 6.753e-4
-1.363, 6.820e-4
-1.364, 6.878e-4
-1.365, 6.967e-4
-1.366, 7.060e-4
-1.367, 7.137e-4
-1.368, 7.215e-4
-1.369, 7.295e-4
-1.370, 7.368e-4
-1.371, 7.412e-4
-1.372, 7.506e-4
-1.373, 7.598e-4
-1.374, 7.671e-4
-1.375, 7.735e-4
-1.376, 7.830e-4
-1.377, 7.907e-4
-1.378, 7.976e-4
-1.379, 8.054e-4
-1.380, 8.131e-4
-1.381, 8.211e-4
-1.382, 8.307e-4
-1.383, 8.379e-4
-1.384, 8.447e-4
-1.385, 8.527e-4
-1.386, 8.589e-4
-1.387, 8.663e-4
-1.388, 8.735e-4
-1.389, 8.810e-4
-1.390, 8.887e-4
-1.391, 8.964e-4
-1.392, 9.027e-4
-1.393, 9.141e-4
-1.394, 9.194e-4
-1.395, 9.268e-4
-1.396, 9.337e-4
-1.397, 9.408e-4
-1.398, 9.489e-4
-1.399, 9.579e-4
-1.400, 9.651e-4
-1.401, 9.707e-4
-1.402, 9.758e-4
-1.403, 9.833e-4
-1.404, 9.922e-4
-1.405, 9.986e-4
-1.406, 1.005e-3
-1.407, 1.011e-3
-1.408, 1.018e-3
-1.409, 1.025e-3
-1.410, 1.033e-3
-1.411, 1.040e-3
-1.412, 1.049e-3
-1.413, 1.055e-3
-1.414, 1.063e-3
-1.415, 1.071e-3
-1.416, 1.077e-3
-1.417, 1.083e-3
-1.418, 1.090e-3
-1.419, 1.098e-3
-1.420, 1.106e-3
-1.421, 1.113e-3
-1.422, 1.118e-3
-1.423, 1.127e-3
-1.424, 1.133e-3
-1.425, 1.140e-3
-1.426, 1.146e-3
-1.427, 1.155e-3
-1.428, 1.165e-3
-1.429, 1.169e-3
-1.430, 1.178e-3
-1.431, 1.189e-3
-1.432, 1.194e-3
-1.433, 1.201e-3
-1.434, 1.208e-3
-1.435, 1.216e-3
-1.436, 1.223e-3
-1.437, 1.231e-3
-1.438, 1.237e-3
-1.439, 1.250e-3
-1.440, 1.253e-3
-1.441, 1.259e-3
-1.442, 1.269e-3
-1.443, 1.279e-3
-1.444, 1.286e-3
-1.445, 1.291e-3
-1.446, 1.305e-3
-1.447, 1.312e-3
-1.448, 1.321e-3
-1.449, 1.328e-3
-1.450, 1.339e-3
-1.451, 1.346e-3
-1.452, 1.356e-3
-1.453, 1.365e-3
-1.454, 1.374e-3
-1.455, 1.379e-3
-1.456, 1.387e-3
-1.457, 1.399e-3
-1.458, 1.408e-3
-1.459, 1.414e-3
-1.460, 1.426e-3
-1.461, 1.436e-3
-1.462, 1.442e-3
-1.463, 1.450e-3
-1.464, 1.457e-3
-1.465, 1.468e-3
-1.466, 1.478e-3
-1.467, 1.485e-3
-1.468, 1.491e-3
-1.469, 1.500e-3
-1.470, 1.516e-3
-1.471, 1.527e-3
-1.472, 1.535e-3
-1.473, 1.546e-3
-1.474, 1.553e-3
-1.475, 1.561e-3
-1.476, 1.579e-3
-1.477, 1.594e-3
-1.478, 1.597e-3
-1.479, 1.607e-3
-1.480, 1.620e-3
-1.481, 1.630e-3
-1.482, 1.642e-3
-1.483, 1.650e-3
-1.484, 1.666e-3
-1.485, 1.673e-3
-1.486, 1.683e-3
-1.487, 1.698e-3
-1.488, 1.707e-3
-1.489, 1.717e-3
-1.490, 1.733e-3
-1.491, 1.745e-3
-1.492, 1.754e-3
-1.493, 1.760e-3
-1.494, 1.771e-3
-1.495, 1.787e-3
-1.496, 1.799e-3
-1.497, 1.809e-3
-1.498, 1.821e-3
-1.499, 1.833e-3
-1.500, 1.842e-3
-1.501, 1.853e-3
-1.502, 1.865e-3
-1.503, 1.879e-3
-1.504, 1.893e-3
-1.505, 1.908e-3
-1.506, 1.918e-3
-1.507, 1.932e-3
-1.508, 1.950e-3
-1.509, 1.959e-3
-1.510, 1.975e-3
-1.511, 1.988e-3
-1.512, 2.003e-3
-1.513, 2.016e-3
-1.514, 2.030e-3
-1.515, 2.048e-3
-1.516, 2.063e-3
-1.517, 2.076e-3
-1.518, 2.091e-3
-1.519, 2.108e-3
-1.520, 2.124e-3
-1.521, 2.142e-3
-1.522, 2.160e-3
-1.523, 2.170e-3
-1.524, 2.184e-3
-1.525, 2.199e-3
-1.526, 2.220e-3
-1.527, 2.236e-3
-1.528, 2.252e-3
-1.529, 2.261e-3
-1.530, 2.290e-3
-1.531, 2.300e-3
-1.532, 2.317e-3
-1.533, 2.333e-3
-1.534, 2.355e-3
-1.535, 2.374e-3
-1.536, 2.388e-3
-1.537, 2.404e-3
-1.538, 2.424e-3
-1.539, 2.441e-3
-1.540, 2.461e-3
-1.541, 2.481e-3
-1.542, 2.502e-3
-1.543, 2.521e-3
-1.544, 2.544e-3
-1.545, 2.564e-3
-1.546, 2.586e-3
-1.547, 2.608e-3
-1.548, 2.626e-3
-1.549, 2.646e-3
-1.550, 2.669e-3
-1.551, 2.696e-3
-1.552, 2.722e-3
-1.553, 2.742e-3
-1.554, 2.763e-3
-1.555, 2.786e-3
-1.556, 2.811e-3
-1.557, 2.834e-3
-1.558, 2.857e-3
-1.559, 2.882e-3
-1.560, 2.906e-3
-1.561, 2.933e-3
-1.562, 2.960e-3
-1.563, 2.986e-3
-1.564, 3.011e-3
-1.565, 3.038e-3
-1.566, 3.067e-3
-1.567, 3.095e-3
-1.568, 3.122e-3
-1.569, 3.149e-3
-1.570, 3.177e-3
-1.571, 3.206e-3
-1.572, 3.237e-3
-1.573, 3.264e-3
-1.574, 3.293e-3
-1.575, 3.326e-3
-1.576, 3.358e-3
-1.577, 3.389e-3
-1.578, 3.417e-3
-1.579, 3.450e-3
-1.580, 3.484e-3
-1.581, 3.517e-3
-1.582, 3.548e-3
-1.583, 3.582e-3
-1.584, 3.618e-3
-1.585, 3.651e-3
-1.586, 3.684e-3
-1.587, 3.719e-3
-1.588, 3.756e-3
-1.589, 3.789e-3
-1.590, 3.826e-3
-1.591, 3.863e-3
-1.592, 3.899e-3
-1.593, 3.937e-3
-1.594, 3.971e-3
-1.595, 4.010e-3
-1.596, 4.051e-3
-1.597, 4.089e-3
-1.598, 4.128e-3
-1.599, 4.170e-3
-1.600, 4.211e-3
-1.601, 4.250e-3
-1.602, 4.289e-3
-1.603, 4.333e-3
-1.604, 4.374e-3
-1.605, 4.415e-3
-1.606, 4.456e-3
-1.607, 4.500e-3
-1.608, 4.549e-3
-1.609, 4.595e-3
-1.610, 4.638e-3
-1.611, 4.682e-3
-1.612, 4.730e-3
-1.613, 4.780e-3
-1.614, 4.833e-3
-1.615, 4.882e-3
-1.616, 4.928e-3
-1.617, 4.974e-3
-1.618, 5.021e-3
-1.619, 5.074e-3
-1.620, 5.125e-3
-1.621, 5.172e-3
-1.622, 5.223e-3
-1.623, 5.278e-3
-1.624, 5.330e-3
-1.625, 5.380e-3
-1.626, 5.434e-3
-1.627, 5.487e-3
-1.628, 5.540e-3
-1.629, 5.598e-3
-1.630, 5.653e-3
-1.631, 5.708e-3
-1.632, 5.764e-3
-1.633, 5.820e-3
-1.634, 5.877e-3
-1.635, 5.933e-3
-1.636, 5.991e-3
-1.637, 6.051e-3
-1.638, 6.111e-3
-1.639, 6.167e-3
-1.640, 6.226e-3
-1.641, 6.290e-3
-1.642, 6.352e-3
-1.643, 6.413e-3
-1.644, 6.470e-3
-1.645, 6.535e-3
-1.646, 6.604e-3
-1.647, 6.668e-3
-1.648, 6.729e-3
-1.649, 6.791e-3
-1.650, 6.859e-3
-1.651, 6.924e-3
-1.652, 6.988e-3
-1.653, 7.056e-3
-1.654, 7.127e-3
-1.655, 7.198e-3
-1.656, 7.264e-3
-1.657, 7.329e-3
-1.658, 7.398e-3
-1.659, 7.468e-3
-1.660, 7.533e-3
-1.661, 7.597e-3
-1.662, 7.670e-3
-1.663, 7.753e-3
-1.664, 7.820e-3
-1.665, 7.888e-3
-1.666, 7.961e-3
-1.667, 8.039e-3
-1.668, 8.119e-3
-1.669, 8.191e-3
-1.670, 8.266e-3
-1.671, 8.349e-3
-1.672, 8.423e-3
-1.673, 8.492e-3
-1.674, 8.567e-3
-1.675, 8.649e-3
-1.676, 8.727e-3
-1.677, 8.802e-3
-1.678, 8.884e-3
-1.679, 8.973e-3
-1.680, 9.056e-3
-1.681, 9.125e-3
-1.682, 9.205e-3
-1.683, 9.289e-3
-1.684, 9.373e-3
-1.685, 9.459e-3
-1.686, 9.538e-3
-1.687, 9.625e-3
-1.688, 9.710e-3
-1.689, 9.795e-3
-1.690, 9.882e-3
-1.691, 9.959e-3
-1.692, 1.004e-2
-1.693, 1.013e-2
-1.694, 1.023e-2
-1.695, 1.031e-2
-1.696, 1.039e-2
-1.697, 1.048e-2
-1.698, 1.056e-2
-1.699, 1.065e-2
-1.700, 1.065e-2
-1.699, 1.058e-2
-1.698, 1.052e-2
-1.697, 1.045e-2
-1.696, 1.038e-2
-1.695, 1.032e-2
-1.694, 1.025e-2
-1.693, 1.018e-2
-1.692, 1.010e-2
-1.691, 1.004e-2
-1.690, 9.969e-3
-1.689, 9.895e-3
-1.688, 9.813e-3
-1.687, 9.737e-3
-1.686, 9.671e-3
-1.685, 9.598e-3
-1.684, 9.523e-3
-1.683, 9.446e-3
-1.682, 9.382e-3
-1.681, 9.316e-3
-1.680, 9.235e-3
-1.679, 9.159e-3
-1.678, 9.090e-3
-1.677, 9.022e-3
-1.676, 8.951e-3
-1.675, 8.876e-3
-1.674, 8.807e-3
-1.673, 8.743e-3
-1.672, 8.675e-3
-1.671, 8.596e-3
-1.670, 8.521e-3
-1.669, 8.459e-3
-1.668, 8.394e-3
-1.667, 8.324e-3
-1.666, 8.248e-3
-1.665, 8.180e-3
-1.664, 8.113e-3
-1.663, 8.045e-3
-1.662, 7.975e-3
-1.661, 7.904e-3
-1.660, 7.843e-3
-1.659, 7.781e-3
-1.658, 7.712e-3
-1.657, 7.648e-3
-1.656, 7.579e-3
-1.655, 7.518e-3
-1.654, 7.454e-3
-1.653, 7.388e-3
-1.652, 7.325e-3
-1.651, 7.260e-3
-1.650, 7.196e-3
-1.649, 7.130e-3
-1.648, 7.067e-3
-1.647, 7.003e-3
-1.646, 6.939e-3
-1.645, 6.882e-3
-1.644, 6.820e-3
-1.643, 6.760e-3
-1.642, 6.695e-3
-1.641, 6.632e-3
-1.640, 6.575e-3
-1.639, 6.512e-3
-1.638, 6.445e-3
-1.637, 6.386e-3
-1.636, 6.331e-3
-1.635, 6.267e-3
-1.634, 6.202e-3
-1.633, 6.148e-3
-1.632, 6.100e-3
-1.631, 6.046e-3
-1.630, 6.006e-3
-1.629, 5.951e-3
-1.628, 5.886e-3
-1.627, 5.828e-3
-1.626, 5.772e-3
-1.625, 5.721e-3
-1.624, 5.669e-3
-1.623, 5.619e-3
-1.622, 5.561e-3
-1.621, 5.508e-3
-1.620, 5.463e-3
-1.619, 5.406e-3
-1.618, 5.351e-3
-1.617, 5.295e-3
-1.616, 5.239e-3
-1.615, 5.186e-3
-1.614, 5.153e-3
-1.613, 5.089e-3
-1.612, 5.026e-3
-1.611, 4.975e-3
-1.610, 4.928e-3
-1.609, 4.884e-3
-1.608, 4.833e-3
-1.607, 4.778e-3
-1.606, 4.730e-3
-1.605, 4.709e-3
-1.604, 4.647e-3
-1.603, 4.607e-3
-1.602, 4.560e-3
-1.601, 4.520e-3
-1.600, 4.479e-3
-1.599, 4.431e-3
-1.598, 4.389e-3
-1.597, 4.352e-3
-1.596, 4.302e-3
-1.595, 4.258e-3
-1.594, 4.221e-3
-1.593, 4.178e-3
-1.592, 4.131e-3
-1.591, 4.098e-3
-1.590, 4.058e-3
-1.589, 4.011e-3
-1.588, 3.969e-3
-1.587, 3.940e-3
-1.586, 3.897e-3
-1.585, 3.858e-3
-1.584, 3.821e-3
-1.583, 3.794e-3
-1.582, 3.754e-3
-1.581, 3.696e-3
-1.580, 3.662e-3
-1.579, 3.635e-3
-1.578, 3.597e-3
-1.577, 3.557e-3
-1.576, 3.524e-3
-1.575, 3.487e-3
-1.574, 3.445e-3
-1.573, 3.403e-3
-1.572, 3.371e-3
-1.571, 3.341e-3
-1.570, 3.308e-3
-1.569, 3.269e-3
-1.568, 3.228e-3
-1.567, 3.202e-3
-1.566, 3.178e-3
-1.565, 3.144e-3
-1.564, 3.109e-3
-1.563, 3.078e-3
-1.562, 3.046e-3
-1.561, 3.013e-3
-1.560, 2.999e-3
-1.559, 2.977e-3
-1.558, 2.937e-3
-1.557, 2.906e-3
-1.556, 2.881e-3
-1.555, 2.851e-3
-1.554, 2.824e-3
-1.553, 2.797e-3
-1.552, 2.770e-3
-1.551, 2.740e-3
-1.550, 2.707e-3
-1.549, 2.684e-3
-1.548, 2.658e-3
-1.547, 2.629e-3
-1.546, 2.609e-3
-1.545, 2.582e-3
-1.544, 2.554e-3
-1.543, 2.517e-3
-1.542, 2.495e-3
-1.541, 2.474e-3
-1.540, 2.447e-3
-1.539, 2.421e-3
-1.538, 2.394e-3
-1.537, 2.378e-3
-1.536, 2.360e-3
-1.535, 2.337e-3
-1.534, 2.312e-3
-1.533, 2.292e-3
-1.532, 2.271e-3
-1.531, 2.251e-3
-1.530, 2.230e-3
-1.529, 2.208e-3
-1.528, 2.184e-3
-1.527, 2.157e-3
-1.526, 2.138e-3
-1.525, 2.119e-3
-1.524, 2.098e-3
-1.523, 2.077e-3
-1.522, 2.055e-3
-1.521, 2.041e-3
-1.520, 2.010e-3
-1.519, 1.994e-3
-1.518, 1.976e-3
-1.517, 1.960e-3
-1.516, 1.936e-3
-1.515, 1.919e-3
-1.514, 1.908e-3
-1.513, 1.889e-3
-1.512, 1.870e-3
-1.511, 1.851e-3
-1.510, 1.835e-3
-1.509, 1.818e-3
-1.508, 1.800e-3
-1.507, 1.779e-3
-1.506, 1.765e-3
-1.505, 1.749e-3
-1.504, 1.730e-3
-1.503, 1.715e-3
-1.502, 1.698e-3
-1.501, 1.685e-3
-1.500, 1.671e-3
-1.499, 1.649e-3
-1.498, 1.634e-3
-1.497, 1.616e-3
-1.496, 1.602e-3
-1.495, 1.589e-3
-1.494, 1.574e-3
-1.493, 1.560e-3
-1.492, 1.545e-3
-1.491, 1.532e-3
-1.490, 1.517e-3
-1.489, 1.499e-3
-1.488, 1.486e-3
-1.487, 1.474e-3
-1.486, 1.459e-3
-1.485, 1.445e-3
-1.484, 1.434e-3
-1.483, 1.420e-3
-1.482, 1.404e-3
-1.481, 1.385e-3
-1.480, 1.375e-3
-1.479, 1.363e-3
-1.478, 1.350e-3
-1.477, 1.337e-3
-1.476, 1.323e-3
-1.475, 1.313e-3
-1.474, 1.301e-3
-1.473, 1.290e-3
-1.472, 1.279e-3
-1.471, 1.266e-3
-1.470, 1.252e-3
-1.469, 1.243e-3
-1.468, 1.236e-3
-1.467, 1.222e-3
-1.466, 1.208e-3
-1.465, 1.197e-3
-1.464, 1.188e-3
-1.463, 1.175e-3
-1.462, 1.165e-3
-1.461, 1.154e-3
-1.460, 1.142e-3
-1.459, 1.130e-3
-1.458, 1.116e-3
-1.457, 1.107e-3
-1.456, 1.099e-3
-1.455, 1.088e-3
-1.454, 1.075e-3
-1.453, 1.064e-3
-1.452, 1.055e-3
-1.451, 1.043e-3
-1.450, 1.034e-3
-1.449, 1.024e-3
-1.448, 1.016e-3
-1.447, 1.004e-3
-1.446, 9.940e-4
-1.445, 9.878e-4
-1.444, 9.758e-4
-1.443, 9.663e-4
-1.442, 9.568e-4
-1.441, 9.478e-4
-1.440, 9.384e-4
-1.439, 9.291e-4
-1.438, 9.206e-4
-1.437, 9.121e-4
-1.436, 8.996e-4
-1.435, 8.891e-4
-1.434, 8.809e-4
-1.433, 8.733e-4
-1.432, 8.648e-4
-1.431, 8.565e-4
-1.430, 8.481e-4
-1.429, 8.388e-4
-1.428, 8.280e-4
-1.427, 8.183e-4
-1.426, 8.102e-4
-1.425, 8.029e-4
-1.424, 7.948e-4
-1.423, 7.843e-4
-1.422, 7.790e-4
-1.421, 7.688e-4
-1.420, 7.612e-4
-1.419, 7.528e-4
-1.418, 7.458e-4
-1.417, 7.371e-4
-1.416, 7.293e-4
-1.415, 7.224e-4
-1.414, 7.134e-4
-1.413, 7.043e-4
-1.412, 6.966e-4
-1.411, 6.902e-4
-1.410, 6.840e-4
-1.409, 6.741e-4
-1.408, 6.669e-4
-1.407, 6.615e-4
-1.406, 6.510e-4
-1.405, 6.441e-4
-1.404, 6.371e-4
-1.403, 6.300e-4
-1.402, 6.230e-4
-1.401, 6.154e-4
-1.400, 6.096e-4
-1.399, 6.029e-4
-1.398, 5.935e-4
-1.397, 5.873e-4
-1.396, 5.805e-4
-1.395, 5.732e-4
-1.394, 5.664e-4
-1.393, 5.591e-4
-1.392, 5.538e-4
-1.391, 5.491e-4
-1.390, 5.389e-4
-1.389, 5.334e-4
-1.388, 5.273e-4
-1.387, 5.207e-4
-1.386, 5.131e-4
-1.385, 5.075e-4
-1.384, 5.025e-4
-1.383, 4.955e-4
-1.382, 4.878e-4
-1.381, 4.820e-4
-1.380, 4.756e-4
-1.379, 4.696e-4
-1.378, 4.636e-4
-1.377, 4.581e-4
-1.376, 4.522e-4
-1.375, 4.450e-4
-1.374, 4.387e-4
-1.373, 4.336e-4
-1.372, 4.273e-4
-1.371, 4.221e-4
-1.370, 4.153e-4
-1.369, 4.090e-4
-1.368, 4.043e-4
-1.367, 3.993e-4
-1.366, 3.931e-4
-1.365, 3.879e-4
-1.364, 3.818e-4
-1.363, 3.768e-4
-1.362, 3.712e-4
-1.361, 3.657e-4
-1.360, 3.618e-4
-1.359, 3.567e-4
-1.358, 3.506e-4
-1.357, 3.454e-4
-1.356, 3.398e-4
-1.355, 3.354e-4
-1.354, 3.308e-4
-1.353, 3.248e-4
-1.352, 3.189e-4
-1.351, 3.141e-4
-1.350, 3.099e-4
-1.349, 3.048e-4
-1.348, 2.995e-4
-1.347, 2.945e-4
-1.346, 2.903e-4
-1.345, 2.844e-4
-1.344, 2.807e-4
-1.343, 2.757e-4
-1.342, 2.707e-4
-1.341, 2.665e-4
-1.340, 2.621e-4
-1.339, 2.571e-4
-1.338, 2.516e-4
-1.337, 2.473e-4
-1.336, 2.434e-4
-1.335, 2.391e-4
-1.334, 2.351e-4
-1.333, 2.309e-4
-1.332, 2.260e-4
-1.331, 2.219e-4
-1.330, 2.182e-4
-1.329, 2.136e-4
-1.328, 2.103e-4
-1.327, 2.062e-4
-1.326, 2.016e-4
-1.325, 1.973e-4
-1.324, 1.934e-4
-1.323, 1.897e-4
-1.322, 1.863e-4
-1.321, 1.817e-4
-1.320, 1.777e-4
-1.319, 1.738e-4
-1.318, 1.699e-4
-1.317, 1.670e-4
-1.316, 1.631e-4
-1.315, 1.586e-4
-1.314, 1.551e-4
-1.313, 1.509e-4
-1.312, 1.478e-4
-1.311, 1.445e-4
-1.310, 1.405e-4
-1.309, 1.373e-4
-1.308, 1.330e-4
-1.307, 1.300e-4
-1.306, 1.263e-4
-1.305, 1.228e-4
-1.304, 1.200e-4
-1.303, 1.165e-4
-1.302, 1.131e-4
-1.301, 1.099e-4
-1.300, 1.068e-4
-1.299, 1.027e-4
-1.298, 9.996e-5
-1.297, 9.668e-5
-1.296, 9.394e-5
-1.295, 9.055e-5
-1.294, 8.683e-5
-1.293, 8.464e-5
-1.292, 8.119e-5
-1.291, 7.816e-5
-1.290, 7.541e-5
-1.289, 7.237e-5
-1.288, 6.935e-5
-1.287, 6.678e-5
-1.286, 6.356e-5
-1.285, 6.102e-5
-1.284, 5.822e-5
-1.283, 5.474e-5
-1.282, 5.256e-5
-1.281, 4.953e-5
-1.280, 4.643e-5
-1.279, 4.397e-5
-1.278, 4.111e-5
-1.277, 3.913e-5
-1.276, 3.572e-5
-1.275, 3.342e-5
-1.274, 3.121e-5
-1.273, 2.796e-5
-1.272, 2.554e-5
-1.271, 2.341e-5
-1.270, 2.069e-5
-1.269, 1.856e-5
-1.268, 1.595e-5
-1.267, 1.343e-5
-1.266, 1.091e-5
-1.265, 8.572e-6
-1.264, 6.519e-6
-1.263, 4.487e-6
-1.262, 1.596e-6
-1.261, -1.697e-7
-1.260, -2.390e-6
-1.259, -4.373e-6
-1.258, -6.277e-6
-1.257, -8.832e-6
-1.256, -1.054e-5
-1.255, -1.315e-5
-1.254, -1.517e-5
-1.253, -1.698e-5
-1.252, -1.890e-5
-1.251, -2.082e-5
-1.250, -2.224e-5
-1.249, -2.495e-5
-1.248, -2.587e-5
-1.247, -2.792e-5
-1.246, -3.000e-5
-1.245, -3.174e-5
-1.244, -3.290e-5
-1.243, -3.508e-5
-1.242, -3.643e-5
-1.241, -3.848e-5
-1.240, -3.964e-5
-1.239, -4.151e-5
-1.238, -4.367e-5
-1.237, -4.440e-5
-1.236, -4.615e-5
-1.235, -4.806e-5
-1.234, -4.906e-5
-1.233, -5.084e-5
-1.232, -5.196e-5
-1.231, -5.318e-5
-1.230, -5.494e-5
-1.229, -5.712e-5
-1.228, -5.819e-5
-1.227, -5.895e-5
-1.226, -5.987e-5
-1.225, -6.191e-5
-1.224, -6.255e-5
-1.223, -6.385e-5
-1.222, -6.503e-5
-1.221, -6.613e-5
-1.220, -6.730e-5
-1.219, -6.839e-5
-1.218, -6.945e-5
-1.217, -7.074e-5
-1.216, -7.138e-5
-1.215, -7.268e-5
-1.214, -7.399e-5
-1.213, -7.435e-5
-1.212, -7.567e-5
-1.211, -7.648e-5
-1.210, -7.745e-5
-1.209, -7.863e-5
-1.208, -7.910e-5
-1.207, -7.972e-5
-1.206, -8.104e-5
-1.205, -8.147e-5
-1.204, -8.247e-5
-1.203, -8.355e-5
-1.202, -8.442e-5
-1.201, -8.513e-5
-1.200, -8.537e-5
-1.199, -8.624e-5
-1.198, -8.691e-5
-1.197, -8.749e-5
-1.196, -8.814e-5
-1.195, -8.906e-5
-1.194, -8.931e-5
-1.193, -9.057e-5
-1.192, -9.050e-5
-1.191, -9.109e-5
-1.190, -9.217e-5
-1.189, -9.244e-5
-1.188, -9.313e-5
-1.187, -9.372e-5
-1.186, -9.422e-5
-1.185, -9.478e-5
-1.184, -9.454e-5
-1.183, -9.544e-5
-1.182, -9.648e-5
-1.181, -9.661e-5
-1.180, -9.654e-5
-1.179, -9.723e-5
-1.178, -9.840e-5
-1.177, -9.856e-5
-1.176, -9.871e-5
-1.175, -9.914e-5
-1.174, -9.949e-5
-1.173, -1.001e-4
-1.172, -1.004e-4
-1.171, -1.005e-4
-1.170, -1.010e-4
-1.169, -1.015e-4
-1.168, -1.010e-4
-1.167, -1.015e-4
-1.166, -1.025e-4
-1.165, -1.023e-4
-1.164, -1.027e-4
-1.163, -1.032e-4
-1.162, -1.035e-4
-1.161, -1.038e-4
-1.160, -1.036e-4
-1.159, -1.044e-4
-1.158, -1.048e-4
-1.157, -1.046e-4
-1.156, -1.049e-4
-1.155, -1.052e-4
-1.154, -1.054e-4
-1.153, -1.057e-4
-1.152, -1.053e-4
-1.151, -1.062e-4
-1.150, -1.062e-4
-1.149, -1.060e-4
-1.148, -1.066e-4
-1.147, -1.069e-4
-1.146, -1.071e-4
-1.145, -1.071e-4
-1.144, -1.073e-4
-1.143, -1.074e-4
-1.142, -1.079e-4
-1.141, -1.074e-4
-1.140, -1.078e-4
-1.139, -1.086e-4
-1.138, -1.082e-4
-1.137, -1.086e-4
-1.136, -1.088e-4
-1.135, -1.090e-4
-1.134, -1.086e-4
-1.133, -1.088e-4
-1.132, -1.096e-4
-1.131, -1.096e-4
-1.130, -1.092e-4
-1.129, -1.098e-4
-1.128, -1.097e-4
-1.127, -1.101e-4
-1.126, -1.105e-4
-1.125, -1.104e-4
-1.124, -1.105e-4
-1.123, -1.106e-4
-1.122, -1.106e-4
-1.121, -1.109e-4
-1.120, -1.106e-4
-1.119, -1.112e-4
-1.118, -1.114e-4
-1.117, -1.111e-4
-1.116, -1.117e-4
-1.115, -1.111e-4
-1.114, -1.117e-4
-1.113, -1.117e-4
-1.112, -1.117e-4
-1.111, -1.120e-4
-1.110, -1.119e-4
-1.109, -1.120e-4
-1.108, -1.122e-4
-1.107, -1.119e-4
-1.106, -1.120e-4
-1.105, -1.127e-4
-1.104, -1.123e-4
-1.103, -1.123e-4
-1.102, -1.130e-4
-1.101, -1.130e-4
-1.100, -1.127e-4
-1.099, -1.130e-4
-1.098, -1.129e-4
-1.097, -1.134e-4
-1.096, -1.132e-4
-1.095, -1.133e-4
-1.094, -1.132e-4
-1.093, -1.131e-4
-1.092, -1.133e-4
-1.091, -1.136e-4
-1.090, -1.134e-4
-1.089, -1.135e-4
-1.088, -1.136e-4
-1.087, -1.135e-4
-1.086, -1.140e-4
-1.085, -1.137e-4
-1.084, -1.135e-4
-1.083, -1.139e-4
-1.082, -1.137e-4
-1.081, -1.143e-4
-1.080, -1.136e-4
-1.079, -1.139e-4
-1.078, -1.150e-4
-1.077, -1.139e-4
-1.076, -1.146e-4
-1.075, -1.153e-4
-1.074, -1.146e-4
-1.073, -1.154e-4
-1.072, -1.151e-4
-1.071, -1.150e-4
-1.070, -1.153e-4
-1.069, -1.150e-4
-1.068, -1.150e-4
-1.067, -1.149e-4
-1.066, -1.152e-4
-1.065, -1.158e-4
-1.064, -1.148e-4
-1.063, -1.156e-4
-1.062, -1.156e-4
-1.061, -1.153e-4
-1.060, -1.157e-4
-1.059, -1.160e-4
-1.058, -1.157e-4
-1.057, -1.156e-4
-1.056, -1.164e-4
-1.055, -1.164e-4
-1.054, -1.158e-4
-1.053, -1.160e-4
-1.052, -1.162e-4
-1.051, -1.162e-4
-1.050, -1.163e-4
-1.049, -1.172e-4
-1.048, -1.170e-4
-1.047, -1.167e-4
-1.046, -1.169e-4
-1.045, -1.167e-4
-1.044, -1.169e-4
-1.043, -1.172e-4
-1.042, -1.167e-4
-1.041, -1.174e-4
-1.040, -1.173e-4
-1.039, -1.174e-4
-1.038, -1.177e-4
-1.037, -1.173e-4
-1.036, -1.179e-4
-1.035, -1.182e-4
-1.034, -1.178e-4
-1.033, -1.181e-4
-1.032, -1.179e-4
-1.031, -1.178e-4
-1.030, -1.184e-4
-1.029, -1.181e-4
-1.028, -1.186e-4
-1.027, -1.182e-4
-1.026, -1.183e-4
-1.025, -1.186e-4
-1.024, -1.187e-4
-1.023, -1.191e-4
-1.022, -1.192e-4
-1.021, -1.188e-4
-1.020, -1.191e-4
-1.019, -1.196e-4
-1.018, -1.195e-4
-1.017, -1.195e-4
-1.016, -1.195e-4
-1.015, -1.194e-4
-1.014, -1.199e-4
-1.013, -1.197e-4
-1.012, -1.200e-4
-1.011, -1.203e-4
-1.010, -1.201e-4
-1.009, -1.206e-4
-1.008, -1.196e-4
-1.007, -1.200e-4
-1.006, -1.203e-4
-1.005, -1.205e-4
-1.004, -1.204e-4
-1.003, -1.206e-4
-1.002, -1.209e-4
-1.001, -1.217e-4
