Apr. 23, 2025   20:22:44
Cyclic Voltammetry
File: c:/users/guazh/data/banditlqround7_x0exp590_r20/2025-04-16-exp1169\exp1169-2025-04-23t20_01_57-h2koh\exp1169_cv_sr_800mvs_efin_-1800mv.bin
Data Source:  Experiment
Instrument Model:  CHI760E
Header: CV ran at 800 mVs
Note: 

Init E (V) = -1
High E (V) = -1
Low E (V) = -1.8
Final E (V) = -1
Init P/N = N
Scan Rate (V/s) = 0.8
Segment = 3
Sample Interval (V) = 0.001
Quiet Time (sec) = 2
Sensitivity (A/V) = 0.01
Comp R (ohm) = 2.0

Results:

Channel 1:
Segment 1:

Segment 2:

Segment 3:

Potential/V, Current/A

-1.000, 2.482e-5
-1.001, 3.715e-5
-1.002, 4.024e-5
-1.003, 4.024e-5
-1.004, 4.332e-5
-1.005, 4.640e-5
-1.006, 4.640e-5
-1.007, 4.640e-5
-1.008, 4.640e-5
-1.009, 4.640e-5
-1.010, 4.949e-5
-1.011, 4.640e-5
-1.012, 4.949e-5
-1.013, 4.949e-5
-1.014, 4.949e-5
-1.015, 4.949e-5
-1.016, 4.949e-5
-1.017, 4.949e-5
-1.018, 5.257e-5
-1.019, 4.949e-5
-1.020, 5.257e-5
-1.021, 5.257e-5
-1.022, 5.257e-5
-1.023, 5.257e-5
-1.024, 5.257e-5
-1.025, 5.257e-5
-1.026, 5.257e-5
-1.027, 5.257e-5
-1.028, 5.257e-5
-1.029, 5.257e-5
-1.030, 5.565e-5
-1.031, 5.565e-5
-1.032, 5.565e-5
-1.033, 5.565e-5
-1.034, 5.565e-5
-1.035, 5.565e-5
-1.036, 5.873e-5
-1.037, 5.873e-5
-1.038, 5.565e-5
-1.039, 5.565e-5
-1.040, 5.565e-5
-1.041, 5.565e-5
-1.042, 5.565e-5
-1.043, 5.873e-5
-1.044, 5.873e-5
-1.045, 5.873e-5
-1.046, 5.873e-5
-1.047, 6.182e-5
-1.048, 5.873e-5
-1.049, 5.873e-5
-1.050, 6.182e-5
-1.051, 6.182e-5
-1.052, 5.873e-5
-1.053, 5.873e-5
-1.054, 6.182e-5
-1.055, 6.182e-5
-1.056, 6.182e-5
-1.057, 6.182e-5
-1.058, 6.182e-5
-1.059, 6.182e-5
-1.060, 6.182e-5
-1.061, 6.182e-5
-1.062, 6.490e-5
-1.063, 6.490e-5
-1.064, 6.182e-5
-1.065, 6.182e-5
-1.066, 6.490e-5
-1.067, 6.182e-5
-1.068, 6.182e-5
-1.069, 6.182e-5
-1.070, 6.182e-5
-1.071, 6.490e-5
-1.072, 6.490e-5
-1.073, 6.490e-5
-1.074, 6.798e-5
-1.075, 6.490e-5
-1.076, 6.490e-5
-1.077, 6.490e-5
-1.078, 6.490e-5
-1.079, 6.490e-5
-1.080, 6.490e-5
-1.081, 6.490e-5
-1.082, 6.490e-5
-1.083, 6.490e-5
-1.084, 6.798e-5
-1.085, 6.798e-5
-1.086, 6.798e-5
-1.087, 6.798e-5
-1.088, 6.798e-5
-1.089, 6.798e-5
-1.090, 6.798e-5
-1.091, 6.798e-5
-1.092, 6.798e-5
-1.093, 6.798e-5
-1.094, 6.798e-5
-1.095, 7.107e-5
-1.096, 6.798e-5
-1.097, 6.798e-5
-1.098, 7.107e-5
-1.099, 7.107e-5
-1.100, 7.107e-5
-1.101, 7.415e-5
-1.102, 7.107e-5
-1.103, 7.107e-5
-1.104, 7.107e-5
-1.105, 7.107e-5
-1.106, 7.107e-5
-1.107, 7.107e-5
-1.108, 7.107e-5
-1.109, 7.107e-5
-1.110, 7.107e-5
-1.111, 7.415e-5
-1.112, 7.415e-5
-1.113, 7.415e-5
-1.114, 7.415e-5
-1.115, 7.415e-5
-1.116, 7.415e-5
-1.117, 7.415e-5
-1.118, 7.415e-5
-1.119, 7.415e-5
-1.120, 7.415e-5
-1.121, 7.415e-5
-1.122, 7.415e-5
-1.123, 7.415e-5
-1.124, 7.415e-5
-1.125, 7.415e-5
-1.126, 7.723e-5
-1.127, 7.723e-5
-1.128, 7.723e-5
-1.129, 7.723e-5
-1.130, 7.723e-5
-1.131, 7.415e-5
-1.132, 7.723e-5
-1.133, 7.723e-5
-1.134, 7.723e-5
-1.135, 7.723e-5
-1.136, 7.723e-5
-1.137, 7.723e-5
-1.138, 7.723e-5
-1.139, 7.723e-5
-1.140, 7.723e-5
-1.141, 8.032e-5
-1.142, 7.723e-5
-1.143, 8.032e-5
-1.144, 7.723e-5
-1.145, 7.723e-5
-1.146, 7.723e-5
-1.147, 7.723e-5
-1.148, 7.723e-5
-1.149, 7.723e-5
-1.150, 7.723e-5
-1.151, 8.032e-5
-1.152, 7.723e-5
-1.153, 8.032e-5
-1.154, 8.032e-5
-1.155, 8.032e-5
-1.156, 8.032e-5
-1.157, 8.032e-5
-1.158, 7.723e-5
-1.159, 8.032e-5
-1.160, 7.723e-5
-1.161, 7.723e-5
-1.162, 8.032e-5
-1.163, 8.032e-5
-1.164, 8.032e-5
-1.165, 8.032e-5
-1.166, 8.032e-5
-1.167, 8.340e-5
-1.168, 8.032e-5
-1.169, 8.032e-5
-1.170, 8.032e-5
-1.171, 8.032e-5
-1.172, 8.032e-5
-1.173, 8.032e-5
-1.174, 8.032e-5
-1.175, 8.032e-5
-1.176, 8.032e-5
-1.177, 8.032e-5
-1.178, 8.032e-5
-1.179, 8.032e-5
-1.180, 8.032e-5
-1.181, 8.340e-5
-1.182, 8.032e-5
-1.183, 8.032e-5
-1.184, 8.032e-5
-1.185, 8.032e-5
-1.186, 8.032e-5
-1.187, 8.032e-5
-1.188, 8.032e-5
-1.189, 8.032e-5
-1.190, 8.032e-5
-1.191, 8.032e-5
-1.192, 8.340e-5
-1.193, 8.032e-5
-1.194, 8.340e-5
-1.195, 8.340e-5
-1.196, 8.340e-5
-1.197, 8.032e-5
-1.198, 8.032e-5
-1.199, 8.032e-5
-1.200, 8.032e-5
-1.201, 8.032e-5
-1.202, 8.032e-5
-1.203, 8.032e-5
-1.204, 8.340e-5
-1.205, 8.032e-5
-1.206, 8.032e-5
-1.207, 8.340e-5
-1.208, 8.340e-5
-1.209, 8.032e-5
-1.210, 8.340e-5
-1.211, 8.032e-5
-1.212, 8.340e-5
-1.213, 8.032e-5
-1.214, 8.032e-5
-1.215, 8.340e-5
-1.216, 8.032e-5
-1.217, 8.032e-5
-1.218, 8.032e-5
-1.219, 8.032e-5
-1.220, 8.340e-5
-1.221, 8.340e-5
-1.222, 8.340e-5
-1.223, 8.032e-5
-1.224, 8.032e-5
-1.225, 8.032e-5
-1.226, 8.032e-5
-1.227, 8.032e-5
-1.228, 8.032e-5
-1.229, 8.032e-5
-1.230, 8.032e-5
-1.231, 8.340e-5
-1.232, 8.340e-5
-1.233, 8.340e-5
-1.234, 8.340e-5
-1.235, 8.032e-5
-1.236, 8.340e-5
-1.237, 8.340e-5
-1.238, 8.340e-5
-1.239, 8.340e-5
-1.240, 8.032e-5
-1.241, 8.032e-5
-1.242, 8.032e-5
-1.243, 8.032e-5
-1.244, 8.032e-5
-1.245, 8.340e-5
-1.246, 8.340e-5
-1.247, 8.340e-5
-1.248, 8.340e-5
-1.249, 8.340e-5
-1.250, 8.340e-5
-1.251, 8.340e-5
-1.252, 8.340e-5
-1.253, 8.340e-5
-1.254, 8.340e-5
-1.255, 8.340e-5
-1.256, 8.340e-5
-1.257, 8.340e-5
-1.258, 8.340e-5
-1.259, 8.340e-5
-1.260, 8.340e-5
-1.261, 8.340e-5
-1.262, 8.340e-5
-1.263, 8.340e-5
-1.264, 8.340e-5
-1.265, 8.340e-5
-1.266, 8.340e-5
-1.267, 8.340e-5
-1.268, 8.340e-5
-1.269, 8.340e-5
-1.270, 8.340e-5
-1.271, 8.340e-5
-1.272, 8.340e-5
-1.273, 8.340e-5
-1.274, 8.648e-5
-1.275, 8.340e-5
-1.276, 8.648e-5
-1.277, 8.340e-5
-1.278, 8.648e-5
-1.279, 8.340e-5
-1.280, 8.340e-5
-1.281, 8.340e-5
-1.282, 8.648e-5
-1.283, 8.340e-5
-1.284, 8.648e-5
-1.285, 8.648e-5
-1.286, 8.648e-5
-1.287, 8.648e-5
-1.288, 8.648e-5
-1.289, 8.648e-5
-1.290, 8.648e-5
-1.291, 8.648e-5
-1.292, 8.648e-5
-1.293, 8.648e-5
-1.294, 8.648e-5
-1.295, 8.648e-5
-1.296, 8.648e-5
-1.297, 8.648e-5
-1.298, 8.957e-5
-1.299, 8.648e-5
-1.300, 8.957e-5
-1.301, 8.957e-5
-1.302, 8.957e-5
-1.303, 8.957e-5
-1.304, 8.957e-5
-1.305, 8.957e-5
-1.306, 8.957e-5
-1.307, 8.648e-5
-1.308, 8.957e-5
-1.309, 8.957e-5
-1.310, 8.957e-5
-1.311, 8.957e-5
-1.312, 8.957e-5
-1.313, 8.957e-5
-1.314, 8.957e-5
-1.315, 9.265e-5
-1.316, 9.265e-5
-1.317, 9.265e-5
-1.318, 9.265e-5
-1.319, 9.265e-5
-1.320, 8.957e-5
-1.321, 9.265e-5
-1.322, 9.265e-5
-1.323, 9.265e-5
-1.324, 9.265e-5
-1.325, 9.265e-5
-1.326, 9.265e-5
-1.327, 9.573e-5
-1.328, 9.573e-5
-1.329, 9.573e-5
-1.330, 9.573e-5
-1.331, 9.265e-5
-1.332, 9.573e-5
-1.333, 9.573e-5
-1.334, 9.573e-5
-1.335, 9.573e-5
-1.336, 9.573e-5
-1.337, 9.573e-5
-1.338, 9.573e-5
-1.339, 9.573e-5
-1.340, 9.882e-5
-1.341, 9.882e-5
-1.342, 9.882e-5
-1.343, 9.882e-5
-1.344, 9.882e-5
-1.345, 9.882e-5
-1.346, 9.882e-5
-1.347, 9.882e-5
-1.348, 9.882e-5
-1.349, 9.882e-5
-1.350, 9.882e-5
-1.351, 1.019e-4
-1.352, 1.019e-4
-1.353, 1.019e-4
-1.354, 1.050e-4
-1.355, 1.019e-4
-1.356, 1.050e-4
-1.357, 1.050e-4
-1.358, 1.050e-4
-1.359, 1.050e-4
-1.360, 1.050e-4
-1.361, 1.050e-4
-1.362, 1.050e-4
-1.363, 1.050e-4
-1.364, 1.081e-4
-1.365, 1.081e-4
-1.366, 1.081e-4
-1.367, 1.111e-4
-1.368, 1.111e-4
-1.369, 1.081e-4
-1.370, 1.111e-4
-1.371, 1.081e-4
-1.372, 1.111e-4
-1.373, 1.111e-4
-1.374, 1.111e-4
-1.375, 1.142e-4
-1.376, 1.111e-4
-1.377, 1.142e-4
-1.378, 1.142e-4
-1.379, 1.142e-4
-1.380, 1.173e-4
-1.381, 1.173e-4
-1.382, 1.173e-4
-1.383, 1.173e-4
-1.384, 1.173e-4
-1.385, 1.173e-4
-1.386, 1.204e-4
-1.387, 1.204e-4
-1.388, 1.204e-4
-1.389, 1.204e-4
-1.390, 1.204e-4
-1.391, 1.235e-4
-1.392, 1.235e-4
-1.393, 1.266e-4
-1.394, 1.266e-4
-1.395, 1.266e-4
-1.396, 1.266e-4
-1.397, 1.266e-4
-1.398, 1.296e-4
-1.399, 1.296e-4
-1.400, 1.296e-4
-1.401, 1.296e-4
-1.402, 1.327e-4
-1.403, 1.327e-4
-1.404, 1.358e-4
-1.405, 1.358e-4
-1.406, 1.358e-4
-1.407, 1.358e-4
-1.408, 1.389e-4
-1.409, 1.389e-4
-1.410, 1.389e-4
-1.411, 1.389e-4
-1.412, 1.420e-4
-1.413, 1.420e-4
-1.414, 1.420e-4
-1.415, 1.451e-4
-1.416, 1.451e-4
-1.417, 1.451e-4
-1.418, 1.481e-4
-1.419, 1.481e-4
-1.420, 1.512e-4
-1.421, 1.543e-4
-1.422, 1.543e-4
-1.423, 1.543e-4
-1.424, 1.543e-4
-1.425, 1.574e-4
-1.426, 1.574e-4
-1.427, 1.574e-4
-1.428, 1.574e-4
-1.429, 1.605e-4
-1.430, 1.636e-4
-1.431, 1.636e-4
-1.432, 1.666e-4
-1.433, 1.666e-4
-1.434, 1.697e-4
-1.435, 1.697e-4
-1.436, 1.728e-4
-1.437, 1.728e-4
-1.438, 1.759e-4
-1.439, 1.759e-4
-1.440, 1.759e-4
-1.441, 1.790e-4
-1.442, 1.790e-4
-1.443, 1.821e-4
-1.444, 1.851e-4
-1.445, 1.851e-4
-1.446, 1.882e-4
-1.447, 1.882e-4
-1.448, 1.913e-4
-1.449, 1.913e-4
-1.450, 1.944e-4
-1.451, 1.944e-4
-1.452, 1.975e-4
-1.453, 1.975e-4
-1.454, 2.036e-4
-1.455, 2.036e-4
-1.456, 2.036e-4
-1.457, 2.067e-4
-1.458, 2.098e-4
-1.459, 2.098e-4
-1.460, 2.160e-4
-1.461, 2.160e-4
-1.462, 2.191e-4
-1.463, 2.191e-4
-1.464, 2.221e-4
-1.465, 2.221e-4
-1.466, 2.252e-4
-1.467, 2.283e-4
-1.468, 2.283e-4
-1.469, 2.314e-4
-1.470, 2.345e-4
-1.471, 2.376e-4
-1.472, 2.406e-4
-1.473, 2.437e-4
-1.474, 2.468e-4
-1.475, 2.468e-4
-1.476, 2.499e-4
-1.477, 2.530e-4
-1.478, 2.561e-4
-1.479, 2.591e-4
-1.480, 2.591e-4
-1.481, 2.622e-4
-1.482, 2.653e-4
-1.483, 2.684e-4
-1.484, 2.715e-4
-1.485, 2.746e-4
-1.486, 2.776e-4
-1.487, 2.807e-4
-1.488, 2.807e-4
-1.489, 2.869e-4
-1.490, 2.900e-4
-1.491, 2.931e-4
-1.492, 2.931e-4
-1.493, 2.992e-4
-1.494, 2.992e-4
-1.495, 3.054e-4
-1.496, 3.085e-4
-1.497, 3.115e-4
-1.498, 3.146e-4
-1.499, 3.177e-4
-1.500, 3.239e-4
-1.501, 3.239e-4
-1.502, 3.300e-4
-1.503, 3.331e-4
-1.504, 3.362e-4
-1.505, 3.393e-4
-1.506, 3.424e-4
-1.507, 3.455e-4
-1.508, 3.516e-4
-1.509, 3.547e-4
-1.510, 3.578e-4
-1.511, 3.609e-4
-1.512, 3.670e-4
-1.513, 3.732e-4
-1.514, 3.763e-4
-1.515, 3.794e-4
-1.516, 3.825e-4
-1.517, 3.886e-4
-1.518, 3.917e-4
-1.519, 3.948e-4
-1.520, 4.010e-4
-1.521, 4.040e-4
-1.522, 4.102e-4
-1.523, 4.133e-4
-1.524, 4.195e-4
-1.525, 4.225e-4
-1.526, 4.287e-4
-1.527, 4.349e-4
-1.528, 4.380e-4
-1.529, 4.441e-4
-1.530, 4.503e-4
-1.531, 4.534e-4
-1.532, 4.595e-4
-1.533, 4.626e-4
-1.534, 4.688e-4
-1.535, 4.750e-4
-1.536, 4.811e-4
-1.537, 4.873e-4
-1.538, 4.935e-4
-1.539, 4.996e-4
-1.540, 5.058e-4
-1.541, 5.120e-4
-1.542, 5.181e-4
-1.543, 5.243e-4
-1.544, 5.305e-4
-1.545, 5.366e-4
-1.546, 5.428e-4
-1.547, 5.489e-4
-1.548, 5.551e-4
-1.549, 5.613e-4
-1.550, 5.674e-4
-1.551, 5.736e-4
-1.552, 5.829e-4
-1.553, 5.921e-4
-1.554, 5.983e-4
-1.555, 6.044e-4
-1.556, 6.137e-4
-1.557, 6.199e-4
-1.558, 6.291e-4
-1.559, 6.353e-4
-1.560, 6.414e-4
-1.561, 6.507e-4
-1.562, 6.599e-4
-1.563, 6.661e-4
-1.564, 6.754e-4
-1.565, 6.846e-4
-1.566, 6.939e-4
-1.567, 7.031e-4
-1.568, 7.124e-4
-1.569, 7.216e-4
-1.570, 7.309e-4
-1.571, 7.401e-4
-1.572, 7.494e-4
-1.573, 7.586e-4
-1.574, 7.679e-4
-1.575, 7.771e-4
-1.576, 7.863e-4
-1.577, 7.987e-4
-1.578, 8.079e-4
-1.579, 8.203e-4
-1.580, 8.326e-4
-1.581, 8.449e-4
-1.582, 8.573e-4
-1.583, 8.665e-4
-1.584, 8.788e-4
-1.585, 8.912e-4
-1.586, 9.035e-4
-1.587, 9.128e-4
-1.588, 9.251e-4
-1.589, 9.374e-4
-1.590, 9.498e-4
-1.591, 9.652e-4
-1.592, 9.775e-4
-1.593, 9.929e-4
-1.594, 1.008e-3
-1.595, 1.021e-3
-1.596, 1.036e-3
-1.597, 1.048e-3
-1.598, 1.064e-3
-1.599, 1.076e-3
-1.600, 1.092e-3
-1.601, 1.110e-3
-1.602, 1.122e-3
-1.603, 1.138e-3
-1.604, 1.156e-3
-1.605, 1.175e-3
-1.606, 1.193e-3
-1.607, 1.209e-3
-1.608, 1.224e-3
-1.609, 1.243e-3
-1.610, 1.261e-3
-1.611, 1.280e-3
-1.612, 1.298e-3
-1.613, 1.317e-3
-1.614, 1.335e-3
-1.615, 1.357e-3
-1.616, 1.375e-3
-1.617, 1.397e-3
-1.618, 1.418e-3
-1.619, 1.440e-3
-1.620, 1.465e-3
-1.621, 1.486e-3
-1.622, 1.508e-3
-1.623, 1.532e-3
-1.624, 1.554e-3
-1.625, 1.579e-3
-1.626, 1.600e-3
-1.627, 1.628e-3
-1.628, 1.653e-3
-1.629, 1.677e-3
-1.630, 1.702e-3
-1.631, 1.730e-3
-1.632, 1.758e-3
-1.633, 1.785e-3
-1.634, 1.816e-3
-1.635, 1.844e-3
-1.636, 1.875e-3
-1.637, 1.902e-3
-1.638, 1.933e-3
-1.639, 1.964e-3
-1.640, 1.995e-3
-1.641, 2.026e-3
-1.642, 2.060e-3
-1.643, 2.094e-3
-1.644, 2.128e-3
-1.645, 2.161e-3
-1.646, 2.198e-3
-1.647, 2.235e-3
-1.648, 2.272e-3
-1.649, 2.309e-3
-1.650, 2.349e-3
-1.651, 2.386e-3
-1.652, 2.427e-3
-1.653, 2.467e-3
-1.654, 2.507e-3
-1.655, 2.547e-3
-1.656, 2.590e-3
-1.657, 2.633e-3
-1.658, 2.676e-3
-1.659, 2.723e-3
-1.660, 2.769e-3
-1.661, 2.818e-3
-1.662, 2.864e-3
-1.663, 2.914e-3
-1.664, 2.963e-3
-1.665, 3.012e-3
-1.666, 3.065e-3
-1.667, 3.114e-3
-1.668, 3.167e-3
-1.669, 3.222e-3
-1.670, 3.278e-3
-1.671, 3.333e-3
-1.672, 3.392e-3
-1.673, 3.450e-3
-1.674, 3.509e-3
-1.675, 3.570e-3
-1.676, 3.632e-3
-1.677, 3.694e-3
-1.678, 3.758e-3
-1.679, 3.820e-3
-1.680, 3.885e-3
-1.681, 3.950e-3
-1.682, 4.021e-3
-1.683, 4.085e-3
-1.684, 4.156e-3
-1.685, 4.227e-3
-1.686, 4.298e-3
-1.687, 4.369e-3
-1.688, 4.446e-3
-1.689, 4.520e-3
-1.690, 4.597e-3
-1.691, 4.674e-3
-1.692, 4.754e-3
-1.693, 4.831e-3
-1.694, 4.912e-3
-1.695, 4.992e-3
-1.696, 5.072e-3
-1.697, 5.155e-3
-1.698, 5.235e-3
-1.699, 5.322e-3
-1.700, 5.408e-3
-1.701, 5.494e-3
-1.702, 5.584e-3
-1.703, 5.673e-3
-1.704, 5.762e-3
-1.705, 5.852e-3
-1.706, 5.941e-3
-1.707, 6.031e-3
-1.708, 6.120e-3
-1.709, 6.213e-3
-1.710, 6.305e-3
-1.711, 6.401e-3
-1.712, 6.493e-3
-1.713, 6.592e-3
-1.714, 6.687e-3
-1.715, 6.783e-3
-1.716, 6.882e-3
-1.717, 6.977e-3
-1.718, 7.073e-3
-1.719, 7.171e-3
-1.720, 7.267e-3
-1.721, 7.363e-3
-1.722, 7.458e-3
-1.723, 7.557e-3
-1.724, 7.656e-3
-1.725, 7.754e-3
-1.726, 7.853e-3
-1.727, 7.955e-3
-1.728, 8.056e-3
-1.729, 8.155e-3
-1.730, 8.254e-3
-1.731, 8.352e-3
-1.732, 8.451e-3
-1.733, 8.550e-3
-1.734, 8.648e-3
-1.735, 8.747e-3
-1.736, 8.843e-3
-1.737, 8.941e-3
-1.738, 9.040e-3
-1.739, 9.135e-3
-1.740, 9.234e-3
-1.741, 9.333e-3
-1.742, 9.431e-3
-1.743, 9.533e-3
-1.744, 9.629e-3
-1.745, 9.724e-3
-1.746, 9.823e-3
-1.747, 9.919e-3
-1.748, 1.001e-2
-1.749, 1.011e-2
-1.750, 1.021e-2
-1.751, 1.031e-2
-1.752, 1.041e-2
-1.753, 1.051e-2
-1.754, 1.061e-2
-1.755, 1.072e-2
-1.756, 1.082e-2
-1.757, 1.092e-2
-1.758, 1.102e-2
-1.759, 1.112e-2
-1.760, 1.122e-2
-1.761, 1.132e-2
-1.762, 1.142e-2
-1.763, 1.152e-2
-1.764, 1.162e-2
-1.765, 1.173e-2
-1.766, 1.183e-2
-1.767, 1.194e-2
-1.768, 1.204e-2
-1.769, 1.214e-2
-1.770, 1.225e-2
-1.771, 1.235e-2
-1.772, 1.246e-2
-1.773, 1.256e-2
-1.774, 1.267e-2
-1.775, 1.277e-2
-1.776, 1.288e-2
-1.777, 1.299e-2
-1.778, 1.310e-2
-1.779, 1.321e-2
-1.780, 1.332e-2
-1.781, 1.343e-2
-1.782, 1.354e-2
-1.783, 1.365e-2
-1.784, 1.375e-2
-1.785, 1.385e-2
-1.786, 1.396e-2
-1.787, 1.406e-2
-1.788, 1.417e-2
-1.789, 1.428e-2
-1.790, 1.440e-2
-1.791, 1.451e-2
-1.792, 1.464e-2
-1.793, 1.475e-2
-1.794, 1.487e-2
-1.795, 1.499e-2
-1.796, 1.511e-2
-1.797, 1.522e-2
-1.798, 1.534e-2
-1.799, 1.545e-2
-1.800, 1.546e-2
-1.799, 1.534e-2
-1.798, 1.522e-2
-1.797, 1.511e-2
-1.796, 1.500e-2
-1.795, 1.489e-2
-1.794, 1.478e-2
-1.793, 1.467e-2
-1.792, 1.456e-2
-1.791, 1.445e-2
-1.790, 1.434e-2
-1.789, 1.423e-2
-1.788, 1.412e-2
-1.787, 1.401e-2
-1.786, 1.390e-2
-1.785, 1.379e-2
-1.784, 1.368e-2
-1.783, 1.357e-2
-1.782, 1.346e-2
-1.781, 1.336e-2
-1.780, 1.325e-2
-1.779, 1.315e-2
-1.778, 1.304e-2
-1.777, 1.294e-2
-1.776, 1.283e-2
-1.775, 1.272e-2
-1.774, 1.262e-2
-1.773, 1.251e-2
-1.772, 1.240e-2
-1.771, 1.230e-2
-1.770, 1.219e-2
-1.769, 1.209e-2
-1.768, 1.198e-2
-1.767, 1.188e-2
-1.766, 1.178e-2
-1.765, 1.168e-2
-1.764, 1.158e-2
-1.763, 1.148e-2
-1.762, 1.137e-2
-1.761, 1.127e-2
-1.760, 1.117e-2
-1.759, 1.106e-2
-1.758, 1.096e-2
-1.757, 1.086e-2
-1.756, 1.075e-2
-1.755, 1.066e-2
-1.754, 1.056e-2
-1.753, 1.046e-2
-1.752, 1.037e-2
-1.751, 1.027e-2
-1.750, 1.018e-2
-1.749, 1.008e-2
-1.748, 9.986e-3
-1.747, 9.891e-3
-1.746, 9.795e-3
-1.745, 9.697e-3
-1.744, 9.604e-3
-1.743, 9.508e-3
-1.742, 9.413e-3
-1.741, 9.327e-3
-1.740, 9.234e-3
-1.739, 9.145e-3
-1.738, 9.058e-3
-1.737, 8.966e-3
-1.736, 8.880e-3
-1.735, 8.790e-3
-1.734, 8.701e-3
-1.733, 8.611e-3
-1.732, 8.519e-3
-1.731, 8.432e-3
-1.730, 8.343e-3
-1.729, 8.257e-3
-1.728, 8.173e-3
-1.727, 8.087e-3
-1.726, 8.004e-3
-1.725, 7.921e-3
-1.724, 7.834e-3
-1.723, 7.751e-3
-1.722, 7.668e-3
-1.721, 7.582e-3
-1.720, 7.498e-3
-1.719, 7.415e-3
-1.718, 7.332e-3
-1.717, 7.249e-3
-1.716, 7.168e-3
-1.715, 7.088e-3
-1.714, 7.008e-3
-1.713, 6.928e-3
-1.712, 6.851e-3
-1.711, 6.774e-3
-1.710, 6.694e-3
-1.709, 6.617e-3
-1.708, 6.536e-3
-1.707, 6.459e-3
-1.706, 6.382e-3
-1.705, 6.302e-3
-1.704, 6.228e-3
-1.703, 6.154e-3
-1.702, 6.080e-3
-1.701, 6.006e-3
-1.700, 5.935e-3
-1.699, 5.864e-3
-1.698, 5.793e-3
-1.697, 5.722e-3
-1.696, 5.648e-3
-1.695, 5.578e-3
-1.694, 5.504e-3
-1.693, 5.433e-3
-1.692, 5.359e-3
-1.691, 5.291e-3
-1.690, 5.220e-3
-1.689, 5.152e-3
-1.688, 5.087e-3
-1.687, 5.019e-3
-1.686, 4.955e-3
-1.685, 4.893e-3
-1.684, 4.825e-3
-1.683, 4.764e-3
-1.682, 4.696e-3
-1.681, 4.631e-3
-1.680, 4.563e-3
-1.679, 4.498e-3
-1.678, 4.434e-3
-1.677, 4.375e-3
-1.676, 4.313e-3
-1.675, 4.255e-3
-1.674, 4.193e-3
-1.673, 4.135e-3
-1.672, 4.076e-3
-1.671, 4.017e-3
-1.670, 3.959e-3
-1.669, 3.903e-3
-1.668, 3.842e-3
-1.667, 3.783e-3
-1.666, 3.728e-3
-1.665, 3.669e-3
-1.664, 3.614e-3
-1.663, 3.558e-3
-1.662, 3.503e-3
-1.661, 3.450e-3
-1.660, 3.398e-3
-1.659, 3.345e-3
-1.658, 3.293e-3
-1.657, 3.241e-3
-1.656, 3.188e-3
-1.655, 3.133e-3
-1.654, 3.083e-3
-1.653, 3.031e-3
-1.652, 2.978e-3
-1.651, 2.929e-3
-1.650, 2.880e-3
-1.649, 2.830e-3
-1.648, 2.784e-3
-1.647, 2.738e-3
-1.646, 2.692e-3
-1.645, 2.645e-3
-1.644, 2.599e-3
-1.643, 2.553e-3
-1.642, 2.507e-3
-1.641, 2.460e-3
-1.640, 2.417e-3
-1.639, 2.368e-3
-1.638, 2.325e-3
-1.637, 2.282e-3
-1.636, 2.238e-3
-1.635, 2.198e-3
-1.634, 2.158e-3
-1.633, 2.118e-3
-1.632, 2.081e-3
-1.631, 2.038e-3
-1.630, 2.001e-3
-1.629, 1.964e-3
-1.628, 1.924e-3
-1.627, 1.884e-3
-1.626, 1.847e-3
-1.625, 1.810e-3
-1.624, 1.773e-3
-1.623, 1.736e-3
-1.622, 1.702e-3
-1.621, 1.668e-3
-1.620, 1.631e-3
-1.619, 1.600e-3
-1.618, 1.566e-3
-1.617, 1.532e-3
-1.616, 1.502e-3
-1.615, 1.468e-3
-1.614, 1.437e-3
-1.613, 1.406e-3
-1.612, 1.372e-3
-1.611, 1.344e-3
-1.610, 1.314e-3
-1.609, 1.286e-3
-1.608, 1.258e-3
-1.607, 1.230e-3
-1.606, 1.206e-3
-1.605, 1.178e-3
-1.604, 1.150e-3
-1.603, 1.125e-3
-1.602, 1.098e-3
-1.601, 1.070e-3
-1.600, 1.045e-3
-1.599, 1.021e-3
-1.598, 9.960e-4
-1.597, 9.744e-4
-1.596, 9.498e-4
-1.595, 9.251e-4
-1.594, 9.035e-4
-1.593, 8.850e-4
-1.592, 8.634e-4
-1.591, 8.418e-4
-1.590, 8.203e-4
-1.589, 7.987e-4
-1.588, 7.771e-4
-1.587, 7.555e-4
-1.586, 7.370e-4
-1.585, 7.185e-4
-1.584, 7.000e-4
-1.583, 6.815e-4
-1.582, 6.630e-4
-1.581, 6.445e-4
-1.580, 6.291e-4
-1.579, 6.137e-4
-1.578, 5.983e-4
-1.577, 5.798e-4
-1.576, 5.674e-4
-1.575, 5.489e-4
-1.574, 5.335e-4
-1.573, 5.181e-4
-1.572, 5.027e-4
-1.571, 4.873e-4
-1.570, 4.750e-4
-1.569, 4.626e-4
-1.568, 4.503e-4
-1.567, 4.380e-4
-1.566, 4.225e-4
-1.565, 4.133e-4
-1.564, 3.979e-4
-1.563, 3.886e-4
-1.562, 3.763e-4
-1.561, 3.609e-4
-1.560, 3.516e-4
-1.559, 3.393e-4
-1.558, 3.270e-4
-1.557, 3.177e-4
-1.556, 3.085e-4
-1.555, 2.961e-4
-1.554, 2.900e-4
-1.553, 2.776e-4
-1.552, 2.715e-4
-1.551, 2.622e-4
-1.550, 2.530e-4
-1.549, 2.437e-4
-1.548, 2.314e-4
-1.547, 2.221e-4
-1.546, 2.160e-4
-1.545, 2.067e-4
-1.544, 2.006e-4
-1.543, 1.913e-4
-1.542, 1.851e-4
-1.541, 1.790e-4
-1.540, 1.728e-4
-1.539, 1.666e-4
-1.538, 1.574e-4
-1.537, 1.512e-4
-1.536, 1.451e-4
-1.535, 1.389e-4
-1.534, 1.327e-4
-1.533, 1.266e-4
-1.532, 1.173e-4
-1.531, 1.111e-4
-1.530, 1.050e-4
-1.529, 1.019e-4
-1.528, 9.573e-5
-1.527, 9.265e-5
-1.526, 8.648e-5
-1.525, 8.032e-5
-1.524, 7.723e-5
-1.523, 7.107e-5
-1.522, 6.798e-5
-1.521, 6.182e-5
-1.520, 5.565e-5
-1.519, 4.949e-5
-1.518, 4.640e-5
-1.517, 4.332e-5
-1.516, 3.715e-5
-1.515, 3.407e-5
-1.514, 3.099e-5
-1.513, 2.482e-5
-1.512, 2.174e-5
-1.511, 1.865e-5
-1.510, 1.557e-5
-1.509, 9.405e-6
-1.508, 6.322e-6
-1.507, 3.239e-6
-1.506, 1.559e-7
-1.505, -2.927e-6
-1.504, -6.010e-6
-1.503, -9.093e-6
-1.502, -1.218e-5
-1.501, -1.526e-5
-1.500, -1.834e-5
-1.499, -2.143e-5
-1.498, -2.143e-5
-1.497, -2.759e-5
-1.496, -2.759e-5
-1.495, -3.068e-5
-1.494, -3.376e-5
-1.493, -3.684e-5
-1.492, -3.992e-5
-1.491, -4.301e-5
-1.490, -4.609e-5
-1.489, -4.917e-5
-1.488, -4.917e-5
-1.487, -4.917e-5
-1.486, -5.226e-5
-1.485, -5.842e-5
-1.484, -5.842e-5
-1.483, -5.842e-5
-1.482, -6.151e-5
-1.481, -6.459e-5
-1.480, -6.459e-5
-1.479, -7.076e-5
-1.478, -7.076e-5
-1.477, -7.076e-5
-1.476, -7.384e-5
-1.475, -7.384e-5
-1.474, -7.692e-5
-1.473, -7.692e-5
-1.472, -8.000e-5
-1.471, -8.309e-5
-1.470, -8.309e-5
-1.469, -8.617e-5
-1.468, -8.617e-5
-1.467, -8.925e-5
-1.466, -8.925e-5
-1.465, -9.234e-5
-1.464, -9.234e-5
-1.463, -9.234e-5
-1.462, -9.542e-5
-1.461, -9.542e-5
-1.460, -9.850e-5
-1.459, -9.542e-5
-1.458, -9.850e-5
-1.457, -1.016e-4
-1.456, -1.016e-4
-1.455, -1.047e-4
-1.454, -1.047e-4
-1.453, -1.047e-4
-1.452, -1.078e-4
-1.451, -1.078e-4
-1.450, -1.078e-4
-1.449, -1.108e-4
-1.448, -1.108e-4
-1.447, -1.108e-4
-1.446, -1.108e-4
-1.445, -1.139e-4
-1.444, -1.139e-4
-1.443, -1.170e-4
-1.442, -1.170e-4
-1.441, -1.170e-4
-1.440, -1.170e-4
-1.439, -1.201e-4
-1.438, -1.201e-4
-1.437, -1.201e-4
-1.436, -1.201e-4
-1.435, -1.201e-4
-1.434, -1.232e-4
-1.433, -1.232e-4
-1.432, -1.232e-4
-1.431, -1.232e-4
-1.430, -1.232e-4
-1.429, -1.263e-4
-1.428, -1.263e-4
-1.427, -1.263e-4
-1.426, -1.263e-4
-1.425, -1.293e-4
-1.424, -1.293e-4
-1.423, -1.293e-4
-1.422, -1.293e-4
-1.421, -1.293e-4
-1.420, -1.293e-4
-1.419, -1.293e-4
-1.418, -1.293e-4
-1.417, -1.324e-4
-1.416, -1.324e-4
-1.415, -1.324e-4
-1.414, -1.324e-4
-1.413, -1.324e-4
-1.412, -1.355e-4
-1.411, -1.355e-4
-1.410, -1.355e-4
-1.409, -1.355e-4
-1.408, -1.355e-4
-1.407, -1.355e-4
-1.406, -1.355e-4
-1.405, -1.355e-4
-1.404, -1.355e-4
-1.403, -1.355e-4
-1.402, -1.355e-4
-1.401, -1.386e-4
-1.400, -1.386e-4
-1.399, -1.386e-4
-1.398, -1.386e-4
-1.397, -1.386e-4
-1.396, -1.386e-4
-1.395, -1.386e-4
-1.394, -1.386e-4
-1.393, -1.386e-4
-1.392, -1.386e-4
-1.391, -1.386e-4
-1.390, -1.386e-4
-1.389, -1.386e-4
-1.388, -1.386e-4
-1.387, -1.386e-4
-1.386, -1.386e-4
-1.385, -1.417e-4
-1.384, -1.417e-4
-1.383, -1.417e-4
-1.382, -1.417e-4
-1.381, -1.386e-4
-1.380, -1.386e-4
-1.379, -1.386e-4
-1.378, -1.417e-4
-1.377, -1.386e-4
-1.376, -1.417e-4
-1.375, -1.417e-4
-1.374, -1.417e-4
-1.373, -1.417e-4
-1.372, -1.417e-4
-1.371, -1.417e-4
-1.370, -1.417e-4
-1.369, -1.417e-4
-1.368, -1.417e-4
-1.367, -1.417e-4
-1.366, -1.386e-4
-1.365, -1.417e-4
-1.364, -1.386e-4
-1.363, -1.417e-4
-1.362, -1.417e-4
-1.361, -1.417e-4
-1.360, -1.417e-4
-1.359, -1.417e-4
-1.358, -1.417e-4
-1.357, -1.417e-4
-1.356, -1.417e-4
-1.355, -1.417e-4
-1.354, -1.417e-4
-1.353, -1.417e-4
-1.352, -1.386e-4
-1.351, -1.386e-4
-1.350, -1.386e-4
-1.349, -1.417e-4
-1.348, -1.417e-4
-1.347, -1.417e-4
-1.346, -1.417e-4
-1.345, -1.417e-4
-1.344, -1.417e-4
-1.343, -1.417e-4
-1.342, -1.417e-4
-1.341, -1.386e-4
-1.340, -1.386e-4
-1.339, -1.386e-4
-1.338, -1.386e-4
-1.337, -1.417e-4
-1.336, -1.386e-4
-1.335, -1.417e-4
-1.334, -1.386e-4
-1.333, -1.417e-4
-1.332, -1.417e-4
-1.331, -1.386e-4
-1.330, -1.386e-4
-1.329, -1.386e-4
-1.328, -1.386e-4
-1.327, -1.386e-4
-1.326, -1.386e-4
-1.325, -1.386e-4
-1.324, -1.386e-4
-1.323, -1.386e-4
-1.322, -1.386e-4
-1.321, -1.386e-4
-1.320, -1.386e-4
-1.319, -1.417e-4
-1.318, -1.386e-4
-1.317, -1.386e-4
-1.316, -1.386e-4
-1.315, -1.386e-4
-1.314, -1.386e-4
-1.313, -1.386e-4
-1.312, -1.386e-4
-1.311, -1.386e-4
-1.310, -1.386e-4
-1.309, -1.386e-4
-1.308, -1.386e-4
-1.307, -1.386e-4
-1.306, -1.386e-4
-1.305, -1.386e-4
-1.304, -1.386e-4
-1.303, -1.386e-4
-1.302, -1.386e-4
-1.301, -1.355e-4
-1.300, -1.355e-4
-1.299, -1.355e-4
-1.298, -1.386e-4
-1.297, -1.386e-4
-1.296, -1.355e-4
-1.295, -1.386e-4
-1.294, -1.355e-4
-1.293, -1.386e-4
-1.292, -1.386e-4
-1.291, -1.355e-4
-1.290, -1.386e-4
-1.289, -1.386e-4
-1.288, -1.386e-4
-1.287, -1.355e-4
-1.286, -1.355e-4
-1.285, -1.355e-4
-1.284, -1.355e-4
-1.283, -1.386e-4
-1.282, -1.355e-4
-1.281, -1.355e-4
-1.280, -1.355e-4
-1.279, -1.355e-4
-1.278, -1.386e-4
-1.277, -1.355e-4
-1.276, -1.355e-4
-1.275, -1.355e-4
-1.274, -1.355e-4
-1.273, -1.355e-4
-1.272, -1.355e-4
-1.271, -1.355e-4
-1.270, -1.355e-4
-1.269, -1.355e-4
-1.268, -1.355e-4
-1.267, -1.355e-4
-1.266, -1.355e-4
-1.265, -1.355e-4
-1.264, -1.355e-4
-1.263, -1.355e-4
-1.262, -1.324e-4
-1.261, -1.355e-4
-1.260, -1.355e-4
-1.259, -1.355e-4
-1.258, -1.355e-4
-1.257, -1.355e-4
-1.256, -1.324e-4
-1.255, -1.355e-4
-1.254, -1.355e-4
-1.253, -1.355e-4
-1.252, -1.355e-4
-1.251, -1.355e-4
-1.250, -1.355e-4
-1.249, -1.355e-4
-1.248, -1.324e-4
-1.247, -1.324e-4
-1.246, -1.324e-4
-1.245, -1.355e-4
-1.244, -1.324e-4
-1.243, -1.355e-4
-1.242, -1.324e-4
-1.241, -1.355e-4
-1.240, -1.355e-4
-1.239, -1.355e-4
-1.238, -1.355e-4
-1.237, -1.324e-4
-1.236, -1.324e-4
-1.235, -1.324e-4
-1.234, -1.324e-4
-1.233, -1.324e-4
-1.232, -1.324e-4
-1.231, -1.324e-4
-1.230, -1.324e-4
-1.229, -1.355e-4
-1.228, -1.355e-4
-1.227, -1.324e-4
-1.226, -1.324e-4
-1.225, -1.355e-4
-1.224, -1.324e-4
-1.223, -1.355e-4
-1.222, -1.324e-4
-1.221, -1.324e-4
-1.220, -1.324e-4
-1.219, -1.324e-4
-1.218, -1.324e-4
-1.217, -1.324e-4
-1.216, -1.324e-4
-1.215, -1.355e-4
-1.214, -1.324e-4
-1.213, -1.324e-4
-1.212, -1.355e-4
-1.211, -1.324e-4
-1.210, -1.324e-4
-1.209, -1.324e-4
-1.208, -1.324e-4
-1.207, -1.324e-4
-1.206, -1.324e-4
-1.205, -1.324e-4
-1.204, -1.324e-4
-1.203, -1.324e-4
-1.202, -1.355e-4
-1.201, -1.324e-4
-1.200, -1.324e-4
-1.199, -1.324e-4
-1.198, -1.324e-4
-1.197, -1.324e-4
-1.196, -1.324e-4
-1.195, -1.324e-4
-1.194, -1.324e-4
-1.193, -1.324e-4
-1.192, -1.324e-4
-1.191, -1.324e-4
-1.190, -1.324e-4
-1.189, -1.324e-4
-1.188, -1.324e-4
-1.187, -1.355e-4
-1.186, -1.324e-4
-1.185, -1.324e-4
-1.184, -1.324e-4
-1.183, -1.324e-4
-1.182, -1.324e-4
-1.181, -1.324e-4
-1.180, -1.324e-4
-1.179, -1.324e-4
-1.178, -1.324e-4
-1.177, -1.324e-4
-1.176, -1.324e-4
-1.175, -1.324e-4
-1.174, -1.355e-4
-1.173, -1.324e-4
-1.172, -1.355e-4
-1.171, -1.355e-4
-1.170, -1.324e-4
-1.169, -1.324e-4
-1.168, -1.324e-4
-1.167, -1.324e-4
-1.166, -1.324e-4
-1.165, -1.324e-4
-1.164, -1.324e-4
-1.163, -1.324e-4
-1.162, -1.324e-4
-1.161, -1.324e-4
-1.160, -1.324e-4
-1.159, -1.324e-4
-1.158, -1.324e-4
-1.157, -1.324e-4
-1.156, -1.324e-4
-1.155, -1.324e-4
-1.154, -1.324e-4
-1.153, -1.324e-4
-1.152, -1.293e-4
-1.151, -1.324e-4
-1.150, -1.324e-4
-1.149, -1.324e-4
-1.148, -1.324e-4
-1.147, -1.324e-4
-1.146, -1.324e-4
-1.145, -1.324e-4
-1.144, -1.324e-4
-1.143, -1.324e-4
-1.142, -1.324e-4
-1.141, -1.324e-4
-1.140, -1.324e-4
-1.139, -1.324e-4
-1.138, -1.324e-4
-1.137, -1.324e-4
-1.136, -1.324e-4
-1.135, -1.324e-4
-1.134, -1.355e-4
-1.133, -1.324e-4
-1.132, -1.355e-4
-1.131, -1.324e-4
-1.130, -1.355e-4
-1.129, -1.324e-4
-1.128, -1.324e-4
-1.127, -1.324e-4
-1.126, -1.324e-4
-1.125, -1.324e-4
-1.124, -1.324e-4
-1.123, -1.324e-4
-1.122, -1.324e-4
-1.121, -1.355e-4
-1.120, -1.355e-4
-1.119, -1.355e-4
-1.118, -1.355e-4
-1.117, -1.355e-4
-1.116, -1.355e-4
-1.115, -1.324e-4
-1.114, -1.324e-4
-1.113, -1.324e-4
-1.112, -1.324e-4
-1.111, -1.355e-4
-1.110, -1.355e-4
-1.109, -1.355e-4
-1.108, -1.355e-4
-1.107, -1.355e-4
-1.106, -1.355e-4
-1.105, -1.355e-4
-1.104, -1.355e-4
-1.103, -1.355e-4
-1.102, -1.355e-4
-1.101, -1.355e-4
-1.100, -1.355e-4
-1.099, -1.355e-4
-1.098, -1.355e-4
-1.097, -1.355e-4
-1.096, -1.355e-4
-1.095, -1.386e-4
-1.094, -1.386e-4
-1.093, -1.386e-4
-1.092, -1.386e-4
-1.091, -1.386e-4
-1.090, -1.386e-4
-1.089, -1.386e-4
-1.088, -1.386e-4
-1.087, -1.386e-4
-1.086, -1.386e-4
-1.085, -1.386e-4
-1.084, -1.386e-4
-1.083, -1.386e-4
-1.082, -1.386e-4
-1.081, -1.417e-4
-1.080, -1.417e-4
-1.079, -1.417e-4
-1.078, -1.417e-4
-1.077, -1.417e-4
-1.076, -1.417e-4
-1.075, -1.417e-4
-1.074, -1.417e-4
-1.073, -1.417e-4
-1.072, -1.417e-4
-1.071, -1.417e-4
-1.070, -1.417e-4
-1.069, -1.417e-4
-1.068, -1.417e-4
-1.067, -1.448e-4
-1.066, -1.448e-4
-1.065, -1.448e-4
-1.064, -1.448e-4
-1.063, -1.448e-4
-1.062, -1.478e-4
-1.061, -1.448e-4
-1.060, -1.448e-4
-1.059, -1.448e-4
-1.058, -1.448e-4
-1.057, -1.478e-4
-1.056, -1.478e-4
-1.055, -1.478e-4
-1.054, -1.478e-4
-1.053, -1.478e-4
-1.052, -1.509e-4
-1.051, -1.478e-4
-1.050, -1.478e-4
-1.049, -1.478e-4
-1.048, -1.478e-4
-1.047, -1.478e-4
-1.046, -1.478e-4
-1.045, -1.478e-4
-1.044, -1.509e-4
-1.043, -1.509e-4
-1.042, -1.509e-4
-1.041, -1.509e-4
-1.040, -1.509e-4
-1.039, -1.540e-4
-1.038, -1.540e-4
-1.037, -1.540e-4
-1.036, -1.540e-4
-1.035, -1.540e-4
-1.034, -1.540e-4
-1.033, -1.540e-4
-1.032, -1.540e-4
-1.031, -1.540e-4
-1.030, -1.571e-4
-1.029, -1.571e-4
-1.028, -1.571e-4
-1.027, -1.571e-4
-1.026, -1.571e-4
-1.025, -1.602e-4
-1.024, -1.602e-4
-1.023, -1.602e-4
-1.022, -1.602e-4
-1.021, -1.602e-4
-1.020, -1.602e-4
-1.019, -1.571e-4
-1.018, -1.602e-4
-1.017, -1.602e-4
-1.016, -1.602e-4
-1.015, -1.632e-4
-1.014, -1.632e-4
-1.013, -1.632e-4
-1.012, -1.632e-4
-1.011, -1.632e-4
-1.010, -1.663e-4
-1.009, -1.663e-4
-1.008, -1.632e-4
-1.007, -1.663e-4
-1.006, -1.663e-4
-1.005, -1.663e-4
-1.004, -1.694e-4
-1.003, -1.663e-4
-1.002, -1.663e-4
-1.001, -1.694e-4
