Potential V vs RHE, Current mA cm-2
0.013299999999999867,0.003238274165391069
0.012299999999999978,-0.07018382758630445
0.011299999999999866,-0.10256656924021516
0.010299999999999976,-0.12070316810448493
0.009299999999999864,-0.1353595771710867
0.008299999999999974,-0.14712997518596382
0.007299999999999862,-0.1617015015745737
0.006299999999999972,-0.1769803836131161
0.00529999999999986,-0.1847612957623738
0.0042999999999999705,-0.192966621301591
0.0032999999999998586,-0.1973522263311726
0.0022999999999999687,-0.2066893209102819
0.0012999999999998568,-0.21913878034909418
0.00029999999999996696,-0.2267782213683654
-0.000700000000000145,-0.22805146153824393
-0.0017000000000000348,-0.23300295108777153
-0.0027000000000001467,-0.2397935653271237
-0.0037000000000000366,-0.24870624651627343
-0.0047000000000001485,-0.25422362058574705
-0.005700000000000038,-0.2540821494557606
-0.00670000000000015,-0.25535538962563914
-0.00770000000000004,-0.2621460038649913
-0.008700000000000152,-0.2700683871442355
-0.009700000000000042,-0.2741710499138441
-0.010700000000000154,-0.2771419436435607
-0.011700000000000044,-0.2777078281635067
-0.012700000000000156,-0.28280078884302084
-0.013700000000000045,-0.2891669896924135
-0.014700000000000157,-0.2927037679420761
-0.015700000000000047,-0.29072317212226506
-0.01670000000000016,-0.2915719989021841
-0.01770000000000005,-0.2969479018416712
-0.01870000000000016,-0.3021823336511718
-0.01970000000000005,-0.3041629294709829
-0.020700000000000163,-0.3051532273808884
-0.021700000000000053,-0.3027482181711178
-0.022700000000000164,-0.308407063370578
-0.023700000000000054,-0.31406590857003813
-0.024700000000000166,-0.31548061986990317
-0.025700000000000056,-0.31519767760993017
-0.026700000000000168,-0.3139244374400516
-0.027700000000000058,-0.31548061986990317
-0.02870000000000017,-0.3211394650693633
-0.02970000000000006,-0.32255417636922834
-0.03070000000000017,-0.3218468207192958
-0.03170000000000006,-0.3208565228093903
-0.03270000000000017,-0.32354447427913385
-0.03370000000000006,-0.32849596382866153
-0.034700000000000175,-0.328354492698675
-0.035700000000000065,-0.3260909546188909
-0.03670000000000018,-0.3251006567089854
-0.03770000000000007,-0.326656839138837
-0.03870000000000018,-0.33245715546828364
-0.03970000000000007,-0.3313253864283916
-0.04070000000000018,-0.3296277328685535
-0.04170000000000007,-0.3279300793087155
-0.04270000000000018,-0.3300521462585131
-0.04370000000000007,-0.3341548090281217
-0.044700000000000184,-0.33641834710790575
-0.045700000000000074,-0.3300521462585131
-0.046700000000000186,-0.33174979981835107
-0.047700000000000076,-0.33047655964847256
-0.04870000000000019,-0.3347206935480677
-0.04970000000000008,-0.33670128936787874
-0.05070000000000019,-0.3311839152984051
-0.05170000000000008,-0.32764713704874243
-0.05270000000000019,-0.3316083286883646
-0.05370000000000008,-0.3335889245081756
-0.05470000000000019,-0.3350036358080407
-0.05570000000000008,-0.33174979981835107
-0.056700000000000195,-0.3279300793087155
-0.057700000000000085,-0.328920377218621
-0.058700000000000196,-0.33288156885824316
-0.059700000000000086,-0.3333059822482026
-0.0607000000000002,-0.3290618483486075
-0.06170000000000009,-0.3259494834889044
-0.0627000000000002,-0.3290618483486075
-0.06370000000000009,-0.3309009730384321
-0.0647000000000002,-0.3309009730384321
-0.06570000000000009,-0.328354492698675
-0.0667000000000002,-0.3239688876690934
-0.0677000000000001,-0.3252421278389719
-0.0687000000000002,-0.3303350885184861
-0.0697000000000001,-0.32807155043870195
-0.07070000000000021,-0.3248177144490124
-0.0717000000000001,-0.32128093619934983
-0.07270000000000021,-0.3218468207192958
-0.0737000000000001,-0.3251006567089854
-0.07470000000000021,-0.3243933010590529
-0.0757000000000001,-0.3218468207192958
-0.07670000000000021,-0.3184515135996197
-0.0777000000000001,-0.3204321094194308
-0.07870000000000021,-0.3236859454091204
-0.0797000000000001,-0.32128093619934983
-0.08070000000000022,-0.3171782734297412
-0.0817000000000001,-0.31434885083001113
-0.08270000000000022,-0.31477326421997065
-0.08370000000000011,-0.3171782734297412
-0.08470000000000022,-0.3161879755198357
-0.08570000000000011,-0.3119438416202406
-0.08670000000000022,-0.30982177467044303
-0.08770000000000011,-0.3113779571002946
-0.08870000000000022,-0.3144903219599976
-0.08970000000000011,-0.31350002405009214
-0.09070000000000022,-0.30925589015049704
-0.09170000000000011,-0.3041629294709829
-0.09270000000000023,-0.3055776407708479
-0.09370000000000012,-0.3079826499806185
-0.09470000000000023,-0.308124121110605
-0.09570000000000012,-0.30303116043109085
-0.09670000000000023,-0.3011920357412663
-0.09770000000000012,-0.30204086252118534
-0.09870000000000023,-0.3035970449510369
-0.09970000000000012,-0.30373851608102337
-0.10070000000000023,-0.3004846800913338
-0.10170000000000012,-0.2941184792419411
-0.10270000000000024,-0.2969479018416712
-0.10370000000000013,-0.29793819975157676
-0.10470000000000024,-0.2989284976614822
-0.10570000000000013,-0.29397700811195465
-0.10670000000000024,-0.29001581647233254
-0.10770000000000013,-0.2911475855122245
-0.10870000000000024,-0.2960990750617522
-0.10970000000000013,-0.2914305277721975
-0.11070000000000024,-0.2911475855122245
-0.11170000000000013,-0.28506432692280487
-0.11270000000000002,-0.2871863938726024
-0.11370000000000013,-0.29086464325225153
-0.11470000000000002,-0.289874345342346
-0.11570000000000014,-0.2842155001428859
-0.11670000000000003,-0.2842155001428859
-0.11770000000000014,-0.28379108675292636
-0.11870000000000003,-0.2844984424028589
-0.11970000000000014,-0.28534726918277786
-0.12070000000000003,-0.2809616641531963
-0.12170000000000014,-0.2801128373732773
-0.12270000000000003,-0.27982989511330425
-0.12370000000000014,-0.2812446064131693
-0.12470000000000003,-0.28308373110299384
-0.12570000000000014,-0.2767175302536012
-0.12670000000000003,-0.27487840556377663
-0.12770000000000015,-0.27601017460366867
-0.12870000000000004,-0.27827371268345275
-0.12970000000000015,-0.2781322415534663
-0.13070000000000004,-0.2736051653938981
-0.13170000000000015,-0.27162456957408704
-0.13270000000000004,-0.27445399217381716
-0.13370000000000015,-0.27572723234369567
-0.13470000000000004,-0.27530281895373615
-0.13570000000000015,-0.27148309844410057
-0.13670000000000004,-0.26837073358439745
-0.13770000000000016,-0.27176604070407356
-0.13870000000000005,-0.27219045409403303
-0.13970000000000016,-0.2738881076538711
-0.14070000000000005,-0.27035132940420853
-0.14170000000000016,-0.26738043567449193
-0.14270000000000005,-0.2700683871442355
-0.14370000000000016,-0.2728978097439656
-0.14470000000000005,-0.27148309844410057
-0.14570000000000016,-0.2689366181043435
-0.14670000000000005,-0.2646924842047484
-0.14770000000000016,-0.26752190680447846
-0.14870000000000005,-0.2724733963540061
-0.14970000000000017,-0.2706342716641816
-0.15070000000000006,-0.267946320194438
-0.15170000000000017,-0.2652583687246944
-0.15270000000000006,-0.26851220471438403
-0.15370000000000017,-0.27219045409403303
-0.15470000000000006,-0.27035132940420853
-0.15570000000000017,-0.26907808923433
-0.15670000000000006,-0.2665316088945729
-0.15770000000000017,-0.26837073358439745
-0.15870000000000006,-0.27148309844410057
-0.15970000000000018,-0.27105868505414105
-0.16070000000000007,-0.26766337793446493
-0.16170000000000018,-0.2662486666345999
-0.16270000000000007,-0.267946320194438
-0.16370000000000018,-0.27303928087395213
-0.16470000000000007,-0.2741710499138441
-0.16570000000000018,-0.27105868505414105
-0.16670000000000007,-0.268795146974357
-0.16770000000000018,-0.2724733963540061
-0.16870000000000007,-0.27473693443379016
-0.16970000000000018,-0.2764345879936282
-0.17070000000000007,-0.2728978097439656
-0.17170000000000019,-0.27303928087395213
-0.17270000000000008,-0.27601017460366867
-0.1737000000000002,-0.2762931168636417
-0.17470000000000008,-0.2816690198031288
-0.1757000000000002,-0.2767175302536012
-0.17670000000000008,-0.27459546330380363
-0.1777000000000002,-0.27841518381343927
-0.17870000000000008,-0.28251784658304785
-0.1797000000000002,-0.2820934331930883
-0.18070000000000008,-0.2816690198031288
-0.1817000000000002,-0.27954695285333125
-0.18270000000000008,-0.28294225997300737
-0.1837000000000002,-0.2871863938726024
-0.1847000000000001,-0.2857716825727374
-0.1857000000000002,-0.28605462483271044
-0.1867000000000001,-0.28350814449295336
-0.1877000000000002,-0.287893749522535
-0.1887000000000001,-0.29199641229214357
-0.1897000000000002,-0.29227935455211657
-0.1907000000000001,-0.2934111235920086
-0.1917000000000001,-0.29058170099227854
-0.19269999999999998,-0.29510877715184664
-0.1937000000000001,-0.29977732444140126
-0.19469999999999998,-0.2989284976614822
-0.1957000000000001,-0.2992114399214552
-0.19669999999999999,-0.29850408427152275
-0.1977000000000001,-0.30034320896134725
-0.1987,-0.308124121110605
-0.1997000000000001,-0.3074167654606725
-0.2007,-0.3064264675507669
-0.2017000000000001,-0.3067094098107399
-0.2027,-0.3091144190205105
-0.2037000000000001,-0.31632944664982215
-0.2047,-0.31802710020966024
-0.2057000000000001,-0.31477326421997065
-0.2067,-0.3164709177798087
-0.2077000000000001,-0.31930034037953875
-0.2087,-0.3251006567089854
-0.2097000000000001,-0.32778860817872896
-0.2107,-0.3246762433190259
-0.2117000000000001,-0.326373896878864
-0.2127,-0.3313253864283916
-0.2137000000000001,-0.3351451069380272
-0.2147,-0.3388233563176763
-0.2157000000000001,-0.34023806761754133
-0.2167,-0.3378330584077708
-0.21770000000000012,-0.34434073038714996
-0.2187,-0.34915074880669106
-0.21970000000000012,-0.35014104671659657
-0.2207,-0.35169722914644813
-0.22170000000000012,-0.3502825178465831
-0.2227,-0.35579989191605677
-0.22370000000000012,-0.3608928525955709
-0.2247,-0.36216609276544937
-0.22570000000000012,-0.36329786180534146
-0.2267,-0.36485404423519296
-0.22770000000000012,-0.368249351354869
-0.22870000000000001,-0.37617173463411324
-0.22970000000000013,-0.3784352727138973
-0.23070000000000002,-0.37772791706396475
-0.23170000000000013,-0.37970851288377583
-0.23270000000000002,-0.3855088292132225
-0.23370000000000013,-0.3915920878026421
-0.23470000000000002,-0.3930067991025072
-0.23570000000000013,-0.3945629815323587
-0.23670000000000002,-0.39725093300210224
-0.2376999999999999,-0.39993888447184583
-0.23870000000000002,-0.406729498711198
-0.2396999999999999,-0.40941745018094167
-0.24070000000000003,-0.4104077480908471
-0.24169999999999991,-0.41422746860048276
-0.24270000000000003,-0.4173398334601858
-0.24369999999999992,-0.423564563179592
-0.24470000000000003,-0.4268183991692816
-0.24569999999999992,-0.42780869707918706
-0.24670000000000003,-0.4296478217690116
-0.24769999999999992,-0.4354481380984583
-0.24870000000000003,-0.44096551216793195
-0.24969999999999992,-0.4464828862374056
-0.25070000000000003,-0.44605847284744604
-0.2516999999999999,-0.44775612640728407
-0.25270000000000004,-0.45539556742655535
-0.2536999999999999,-0.4599226435861234
-0.25470000000000004,-0.4657229599155701
-0.2556999999999999,-0.4662888444355161
-0.25670000000000004,-0.4688353247752731
-0.25769999999999993,-0.47421122771476026
-0.25870000000000004,-0.481709197604045
-0.25969999999999993,-0.4853874469836941
-0.26070000000000004,-0.48793392732345114
-0.26169999999999993,-0.48835834071341067
-0.26270000000000004,-0.4964221951226413
-0.26369999999999993,-0.5019395691921149
-0.26470000000000005,-0.505617818571764
-0.26569999999999994,-0.5077398855215616
-0.26670000000000005,-0.5122669616811297
-0.26769999999999994,-0.5172184512306574
-0.26870000000000005,-0.5257067190298478
-0.26969999999999994,-0.5269799591997262
-0.27070000000000005,-0.5296679106694698
-0.27169999999999994,-0.5336291023090919
-0.27270000000000005,-0.539287947508552
-0.27369999999999994,-0.5465029751378637
-0.27470000000000006,-0.5510300512974318
-0.27569999999999995,-0.5535765316371889
-0.27670000000000006,-0.557820665536784
-0.27769999999999995,-0.5620647994363791
-0.27870000000000006,-0.5718263074054479
-0.27969999999999995,-0.5759289701750565
-0.28070000000000006,-0.5776266237348945
-0.28169999999999995,-0.5821536998944625
-0.28270000000000006,-0.5890857852638013
-0.28369999999999995,-0.5960178706331399
-0.28470000000000006,-0.6015352447026135
-0.28569999999999995,-0.6037987827823976
-0.28670000000000007,-0.6079014455520062
-0.28769999999999996,-0.6146920597913584
-0.28870000000000007,-0.6230388564605621
-0.28969999999999996,-0.6295465284399413
-0.29070000000000007,-0.6322344799096848
-0.29169999999999996,-0.6361956715493069
-0.29270000000000007,-0.6441180548285511
-0.29369999999999996,-0.6516160247178359
-0.2947000000000001,-0.6571333987873096
-0.29569999999999996,-0.6606701770369722
-0.2967000000000001,-0.6634995996367021
-0.29769999999999996,-0.6725537519558386
-0.2987000000000001,-0.6817493754049612
-0.29969999999999997,-0.6878326339943809
-0.3007000000000001,-0.6905205854641244
-0.30169999999999997,-0.6970282574435036
-0.3027000000000001,-0.7029700449029368
-0.30369999999999997,-0.7142877353018571
-0.3047000000000001,-0.7179659846815062
-0.30569999999999997,-0.7278689637805613
-0.3067000000000001,-0.7304154441203184
-0.3077,-0.7381963562695761
-0.3087000000000001,-0.7489481621485504
-0.3097,-0.7547484784779971
-0.3107000000000001,-0.7599829102874976
-0.3117,-0.7657832266169443
-0.3127000000000001,-0.7769594458858782
-0.3137,-0.7851647714250953
-0.3147000000000001,-0.7933700969643125
-0.3157,-0.8007265957236107
-0.3167000000000001,-0.8049707296232058
-0.3177,-0.8152981221122206
-0.3187000000000001,-0.828596408330952
-0.3197,-0.8349626091803447
-0.3207000000000001,-0.8421776368096564
-0.3217,-0.850807375738833
-0.3227000000000001,-0.8595785857979963
-0.3237,-0.8742915833165926
-0.3247000000000001,-0.8847604469355939
-0.3257,-0.8905607632650405
-0.3267000000000001,-0.9001808001041228
-0.3277,-0.9116399616330296
-0.3287000000000001,-0.9256456035016934
-0.3297,-0.9362559382506813
-0.3307000000000001,-0.9467248018696826
-0.3317,-0.9554960119288457
-0.3327000000000001,-0.9710578362273611
-0.3337,-0.9867611316558631
-0.3347000000000001,-0.9993520622246619
-0.3357,-1.010669752623582
-0.3367000000000001,-1.023260683192381
-0.3377,-1.0408031033107075
-0.3387000000000001,-1.0574966966491148
-0.3397,-1.0739073477275494
-0.3407000000000001,-1.0901765276759974
-0.3417,-1.104182169544661
-0.3427000000000001,-1.1229978298328662
-0.3437,-1.1477552775805042
-0.3447000000000001,-1.1667124089986958
-0.3457,-1.1876501362366982
-0.3467000000000001,-1.206041383134944
-0.3477,-1.2313647154025278
-0.3487000000000001,-1.2585271723599365
-0.3497,-1.2820113799376962
-0.3507000000000001,-1.3111544327149158
-0.3517,-1.3315262754329726
-0.3527000000000001,-1.3625084529000169
-0.3537,-1.395754168446845
-0.3547000000000001,-1.426028990263957
-0.3557,-1.4557379275611226
-0.35670000000000013,-1.4882762874580184
-0.3577,-1.5250587812545096
-0.35870000000000013,-1.5632559863508655
-0.3597,-1.5986237688474914
-0.36070000000000013,-1.6339915513441174
-0.3617,-1.6736034677403384
-0.3626999999999999,-1.7160448067362895
-0.3637,-1.7613155683319706
-0.3646999999999999,-1.8094157525273817
-0.3657,-1.8518570915233332
-0.3666999999999999,-1.897127853119014
-0.3677,-1.9508868825138854
-0.3686999999999999,-2.0032312006088917
-0.36970000000000003,-2.0569902300037635
-0.3706999999999999,-2.116408104598095
-0.37170000000000003,-2.1729965565926963
-0.3726999999999999,-2.230999719887163
-0.37370000000000003,-2.2875881718817643
-0.3746999999999999,-2.348420757775961
-0.37570000000000003,-2.4191563227692128
-0.3766999999999999,-2.4771594860636794
-0.37770000000000004,-2.545065628457201
-0.3786999999999999,-2.621460038649913
-0.37970000000000004,-2.69926916014249
-0.3806999999999999,-2.7742488590353367
-0.38170000000000004,-2.836496156229398
-0.38269999999999993,-2.9284523907206257
-0.38370000000000004,-3.0076762235130676
-0.38469999999999993,-3.0883147676053753
-0.38570000000000004,-3.1760268681970074
-0.38669999999999993,-3.2665683913883696
-0.38770000000000004,-3.355695203279867
-0.38869999999999993,-3.4462367264712297
-0.38970000000000005,-3.525460559263671
-0.39069999999999994,-3.6287344841538194
-0.39170000000000005,-3.730593697744102
-0.39269999999999994,-3.835282333934114
-0.39370000000000005,-3.9413856814239923
-0.39469999999999994,-4.04748902891387
-0.39570000000000005,-4.147933531204288
-0.39669999999999994,-4.26393985779322
-0.39770000000000005,-4.387019740881478
-0.39869999999999994,-4.505855490070142
-0.39970000000000006,-4.619032394059345
-0.40069999999999995,-4.7463564110471985
-0.40170000000000006,-4.877924561934646
-0.40269999999999995,-5.001004445022905
-0.40370000000000006,-5.126913750710893
-0.40469999999999995,-5.264140746797801
-0.40570000000000006,-5.405611876784305
-0.40669999999999995,-5.534350605072024
-0.40770000000000006,-5.681480580257988
-0.40869999999999995,-5.815878153745166
-0.40970000000000006,-5.967252262830725
-0.41069999999999995,-6.111552815416958
-0.41170000000000007,-6.262926924502518
-0.41269999999999996,-6.418545167487672
-0.41370000000000007,-6.557186874874445
-0.41469999999999996,-6.736855209957304
-0.41570000000000007,-6.858520381745699
-0.41669999999999996,-7.008479779531392
-0.41770000000000007,-7.175415712915465
-0.41869999999999996,-7.345181068899271
-0.4197000000000001,-7.510702290983478
-0.42069999999999996,-7.677638224367555
-0.4217000000000001,-7.88135665154812
-0.42269999999999996,-8.035560183233407
-0.4237000000000001,-8.23786389911411
-0.42469999999999997,-8.427435213296024
-0.4257000000000001,-8.629738929176723
-0.42669999999999997,-8.809407264259583
-0.4277000000000001,-9.006052134940823
-0.42869999999999997,-9.204111716921929
-0.4297000000000001,-9.419147834501414
-0.43069999999999997,-9.605889726083598
-0.4317000000000001,-9.835072956661735
-0.4327,-10.054353208140816
-0.4337000000000001,-10.2693893257203
-0.4347,-10.46603419640154
-0.4357000000000001,-10.669752623582108
-0.4367,-10.918741812358354
-0.4377000000000001,-11.129533796038242
-0.4387,-11.39267009781314
-0.4397000000000001,-11.611950349292222
-0.4407,-11.852451270269277
-0.4417000000000001,-12.047681429650654
-0.4427,-12.2966706184269
-0.4437000000000001,-12.524439137705171
-0.4447,-12.70410747278803
-0.4457000000000001,-12.96299964066333
-0.4467,-13.219062385938905
-0.4477000000000001,-13.472295708614745
-0.4487,-13.763726236386942
-0.4497000000000001,-14.036765517260893
-0.4507,-14.30273124163552
-0.4517000000000001,-14.529085049613924
-0.4527,-14.783733083589633
-0.4537000000000001,-15.06667534356264
-0.4547,-15.293029151541045
-0.4557000000000001,-15.575971411514052
-0.4567,-15.844766558488407
-0.4577000000000001,-16.141855931460068
-0.4587,-16.438945304431726
-0.4597000000000001,-16.70774045140608
-0.4607,-16.97653559838044
-0.4617000000000001,-17.2453307453548
-0.4627,-17.45753744033455
-0.4637000000000001,-17.75462681330621
-0.4647,-18.06586329927652
-0.4657000000000001,-18.320511333252224
-0.4667,-18.631747819222536
-0.4677000000000001,-18.858101627200938
-0.4687,-19.1834852261699
-0.4697000000000001,-19.353250582153702
-0.4707,-19.579604390132108
-0.4717000000000001,-19.947429328097016
-0.4727,-20.315254266061928
-0.4737000000000001,-20.711373430024135
-0.4747,-20.966021463999844
-0.4757000000000001,-21.390434853959356
-0.4767,-21.67337711393236
-0.4777000000000001,-22.012907825899973
-0.4787,-22.267555859875678
-0.4797000000000001,-22.63538079784059
-0.4807,-22.946617283810895
-0.48170000000000013,-23.257853769781203
-0.4827,-23.48420757775961
-0.48370000000000013,-23.92276808071777
-0.4847,-24.20571034069078
-0.48570000000000013,-24.559388165657033
-0.4867,-24.941360216620595
-0.4876999999999999,-25.252596702590903
-0.4887,-25.677010092550415
-0.4896999999999999,-25.90336390052882
-0.4907,-26.101423482509926
-0.4916999999999999,-26.525836872469437
-0.4927,-26.907808923433
-0.4936999999999999,-27.459546330380363
-0.49470000000000003,-27.64345879936282
-0.4956999999999999,-28.039577963325023
-0.49670000000000003,-28.52057980527914
-0.4976999999999999,-28.732786500258893
-0.49870000000000003,-29.18549411621571
