Potential V vs RHE, Current mA cm-2
0.013299999999999867,0.12863969849672777
0.012299999999999978,-1.1798692240874404
0.011299999999999866,-2.095187435100119
0.010299999999999976,-3.055776407708479
0.009299999999999864,-3.840941179133574
0.008299999999999974,-4.843971490737885
0.007299999999999862,-5.759289701750564
0.006299999999999972,-6.6760226240631075
0.00529999999999986,-7.4173313451923875
0.0042999999999999705,-8.027071915434218
0.0032999999999998586,-8.376505606500881
0.0022999999999999687,-8.638227196975913
0.0012999999999998568,-8.769795347863363
0.00029999999999996696,-8.987660888042578
-0.000700000000000145,-9.293238528813426
-0.0017000000000000348,-9.772825659467674
-0.0027000000000001467,-10.340124890713554
-0.0037000000000000366,-10.863568071663616
-0.0047000000000001485,-11.385596541313816
-0.005700000000000038,-11.73503023238048
-0.00670000000000015,-11.82274233297211
-0.00770000000000004,-11.909039722263879
-0.008700000000000152,-11.86659838326793
-0.009700000000000042,-11.952895772559694
-0.010700000000000154,-12.12831997374296
-0.011700000000000044,-12.520195003805576
-0.012700000000000156,-12.913484745168056
-0.013700000000000045,-13.47936926511407
-0.014700000000000157,-13.828802956180734
-0.015700000000000047,-14.175407224647667
-0.01670000000000016,-14.217848563643619
-0.01770000000000005,-14.26028990263957
-0.01870000000000016,-14.13438059695158
-0.01970000000000005,-14.217848563643619
-0.020700000000000163,-14.345172580631472
-0.021700000000000053,-14.69885040559773
-0.022700000000000164,-15.094969569559943
-0.023700000000000054,-15.660854089505953
-0.024700000000000166,-16.014531914472215
-0.025700000000000056,-16.269179948447924
-0.026700000000000168,-16.354062626439823
-0.027700000000000058,-16.396503965435777
-0.02870000000000017,-16.269179948447924
-0.02970000000000006,-16.354062626439823
-0.03070000000000017,-16.53797509542228
-0.03170000000000006,-16.835064468393938
-0.03270000000000017,-17.2736249713521
-0.03370000000000006,-17.797068152302163
-0.034700000000000175,-18.19318731626437
-0.035700000000000065,-18.44783535024008
-0.03670000000000018,-18.589306480226583
-0.03770000000000007,-18.631747819222536
-0.03870000000000018,-18.49027668923603
-0.03970000000000007,-18.589306480226583
-0.04070000000000018,-18.759071836210385
-0.04170000000000007,-19.112749661176647
-0.04270000000000018,-19.537163051136158
-0.04370000000000007,-20.10304757108217
-0.044700000000000184,-20.456725396048434
-0.045700000000000074,-20.810403221014692
-0.046700000000000186,-20.93772723800254
-0.047700000000000076,-20.980168576998494
-0.04870000000000019,-20.89528589900659
-0.04970000000000008,-21.065051254990397
-0.05070000000000019,-21.149933932982297
-0.05170000000000008,-21.54605309694451
-0.05270000000000019,-22.027054938898623
-0.05370000000000008,-22.592939458844636
-0.05470000000000019,-22.946617283810895
-0.05570000000000008,-23.300295108777156
-0.056700000000000195,-23.427619125765005
-0.057700000000000085,-23.427619125765005
-0.058700000000000196,-23.385177786769056
-0.059700000000000086,-23.51250180375691
-0.0607000000000002,-23.639825820744765
-0.06170000000000009,-23.993503645711023
-0.0627000000000002,-24.474505487665134
-0.06370000000000009,-24.997948668615198
-0.0647000000000002,-25.39406783257741
-0.06570000000000009,-25.73359854454502
-0.0667000000000002,-25.86092256153287
-0.0677000000000001,-25.86092256153287
-0.0687000000000002,-25.86092256153287
-0.0697000000000001,-25.959952352523427
-0.07070000000000021,-26.087276369511276
-0.0717000000000001,-26.483395533473487
-0.07270000000000021,-26.9643973754276
-0.0737000000000001,-27.487840556377662
-0.07470000000000021,-27.912253946337174
-0.0757000000000001,-28.265931771303435
-0.07670000000000021,-28.350814449295335
-0.0777000000000001,-28.435697127287238
-0.07870000000000021,-28.393255788291288
-0.0797000000000001,-28.53472691827779
-0.08070000000000022,-28.619609596269694
-0.0817000000000001,-29.001581647233255
-0.08270000000000022,-29.440142150191413
-0.08370000000000011,-29.96358533114148
-0.08470000000000022,-30.402145834099635
-0.08570000000000011,-30.7558236590659
-0.08670000000000022,-30.79826499806185
-0.08770000000000011,-30.88314767605375
-0.08870000000000022,-30.8407063370578
-0.08970000000000011,-30.88314767605375
-0.09070000000000022,-31.010471693041605
-0.09170000000000011,-31.40659085700382
-0.09270000000000023,-31.84515135996197
-0.09370000000000012,-32.368594540912035
-0.09470000000000023,-32.764713704874254
-0.09570000000000012,-33.06180307784591
-0.09670000000000023,-33.18912709483376
-0.09770000000000012,-33.231568433829715
-0.09870000000000023,-33.18912709483376
-0.09970000000000012,-33.231568433829715
-0.10070000000000023,-33.41548090281216
-0.10170000000000012,-33.755011614779775
-0.10270000000000024,-34.193572117737936
-0.10370000000000013,-34.75945663768395
-0.10470000000000024,-35.15557580164616
-0.10570000000000013,-35.50925362661242
-0.10670000000000024,-35.594136304604326
-0.10770000000000013,-35.636577643600276
-0.10870000000000024,-35.50925362661242
-0.10970000000000013,-35.594136304604326
-0.11070000000000024,-35.721460321592176
-0.11170000000000013,-36.07513814655844
-0.11270000000000002,-36.47125731052064
-0.11370000000000013,-37.037141830466666
-0.11470000000000002,-37.376672542434264
-0.11570000000000014,-37.687909028404576
-0.11670000000000003,-37.85767438438838
-0.11770000000000014,-37.90011572338433
-0.11870000000000003,-37.77279170639648
-0.11970000000000014,-37.90011572338433
-0.12070000000000003,-38.04158685337084
-0.12170000000000014,-38.33867622634249
-0.12270000000000003,-38.777236729300654
-0.12370000000000014,-39.30067991025072
-0.12470000000000003,-39.696799074212926
-0.12570000000000014,-39.95144710818864
-0.12670000000000003,-40.135359577171094
-0.12770000000000015,-40.092918238175145
-0.12870000000000004,-40.03632978618054
-0.12970000000000015,-40.135359577171094
-0.13070000000000004,-40.220242255162994
-0.13170000000000015,-40.51733162813464
-0.13270000000000004,-40.95589213109281
-0.13370000000000015,-41.47933531204288
-0.13470000000000004,-41.83301313700913
-0.13570000000000015,-42.186690961975394
-0.13670000000000004,-42.31401497896325
-0.13770000000000016,-42.31401497896325
-0.13870000000000005,-42.229132300971344
-0.13970000000000016,-42.2715736399673
-0.14070000000000005,-42.3564563179592
-0.14170000000000016,-42.71013414292546
-0.14270000000000005,-43.17698887188092
-0.14370000000000016,-43.70043205283099
-0.14470000000000005,-44.011668538801295
-0.14570000000000016,-44.4077877027635
-0.14670000000000005,-44.4926703807554
-0.14770000000000016,-44.4926703807554
-0.14870000000000005,-44.45022904175945
-0.14970000000000017,-44.535111719751356
-0.15070000000000006,-44.619994397743255
-0.15170000000000017,-44.97367222270952
-0.15270000000000006,-45.412232725667685
-0.15370000000000017,-45.93567590661774
-0.15470000000000006,-46.3176479575813
-0.15570000000000017,-46.67132578254756
-0.15670000000000006,-46.84109113853137
-0.15770000000000017,-46.84109113853137
-0.15870000000000006,-46.84109113853137
-0.15970000000000018,-46.88353247752732
-0.16070000000000007,-47.02500360751382
-0.16170000000000018,-47.40697565847737
-0.16270000000000007,-47.8879775004315
-0.16370000000000018,-48.41142068138156
-0.16470000000000007,-48.84998118433972
-0.16570000000000018,-49.20365900930597
-0.16670000000000007,-49.33098302629383
-0.16770000000000018,-49.373424365289786
-0.16870000000000007,-49.373424365289786
-0.16970000000000018,-49.458307043281685
-0.17070000000000007,-49.59977817326819
-0.17170000000000019,-49.98175022423175
-0.17270000000000008,-50.42031072718991
-0.1737000000000002,-50.98619524713592
-0.17470000000000008,-51.424755750094086
-0.1757000000000002,-51.82087491405629
-0.17670000000000008,-51.948198931044146
-0.1777000000000002,-52.075522948032
-0.17870000000000008,-51.990640270040096
-0.1797000000000002,-52.11796428702795
-0.18070000000000008,-52.34431809500636
-0.1817000000000002,-52.74043725896857
-0.18270000000000008,-53.22143910092268
-0.1837000000000002,-53.82976495986464
-0.1847000000000001,-54.31076680181876
-0.1857000000000002,-54.65029751378637
-0.1867000000000001,-54.876651321764776
-0.1877000000000002,-55.003975338752625
-0.1887000000000001,-55.003975338752625
-0.1897000000000002,-55.13129935574048
-0.1907000000000001,-55.400094502714836
-0.1917000000000001,-55.7820665536784
-0.19269999999999998,-56.30550973462846
-0.1937000000000001,-56.97042404556503
-0.19469999999999998,-57.45142588751914
-0.1957000000000001,-57.8333979384827
-0.19669999999999999,-58.10219308545706
-0.1977000000000001,-58.22951710244491
-0.1987,-58.22951710244491
-0.1997000000000001,-58.39928245842871
-0.2007,-58.62563626640712
-0.2017000000000001,-59.06419676936528
-0.2027,-59.587639950315335
-0.2037000000000001,-60.23840714825326
-0.2047,-60.71940899020737
-0.2057000000000001,-61.242852171157445
-0.2067,-61.49750020513315
-0.2077000000000001,-61.72385401311155
-0.2087,-61.72385401311155
-0.2097000000000001,-61.97850204708726
-0.2107,-62.16241451606972
-0.2117000000000001,-62.58682790602922
-0.2127,-63.20930087796983
-0.2137000000000001,-63.902509414903705
-0.2147,-64.38351125685783
-0.2157000000000001,-64.94939577680383
-0.2167,-65.2464851497755
-0.21770000000000012,-65.38795627976201
-0.2187,-65.4728389577539
-0.21970000000000012,-65.7274869917296
-0.2207,-65.99628213870396
-0.22170000000000012,-66.47728398065809
-0.2227,-67.128051178596
-0.22370000000000012,-67.82125971552985
-0.2247,-68.38714423547587
-0.22570000000000012,-68.96717586842054
-0.2267,-69.26426524139221
-0.22770000000000012,-69.39158925838004
-0.22870000000000001,-69.53306038836655
-0.22970000000000013,-69.78770842234226
-0.23070000000000002,-70.01406223032066
-0.23170000000000013,-70.53750541127073
-0.23270000000000002,-71.1458312702127
-0.23370000000000013,-71.83903980714656
-0.23470000000000002,-72.40492432709259
-0.23570000000000013,-72.92836750804264
-0.23670000000000002,-73.23960399401295
-0.2376999999999999,-73.40936934999675
-0.23870000000000002,-73.49425202798865
-0.2396999999999999,-73.80548851395896
-0.24070000000000003,-73.97525386994278
-0.24169999999999991,-74.49869705089283
-0.24270000000000003,-75.06458157083884
-0.24369999999999992,-75.81437855976732
-0.24470000000000003,-76.42270441870929
-0.24569999999999992,-76.98858893865528
-0.24670000000000003,-77.243236972631
-0.24769999999999992,-77.51203211960537
-0.24870000000000003,-77.63935613659322
-0.24969999999999992,-77.86570994457162
-0.25070000000000003,-78.16279931754329
-0.2516999999999999,-78.72868383748929
-0.25270000000000004,-79.33700969643127
-0.2536999999999999,-80.04436534636378
-0.25470000000000004,-80.65269120530574
-0.2556999999999999,-81.1761343862558
-0.25670000000000004,-81.43078242023151
-0.25769999999999993,-81.65713622820991
-0.25870000000000004,-81.74201890620182
-0.25969999999999993,-81.86934292318966
-0.26070000000000004,-82.13813807016405
-0.26169999999999993,-82.61913991211814
-0.26270000000000004,-83.14258309306821
-0.26369999999999993,-83.83579163000208
-0.26470000000000005,-84.35923481095215
-0.26569999999999994,-84.8826779919022
-0.26670000000000005,-85.13732602587791
-0.26769999999999994,-85.40612117285227
-0.26870000000000005,-85.44856251184822
-0.26969999999999994,-85.70321054582392
-0.27070000000000005,-85.92956435380233
-0.27169999999999994,-86.45300753475239
-0.27270000000000005,-86.93400937670651
-0.27369999999999994,-87.66965925263632
-0.27470000000000006,-88.15066109459043
-0.27569999999999995,-88.63166293654454
-0.27670000000000006,-88.94289942251486
-0.27769999999999995,-89.07022343950271
-0.27870000000000006,-89.07022343950271
-0.27969999999999995,-89.23998879548651
-0.28070000000000006,-89.50878394246087
-0.28169999999999995,-89.89075599342443
-0.28270000000000006,-90.47078762636909
-0.28369999999999995,-91.12155482430701
-0.28470000000000006,-91.64499800525708
-0.28569999999999995,-92.08355850821525
-0.28670000000000007,-92.29576520319499
-0.28769999999999996,-92.42308922018285
-0.28870000000000007,-92.4655305591788
-0.28969999999999996,-92.6918843671572
-0.29070000000000007,-92.90409106213696
-0.29169999999999996,-93.34265156509512
-0.29270000000000007,-93.90853608504113
-0.29369999999999996,-94.55930328297906
-0.2947000000000001,-94.95542244694126
-0.29569999999999996,-95.39398294989942
-0.2967000000000001,-95.52130696688728
-0.29769999999999996,-95.56374830588322
-0.2987000000000001,-95.47886562789132
-0.29969999999999997,-95.60618964487918
-0.3007000000000001,-95.69107232287108
-0.30169999999999997,-96.0871914868333
-0.3027000000000001,-96.5681933287874
-0.30369999999999997,-97.17651918772938
-0.3047000000000001,-97.57263835169158
-0.30569999999999997,-98.01119885464975
-0.3067000000000001,-98.18096421063355
-0.3077,-98.2234055496295
-0.3087000000000001,-98.18096421063355
-0.3097,-98.26584688862545
-0.3107000000000001,-98.3082882276214
-0.3117,-98.66196605258766
-0.3127000000000001,-99.10052655554581
-0.3137,-99.53908705850398
-0.3147000000000001,-99.93520622246619
-0.3157,-100.2747369344338
-0.3167000000000001,-100.35961961242569
-0.3177,-100.31717827342976
-0.3187000000000001,-100.23229559543785
-0.3197,-100.18985425644189
-0.3207000000000001,-100.23229559543785
-0.3217,-100.54353208140815
-0.3227000000000001,-100.88306279337576
-0.3237,-101.27918195733798
-0.3247000000000001,-101.63285978230424
-0.3257,-101.84506647728399
-0.3267000000000001,-101.80262513828804
-0.3277,-101.76018379929208
-0.3287000000000001,-101.54797710431234
-0.3297,-101.40650597432582
-0.3307000000000001,-101.27918195733798
-0.3317,-101.44894731332178
-0.3327000000000001,-101.6753011213002
-0.3337,-101.97239049427183
-0.3347000000000001,-102.19874430225026
-0.3357,-102.3260683192381
-0.3367000000000001,-102.19874430225026
-0.3377,-102.07142028526239
-0.3387000000000001,-101.71774246029614
-0.3397,-101.44894731332178
-0.3407000000000001,-101.27918195733798
-0.3417,-101.32162329633393
-0.3427000000000001,-101.40650597432582
-0.3437,-101.63285978230424
-0.3447000000000001,-101.71774246029614
-0.3457,-101.6753011213002
-0.3467000000000001,-101.44894731332178
-0.3477,-101.15185794035013
-0.3487000000000001,-100.71329743739196
-0.3497,-100.35961961242569
-0.3507000000000001,-100.14741291744595
-0.3517,-100.02008890045809
-0.3527000000000001,-100.10497157844999
-0.3537,-100.23229559543785
-0.3547000000000001,-100.18985425644189
-0.3557,-100.06253023945405
-0.35670000000000013,-99.75129375348374
-0.3577,-99.31273325052557
-0.35870000000000013,-98.66196605258766
-0.3597,-98.2234055496295
-0.36070000000000013,-97.84143349866595
-0.3617,-97.6575210296835
-0.3626999999999999,-97.4877556736997
-0.3637,-97.53019701269562
-0.3646999999999999,-97.36043165671182
-0.3657,-97.17651918772938
-0.3666999999999999,-96.79454713676581
-0.3677,-96.27110395581576
-0.3686999999999999,-95.52130696688728
-0.36970000000000003,-95.08274646392913
-0.3706999999999999,-94.55930328297906
-0.37170000000000003,-94.26221391000739
-0.3726999999999999,-94.13488989301955
-0.37370000000000003,-94.13488989301955
-0.3746999999999999,-93.90853608504113
-0.37570000000000003,-93.65388805106544
-0.3766999999999999,-93.17288620911131
-0.37770000000000004,-92.56456035016936
-0.3786999999999999,-91.89964603923279
-0.37970000000000004,-91.37620285828272
-0.3806999999999999,-90.89520101632861
-0.38170000000000004,-90.6405529823529
-0.38269999999999993,-90.55567030436099
-0.38370000000000004,-90.51322896536506
-0.38469999999999993,-90.32931649638259
-0.38570000000000004,-90.15955114039879
-0.38669999999999993,-89.72099063744062
-0.38770000000000004,-89.15510611749461
-0.38869999999999993,-88.5043389195567
-0.38970000000000005,-87.98089573860662
-0.39069999999999994,-87.45745255765657
-0.39170000000000005,-87.27354008867411
-0.39269999999999994,-87.18865741068221
-0.39370000000000005,-87.18865741068221
-0.39469999999999994,-86.84912669871461
-0.39570000000000005,-86.66521422973216
-0.39669999999999994,-86.18421238777805
-0.39770000000000005,-85.66076920682796
-0.39869999999999994,-85.09488468688197
-0.39970000000000006,-84.75535397491434
-0.40069999999999995,-84.31679347195619
-0.40170000000000006,-84.27435213296022
-0.40269999999999995,-84.31679347195619
-0.40370000000000006,-84.44411748894404
-0.40469999999999995,-84.52900016693594
-0.40570000000000006,-84.48655882793999
-0.40669999999999995,-84.27435213296022
-0.40770000000000006,-84.00555698598588
-0.40869999999999995,-83.66602627401826
-0.40970000000000006,-83.35478978804795
-0.41069999999999995,-83.18502443206415
-0.41170000000000007,-83.26990711005605
-0.41269999999999996,-83.43967246603985
-0.41370000000000007,-83.60943782202366
-0.41469999999999996,-83.83579163000208
-0.41570000000000007,-83.96311564698992
-0.41669999999999996,-83.92067430799398
-0.41770000000000007,-83.83579163000208
-0.41869999999999996,-83.60943782202366
-0.4197000000000001,-83.52455514403178
-0.42069999999999996,-83.56699648302772
-0.4217000000000001,-83.83579163000208
-0.42269999999999996,-84.13288100297372
-0.4237000000000001,-84.6563241839238
-0.42469999999999997,-85.01000200889004
-0.4257000000000001,-85.32123849486035
-0.42669999999999997,-85.40612117285227
-0.4277000000000001,-85.44856251184822
-0.42869999999999997,-85.32123849486035
-0.4297000000000001,-85.36367983385631
-0.43069999999999997,-85.49100385084417
-0.4317000000000001,-85.84468167581042
-0.4327,-86.28324217876859
-0.4337000000000001,-86.89156803771054
-0.4347,-87.33012854066871
-0.4357000000000001,-87.66965925263632
-0.4367,-87.89601306061473
-0.4377000000000001,-87.98089573860662
-0.4387,-87.98089573860662
-0.4397000000000001,-88.10821975559449
-0.4407,-88.37701490256885
-0.4417000000000001,-88.80142829252836
-0.4427,-89.42390126446898
-0.4437000000000001,-90.11710980140283
-0.4447,-90.68299432134886
-0.4457000000000001,-91.07911348531105
-0.4467,-91.33376151928677
-0.4477000000000001,-91.51767398826922
-0.4487,-91.51767398826922
-0.4497000000000001,-91.77232202224494
-0.4507,-92.04111716921928
-0.4517000000000001,-92.4655305591788
-0.4527,-93.03141507912481
-0.4537000000000001,-93.73877072905732
-0.4547,-94.21977257101145
-0.4557000000000001,-94.70077441296557
-0.4567,-94.95542244694126
-0.4577000000000001,-95.12518780292505
-0.4587,-95.18177625491967
-0.4597000000000001,-95.43642428889537
-0.4607,-95.69107232287108
-0.4617000000000001,-96.21451550382113
-0.4627,-96.87942981475771
-0.4637000000000001,-97.6575210296835
-0.4647,-98.2234055496295
-0.4657000000000001,-98.83173140857146
-0.4667,-99.18540923353773
-0.4677000000000001,-99.27029191152963
-0.4687,-99.41176304151614
-0.4697000000000001,-99.58152839749994
-0.4707,-99.87861777047159
-0.4717000000000001,-100.35961961242569
-0.4727,-100.88306279337576
-0.4737000000000001,-101.44894731332178
-0.4747,-101.84506647728399
-0.4757000000000001,-102.19874430225026
-0.4767,-102.36850965823406
-0.4777000000000001,-102.41095099723
-0.4787,-102.41095099723
-0.4797000000000001,-102.5524221272165
-0.4807,-102.72218748320032
-0.48170000000000013,-103.24563066415038
-0.4827,-103.76907384510045
-0.48370000000000013,-104.46228238203432
-0.4847,-104.98572556298437
-0.48570000000000013,-105.42428606594254
-0.4867,-104.3773997040424
-0.48570000000000013,-101.44894731332178
-0.4847,-98.74684873057957
-0.48370000000000013,-96.4833106507955
-0.4827,-94.34709658799929
-0.48170000000000013,-92.6070016891653
-0.4807,-91.03667214631511
-0.4797000000000001,-89.63610795944872
-0.4787,-88.15066109459043
-0.4777000000000001,-86.7076555687281
-0.4767,-85.01000200889004
-0.4757000000000001,-83.35478978804795
-0.4747,-81.61469488921396
-0.4737000000000001,-80.04436534636378
-0.4727,-78.60135982050144
-0.4717000000000001,-77.38470810261751
-0.4707,-76.29538040172143
-0.4697000000000001,-75.33337671781321
-0.4687,-74.32893169490903
-0.4677000000000001,-73.23960399401295
-0.4667,-72.00880516313036
-0.4657000000000001,-70.74971210625048
-0.4647,-69.39158925838004
-0.4637000000000001,-68.17493754049613
-0.4627,-67.17049251759194
-0.4617000000000001,-66.29337151167562
