Potential V vs RHE, Current mA cm-2
0.013299999999999867,0.7393281253094681
0.012299999999999978,0.12863969849672777
0.011299999999999866,-0.30755823659065895
0.010299999999999976,-0.7001406223032067
0.009299999999999864,-1.0054353208140816
0.008299999999999974,-1.2671569112891135
0.007299999999999862,-1.5293029151541047
0.006299999999999972,-1.7910245056291363
0.00529999999999986,-2.008890045808352
0.0042999999999999705,-2.1828995356917518
0.0032999999999998586,-2.3569090255751513
0.0022999999999999687,-2.532333226758415
0.0012999999999998568,-2.706342716641815
0.00029999999999996696,-2.8803522065252145
-0.000700000000000145,-3.0119203574126634
-0.0017000000000000348,-3.1420737970002466
-0.0027000000000001467,-3.317497998183511
-0.0037000000000000366,-3.447651437771094
-0.0047000000000001485,-3.579219588658543
-0.005700000000000038,-3.6655169779503103
-0.00670000000000015,-3.7970851288377587
-0.00770000000000004,-3.884797229429391
-0.008700000000000152,-4.014950669016974
-0.009700000000000042,-4.102662769608606
-0.010700000000000154,-4.23281620919619
-0.011700000000000044,-4.364384360083638
-0.012700000000000156,-4.494537799671222
-0.013700000000000045,-4.582249900262854
-0.014700000000000157,-4.668547289554621
-0.015700000000000047,-4.800115440442069
-0.01670000000000016,-4.887827541033701
-0.01770000000000005,-5.017980980621284
-0.01870000000000016,-5.149549131508733
-0.01970000000000005,-5.235846520800501
-0.020700000000000163,-5.367414671687949
-0.021700000000000053,-5.411270721983764
-0.022700000000000164,-5.497568111275533
-0.023700000000000054,-5.585280211867165
-0.024700000000000166,-5.672992312458796
-0.025700000000000056,-5.715433651454749
-0.026700000000000168,-5.80314575204638
-0.027700000000000058,-5.890857852638012
-0.02870000000000017,-5.977155241929781
-0.02970000000000006,-6.021011292225596
-0.03070000000000017,-6.108723392817228
-0.03170000000000006,-6.152579443113044
-0.03270000000000017,-6.238876832404812
-0.03370000000000006,-6.282732882700628
-0.034700000000000175,-6.37044498329226
-0.035700000000000065,-6.458157083883892
-0.03670000000000018,-6.500598422879844
-0.03770000000000007,-6.588310523471475
-0.03870000000000018,-6.6760226240631075
-0.03970000000000007,-6.762320013354876
-0.04070000000000018,-6.806176063650692
-0.04170000000000007,-6.893888164242324
-0.04270000000000018,-6.981600264833956
-0.04370000000000007,-7.024041603829907
-0.044700000000000184,-7.111753704421539
-0.045700000000000074,-7.199465805013171
-0.046700000000000186,-7.243321855308987
-0.047700000000000076,-7.28576319430494
-0.04870000000000019,-7.329619244600755
-0.04970000000000008,-7.4173313451923875
-0.05070000000000019,-7.461187395488204
-0.05170000000000008,-7.50504344578402
-0.05270000000000019,-7.591340835075788
-0.05370000000000008,-7.635196885371603
-0.05470000000000019,-7.679052935667419
-0.05570000000000008,-7.722908985963235
-0.056700000000000195,-7.7653503249591855
-0.057700000000000085,-7.809206375255003
-0.058700000000000196,-7.853062425550818
-0.059700000000000086,-7.896918475846635
-0.0607000000000002,-7.940774526142452
-0.06170000000000009,-7.984630576438266
-0.0627000000000002,-8.027071915434218
-0.06370000000000009,-8.027071915434218
-0.0647000000000002,-8.070927965730034
-0.06570000000000009,-8.11478401602585
-0.0667000000000002,-8.158640066321666
-0.0677000000000001,-8.202496116617484
-0.0687000000000002,-8.246352166913299
-0.0697000000000001,-8.288793505909249
-0.07070000000000021,-8.332649556205066
-0.0717000000000001,-8.376505606500881
-0.07270000000000021,-8.376505606500881
-0.0737000000000001,-8.4203616567967
-0.07470000000000021,-8.464217707092514
-0.0757000000000001,-8.508073757388331
-0.07670000000000021,-8.55051509638428
-0.0777000000000001,-8.594371146680096
-0.07870000000000021,-8.68208324727173
-0.0797000000000001,-8.68208324727173
-0.08070000000000022,-8.769795347863363
-0.0817000000000001,-8.812236686859313
-0.08270000000000022,-8.812236686859313
-0.08370000000000011,-8.899948787450944
-0.08470000000000022,-8.899948787450944
-0.08570000000000011,-8.987660888042578
-0.08670000000000022,-9.031516938338395
-0.08770000000000011,-9.11781432763016
-0.08870000000000022,-9.11781432763016
-0.08970000000000011,-9.205526428221793
-0.09070000000000022,-9.24938247851761
-0.09170000000000011,-9.24938247851761
-0.09270000000000023,-9.335679867809377
-0.09370000000000012,-9.423391968401008
-0.09470000000000023,-9.511104068992642
-0.09570000000000012,-9.59740145828441
-0.09670000000000023,-9.641257508580225
-0.09770000000000012,-9.772825659467674
-0.09870000000000023,-9.85912304875944
-0.09970000000000012,-9.946835149351072
-0.10070000000000023,-10.034547249942705
-0.10170000000000012,-10.164700689530287
-0.10270000000000024,-10.25241279012192
-0.10370000000000013,-10.382566229709504
-0.10470000000000024,-10.557990430892769
-0.10570000000000013,-10.688143870480351
-0.10670000000000024,-10.819712021367803
-0.10770000000000013,-10.949865460955383
-0.10870000000000024,-11.123874950838783
-0.10970000000000013,-11.255443101726232
-0.11070000000000024,-11.42945259160963
-0.11170000000000013,-11.56102074249708
-0.11270000000000002,-11.691174182084664
-0.11370000000000013,-11.82274233297211
-0.11470000000000002,-11.909039722263879
-0.11570000000000014,-12.040607873151327
-0.11670000000000003,-12.12831997374296
-0.11770000000000014,-12.214617363034726
-0.11870000000000003,-12.302329463626359
-0.11970000000000014,-12.390041564217992
-0.12070000000000003,-12.520195003805576
-0.12170000000000014,-12.607907104397206
-0.12270000000000003,-12.694204493688973
-0.12370000000000014,-12.73806054398479
-0.12470000000000003,-12.825772644576423
-0.12570000000000014,-12.913484745168056
-0.12670000000000003,-12.955926084164007
-0.12770000000000015,-13.043638184755638
-0.12870000000000004,-13.13135028534727
-0.12970000000000015,-13.217647674639037
-0.13070000000000004,-13.217647674639037
-0.13170000000000015,-13.30535977523067
-0.13270000000000004,-13.349215825526485
-0.13370000000000015,-13.3930718758223
-0.13470000000000004,-13.47936926511407
-0.13570000000000015,-13.523225315409885
-0.13670000000000004,-13.610937416001518
-0.13770000000000016,-13.654793466297335
-0.13870000000000005,-13.698649516593148
-0.13970000000000016,-13.741090855589102
-0.14070000000000005,-13.784946905884919
-0.14170000000000016,-13.828802956180734
-0.14270000000000005,-13.916515056772363
-0.14370000000000016,-13.960371107068182
-0.14470000000000005,-14.002812446064135
-0.14570000000000016,-14.046668496359947
-0.14670000000000005,-14.090524546655764
-0.14770000000000016,-14.13438059695158
-0.14870000000000005,-14.175407224647667
-0.14970000000000017,-14.217848563643619
-0.15070000000000006,-14.26028990263957
-0.15170000000000017,-14.30273124163552
-0.15270000000000006,-14.401761032626075
-0.15370000000000017,-14.444202371622024
-0.15470000000000006,-14.486643710617974
-0.15570000000000017,-14.529085049613924
-0.15670000000000006,-14.57152638860988
-0.15770000000000017,-14.61396772760583
-0.15870000000000006,-14.61396772760583
-0.15970000000000018,-14.69885040559773
-0.16070000000000007,-14.741291744593681
-0.16170000000000018,-14.783733083589633
-0.16270000000000007,-14.826174422585586
-0.16370000000000018,-14.868615761581536
-0.16470000000000007,-14.925204213576137
-0.16570000000000018,-14.967645552572087
-0.16670000000000007,-15.01008689156804
-0.16770000000000018,-15.05252823056399
-0.16870000000000007,-15.094969569559943
-0.16970000000000018,-15.137410908555893
-0.17070000000000007,-15.179852247551842
-0.17170000000000019,-15.222293586547794
-0.17270000000000008,-15.264734925543747
-0.1737000000000002,-15.307176264539699
-0.17470000000000008,-15.349617603535648
-0.1757000000000002,-15.3920589425316
-0.17670000000000008,-15.448647394526201
-0.1777000000000002,-15.491088733522153
-0.17870000000000008,-15.575971411514052
-0.1797000000000002,-15.618412750510005
-0.18070000000000008,-15.660854089505953
-0.1817000000000002,-15.660854089505953
-0.18270000000000008,-15.74573676749786
-0.1837000000000002,-15.78817810649381
-0.1847000000000001,-15.830619445489761
-0.1857000000000002,-15.87306078448571
-0.1867000000000001,-15.91550212348166
-0.1877000000000002,-16.014531914472215
-0.1887000000000001,-16.014531914472215
-0.1897000000000002,-16.056973253468165
-0.1907000000000001,-16.099414592464115
-0.1917000000000001,-16.184297270456018
-0.19269999999999998,-16.22673860945197
-0.1937000000000001,-16.269179948447924
-0.19469999999999998,-16.311621287443874
-0.1957000000000001,-16.354062626439823
-0.19669999999999999,-16.438945304431726
-0.1977000000000001,-16.438945304431726
-0.1987,-16.53797509542228
-0.1997000000000001,-16.53797509542228
-0.2007,-16.622857773414182
-0.2017000000000001,-16.665299112410132
-0.2027,-16.70774045140608
-0.2037000000000001,-16.792623129397985
-0.2047,-16.792623129397985
-0.2057000000000001,-16.835064468393938
-0.2067,-16.877505807389888
-0.2077000000000001,-16.919947146385837
-0.2087,-17.018976937376394
-0.2097000000000001,-17.061418276372343
-0.2107,-17.103859615368293
-0.2117000000000001,-17.146300954364243
-0.2127,-17.2736249713521
-0.2137000000000001,-17.2736249713521
-0.2147,-17.358507649344002
-0.2157000000000001,-17.40094898833995
-0.2167,-17.4433903273359
-0.21770000000000012,-17.542420118326454
-0.2187,-17.542420118326454
-0.21970000000000012,-17.669744135314307
-0.2207,-17.71218547431026
-0.22170000000000012,-17.75462681330621
-0.2227,-17.839509491298113
-0.22370000000000012,-17.881950830294063
-0.2247,-17.966833508285966
-0.22570000000000012,-18.009274847281915
-0.2267,-18.06586329927652
-0.22770000000000012,-18.15074597726842
-0.22870000000000001,-18.23562865526032
-0.22970000000000013,-18.27806999425627
-0.23070000000000002,-18.362952672248177
-0.23170000000000013,-18.40539401124413
-0.23270000000000002,-18.44783535024008
-0.23370000000000013,-18.53271802823198
-0.23470000000000002,-18.589306480226583
-0.23570000000000013,-18.716630497214435
-0.23670000000000002,-18.759071836210385
-0.2376999999999999,-18.843954514202288
-0.23870000000000002,-18.92883719219419
-0.2396999999999999,-18.97127853119014
-0.24070000000000003,-19.056161209182044
-0.24169999999999991,-19.112749661176647
-0.24270000000000003,-19.2400736781645
-0.24369999999999992,-19.28251501716045
-0.24470000000000003,-19.367397695152352
-0.24569999999999992,-19.452280373144255
-0.24670000000000003,-19.537163051136158
-0.24769999999999992,-19.579604390132108
-0.24870000000000003,-19.678634181122664
-0.24969999999999992,-19.763516859114564
-0.25070000000000003,-19.848399537106463
-0.2516999999999999,-19.93328221509837
-0.25270000000000004,-20.01816489309027
-0.2536999999999999,-20.10304757108217
-0.25470000000000004,-20.244518701068674
-0.2556999999999999,-20.286960040064624
-0.25670000000000004,-20.371842718056527
-0.25769999999999993,-20.456725396048434
-0.25870000000000004,-20.584049413036283
-0.25969999999999993,-20.683079204026836
-0.26070000000000004,-20.76796188201874
-0.26169999999999993,-20.85284456001064
-0.26270000000000004,-20.980168576998494
-0.26369999999999993,-21.065051254990397
-0.26470000000000005,-21.149933932982297
-0.26569999999999994,-21.248963723972853
-0.26670000000000005,-21.376287740960702
-0.26769999999999994,-21.503611757948562
-0.26870000000000005,-21.58849443594046
-0.26969999999999994,-21.729965565926964
-0.27070000000000005,-21.814848243918867
-0.27169999999999994,-21.899730921910766
-0.27270000000000005,-22.027054938898623
-0.27369999999999994,-22.111937616890522
-0.27470000000000006,-22.253408746877028
-0.27569999999999995,-22.33829142486893
-0.27670000000000006,-22.46561544185678
-0.27769999999999995,-22.592939458844636
-0.27870000000000006,-22.72026347583249
-0.27969999999999995,-22.861734605818995
-0.28070000000000006,-22.946617283810895
-0.28169999999999995,-23.1163826397947
-0.28270000000000006,-23.2012653177866
-0.28369999999999995,-23.385177786769056
-0.28470000000000006,-23.51250180375691
-0.28569999999999995,-23.639825820744765
-0.28670000000000007,-23.767149837732617
-0.28769999999999996,-23.951062306715073
-0.28870000000000007,-24.078386323702922
-0.28969999999999996,-24.20571034069078
-0.29070000000000007,-24.34718147067728
-0.29169999999999996,-24.474505487665134
-0.29270000000000007,-24.64427084364894
-0.29369999999999996,-24.814036199632742
-0.2947000000000001,-24.95550732961925
-0.29569999999999996,-25.12527268560305
-0.2967000000000001,-25.252596702590903
-0.29769999999999996,-25.43650917157336
-0.2987000000000001,-25.60627452755716
-0.29969999999999997,-25.77603988354097
-0.3007000000000001,-25.91751101352747
-0.30169999999999997,-26.087276369511276
-0.3027000000000001,-26.29948306449103
-0.30369999999999997,-26.440954194477534
-0.3047000000000001,-26.65316088945729
-0.30569999999999997,-26.822926245441096
-0.3067000000000001,-27.00683871442355
-0.3077,-27.176604070407354
-0.3087000000000001,-27.34636942639116
-0.3097,-27.572723234369565
-0.3107000000000001,-27.78492992934932
-0.3117,-28.011283737327723
-0.3127000000000001,-28.22349043230748
-0.3137,-28.393255788291288
-0.3147000000000001,-28.577168257273744
-0.3157,-28.789374952253496
-0.3167000000000001,-29.001581647233255
-0.3177,-29.22793545521166
-0.3187000000000001,-29.482583489187363
-0.3197,-29.708937297165768
-0.3207000000000001,-29.921143992145527
-0.3217,-30.147497800123933
-0.3227000000000001,-30.402145834099635
-0.3237,-30.670940981073993
-0.3247000000000001,-30.88314767605375
-0.3257,-31.137795710029454
-0.3267000000000001,-31.36414951800786
-0.3277,-31.661238890979522
-0.3287000000000001,-31.887592698957924
-0.3297,-32.14224073293363
-0.3307000000000001,-32.41103587990799
-0.3317,-32.70812525287965
-0.3327000000000001,-32.97692039985401
-0.3337,-33.231568433829715
-0.3347000000000001,-33.58524625879597
-0.3357,-33.85404140577033
-0.3367000000000001,-34.15113077874198
-0.3377,-34.50480860370825
-0.3387000000000001,-34.8018979766799
-0.3397,-35.11313446265021
-0.3407000000000001,-35.38192960962457
-0.3417,-35.721460321592176
-0.3427000000000001,-36.07513814655844
-0.3437,-36.4288159715247
-0.3447000000000001,-36.725905344496354
-0.3457,-37.07958316946261
-0.3467000000000001,-37.41911388143023
-0.3477,-37.81523304539243
-0.3487000000000001,-38.16891087035869
-0.3497,-38.522588695324956
-0.3507000000000001,-38.86211940729255
-0.3517,-39.21579723225882
-0.3527000000000001,-39.61191639622103
-0.3537,-40.03632978618054
-0.3547000000000001,-40.43244895014274
-0.3557,-40.828568114104954
-0.35670000000000013,-41.22468727806717
-0.3577,-41.66324778102533
-0.35870000000000013,-42.04521983198889
-0.3597,-42.4413389959511
-0.36070000000000013,-42.92234083790521
-0.3617,-43.31846000186743
-0.3626999999999999,-43.79946184382153
-0.3637,-44.223875233781044
-0.3646999999999999,-44.66243573673921
-0.3657,-45.10099623969737
-0.3666999999999999,-45.53955674265553
-0.3677,-46.02055858460964
-0.3686999999999999,-46.501560426563756
-0.36970000000000003,-46.982562268517874
-0.3706999999999999,-47.46356411047198
-0.37170000000000003,-47.93041883942744
-0.3726999999999999,-48.41142068138156
-0.37370000000000003,-48.89242252333566
-0.3746999999999999,-49.373424365289786
-0.37570000000000003,-49.85442620724389
-0.3766999999999999,-50.37786938819396
-0.37770000000000004,-50.90131256914402
-0.3786999999999999,-51.424755750094086
-0.37970000000000004,-51.948198931044146
-0.3806999999999999,-52.471642111994214
-0.38170000000000004,-52.995085292944275
-0.38269999999999993,-53.56096981289029
-0.38370000000000004,-54.08441299384035
-0.38469999999999993,-54.65029751378637
-0.38570000000000004,-55.21618203373238
-0.38669999999999993,-55.046416677748574
-0.38570000000000004,-53.82976495986464
-0.38469999999999993,-52.78287859796452
-0.38370000000000004,-51.86331625305225
-0.38269999999999993,-50.98619524713592
-0.38170000000000004,-50.1656626932142
-0.3806999999999999,-49.41586570428573
-0.37970000000000004,-48.63777448935996
-0.3786999999999999,-47.8879775004315
-0.37770000000000004,-47.15232762450167
-0.3766999999999999,-46.41667774857186
-0.37570000000000003,-45.70932209863933
-0.3746999999999999,-45.01611356170547
-0.37370000000000003,-44.3229050247716
-0.3726999999999999,-43.657990713835034
-0.37170000000000003,-43.007223515897124
-0.3706999999999999,-42.3564563179592
-0.36970000000000003,-41.70568912002128
-0.3686999999999999,-41.04077480908471
-0.3677,-40.43244895014274
-0.3666999999999999,-39.82412309120078
-0.3657,-39.173355893262865
-0.3646999999999999,-38.607471373316855
-0.3637,-37.99914551437489
-0.3626999999999999,-37.41911388143023
-0.3617,-36.81078802248826
-0.36070000000000013,-36.244903502542236
-0.3597,-35.636577643600276
-0.35870000000000013,-35.02825178465831
-0.3577,-34.50480860370825
-0.35670000000000013,-33.89648274476628
-0.3557,-33.373039563816214
-0.3547000000000001,-32.807155043870196
-0.3537,-32.24127052392419
-0.3527000000000001,-31.717827342974125
-0.3517,-31.137795710029454
-0.3507000000000001,-30.571911190083444
-0.3497,-30.04846800913338
-0.3487000000000001,-29.525024828183312
-0.3477,-29.001581647233255
-0.3467000000000001,-28.478138466283188
-0.3457,-27.954695285333123
-0.3447000000000001,-27.43125210438306
-0.3437,-26.9643973754276
-0.3427000000000001,-26.440954194477534
-0.3417,-25.959952352523427
-0.3407000000000001,-25.43650917157336
-0.3397,-24.95550732961925
-0.3387000000000001,-24.474505487665134
-0.3377,-23.993503645711023
-0.3367000000000001,-23.55494314275286
-0.3357,-23.073941300798747
-0.3347000000000001,-22.63538079784059
-0.3337,-22.111937616890522
-0.3327000000000001,-21.67337711393236
-0.3317,-21.2065223849769
-0.3307000000000001,-20.76796188201874
-0.3297,-20.329401379060574
-0.3287000000000001,-19.890840876102416
-0.3277,-19.49472171214021
-0.3267000000000001,-19.01371987018609
-0.3257,-18.589306480226583
-0.3247000000000001,-18.15074597726842
-0.3237,-17.75462681330621
-0.3227000000000001,-17.316066310348052
-0.3217,-16.919947146385837
-0.3207000000000001,-16.53797509542228
-0.3197,-16.141855931460068
-0.3187000000000001,-15.74573676749786
-0.3177,-15.307176264539699
-0.3167000000000001,-14.925204213576137
-0.3157,-14.529085049613924
-0.3147000000000001,-14.175407224647667
-0.3137,-13.784946905884919
-0.3127000000000001,-13.436927926118118
-0.3117,-13.087494235051453
-0.3107000000000001,-12.694204493688973
-0.3097,-12.346185513922174
-0.3087000000000001,-11.952895772559694
-0.3077,-11.604876792792895
-0.3067000000000001,-11.255443101726232
-0.30569999999999997,-10.906009410659568
-0.3047000000000001,-10.601846481188586
-0.30369999999999997,-10.25241279012192
-0.3027000000000001,-9.902979099055257
-0.30169999999999997,-9.55496011928846
-0.3007000000000001,-9.24938247851761
-0.29969999999999997,-8.899948787450944
-0.2987000000000001,-8.594371146680096
-0.29769999999999996,-8.288793505909249
-0.2967000000000001,-7.940774526142452
-0.29569999999999996,-7.679052935667419
-0.2947000000000001,-7.37347529489657
-0.29369999999999996,-7.067897654125724
-0.29270000000000007,-6.806176063650692
-0.29169999999999996,-6.500598422879844
-0.29070000000000007,-6.196435493408861
-0.28969999999999996,-5.9347139029338285
-0.28870000000000007,-5.672992312458796
-0.28769999999999996,-5.367414671687949
-0.28670000000000007,-5.105693081212917
-0.28569999999999995,-4.887827541033701
-0.28470000000000006,-4.582249900262854
-0.28369999999999995,-4.3205283097878215
-0.28270000000000006,-4.0588067193127895
-0.28169999999999995,-3.840941179133574
-0.28070000000000006,-3.579219588658543
-0.27969999999999995,-3.361354048479327
-0.27870000000000006,-3.0996324580042955
-0.27769999999999995,-2.924208256821031
-0.27670000000000006,-2.662486666345999
-0.27569999999999995,-2.4446211261667834
-0.27470000000000006,-2.2706116362833835
-0.27369999999999994,-2.008890045808352
-0.27270000000000005,-1.8334658446250875
-0.27169999999999994,-1.6156003044458718
-0.27070000000000005,-1.4415908145624723
-0.26969999999999994,-1.2671569112891135
-0.26870000000000005,-1.0490084288499246
-0.26769999999999994,-0.9181476336124089
-0.26670000000000005,-0.7437137303390498
