Potential V vs RHE, Current mA cm-2
0.013299999999999867,1.4288584128636872
0.012299999999999978,1.0076988588938656
0.011299999999999866,0.7343766357599406
0.010299999999999976,0.49826131981246585
0.009299999999999864,0.3119438416202406
0.008299999999999974,0.15788178106493808
0.007299999999999862,-0.007369231160996976
0.006299999999999972,-0.15759883880496509
0.00529999999999986,-0.2734636942639116
0.0042999999999999705,-0.40630508532123855
0.0032999999999998586,-0.537873236208687
0.0022999999999999687,-0.6390250941490371
0.0012999999999998568,-0.7464016818087934
0.00029999999999996696,-0.8573150477182123
-0.000700000000000145,-0.9543642428889537
-0.0017000000000000348,-1.0357101426311934
-0.0027000000000001467,-1.1205928206230955
-0.0037000000000000366,-1.207739036694782
-0.0047000000000001485,-1.2665910267691676
-0.005700000000000038,-1.3401560143621492
-0.00670000000000015,-1.4246142789640919
-0.00770000000000004,-1.4797880196588282
-0.008700000000000152,-1.54203531685289
-0.009700000000000042,-1.626917994844792
-0.010700000000000154,-1.6919947146385839
-0.011700000000000044,-1.7514125892329155
-0.012700000000000156,-1.8320511333252225
-0.013700000000000045,-1.9070308322180693
-0.014700000000000157,-1.9650339955125358
-0.015700000000000047,-2.0414284057052483
-0.01670000000000016,-2.12631108369715
-0.01770000000000005,-2.192802514790807
-0.01870000000000016,-2.2550498119848683
-0.01970000000000005,-2.3328589334774454
-0.020700000000000163,-2.3936915193716417
-0.021700000000000053,-2.4417917035670533
-0.022700000000000164,-2.506868423360845
-0.023700000000000054,-2.5648715866553116
-0.024700000000000166,-2.6087276369511274
-0.025700000000000056,-2.662486666345999
-0.026700000000000168,-2.719075118340601
-0.027700000000000058,-2.7530281895373614
-0.02870000000000017,-2.7898106833338523
-0.02970000000000006,-2.836496156229398
-0.03070000000000017,-2.8732786500258896
-0.03170000000000006,-2.90157287602319
-0.03270000000000017,-2.945428926319006
-0.03370000000000006,-2.996358533114148
-0.034700000000000175,-3.0260674704113137
-0.035700000000000065,-3.082655922405915
-0.03670000000000018,-3.1449032195999767
-0.03770000000000007,-3.1887592698957925
-0.03870000000000018,-3.2411035879907995
-0.03970000000000007,-3.3061803077845906
-0.04070000000000018,-3.359939337179462
-0.04170000000000007,-3.408039521374873
-0.04270000000000018,-3.4617985507697444
-0.04370000000000007,-3.5169722914644814
-0.044700000000000184,-3.5495106513613774
-0.045700000000000074,-3.590537279057463
-0.046700000000000186,-3.641466885852605
-0.047700000000000076,-3.66268755535058
-0.04870000000000019,-3.693811203947611
-0.04970000000000008,-3.7419113881430217
-0.05070000000000019,-3.7603026350412674
-0.05170000000000008,-3.780108593239378
-0.05270000000000019,-3.815476375736004
-0.05370000000000008,-3.85084415823263
-0.05470000000000019,-3.869235405130875
-0.05570000000000008,-3.8947002085284463
-0.056700000000000195,-3.9300679910250715
-0.057700000000000085,-3.9413856814239923
-0.058700000000000196,-3.958362217022373
-0.059700000000000086,-3.9909005769192687
-0.0607000000000002,-4.014950669016974
-0.06170000000000009,-4.034756627215084
-0.0627000000000002,-4.0644655645122505
-0.06370000000000009,-4.08710094531009
-0.0647000000000002,-4.094174501809416
-0.06570000000000009,-4.116809882607257
-0.0667000000000002,-4.150762953804017
-0.0677000000000001,-4.160665932903073
-0.0687000000000002,-4.181886602401049
-0.0697000000000001,-4.215839673597809
-0.07070000000000021,-4.237060343095785
-0.0717000000000001,-4.2483780334947046
-0.07270000000000021,-4.280916393391601
-0.0737000000000001,-4.314869464588361
-0.07470000000000021,-4.326187154987283
-0.0757000000000001,-4.355896092284448
-0.07670000000000021,-4.388434452181344
-0.0777000000000001,-4.402581565179994
-0.07870000000000021,-4.428046368577565
-0.0797000000000001,-4.4648288623740555
-0.08070000000000022,-4.493123088371357
-0.0817000000000001,-4.521417314368658
-0.08270000000000022,-4.556785096865283
-0.08370000000000011,-4.596397013261504
-0.08470000000000022,-4.610544126260154
-0.08570000000000011,-4.6487413313565105
-0.08670000000000022,-4.695426804252056
-0.08770000000000011,-4.718062185049897
-0.08870000000000022,-4.750600544946793
-0.08970000000000011,-4.801530151741935
-0.09070000000000022,-4.835483222938696
-0.09170000000000011,-4.872265716735186
-0.09270000000000023,-4.923195323530328
-0.09370000000000012,-4.9698807964258735
-0.09470000000000023,-5.0052485789225
-0.09570000000000012,-5.053348763117911
-0.09670000000000023,-5.115596060311972
-0.09770000000000012,-5.163696244507384
-0.09870000000000023,-5.21321114000266
-0.09970000000000012,-5.283946704995913
-0.10070000000000023,-5.336291023090919
-0.10170000000000012,-5.385805918586194
-0.10270000000000024,-5.4551267722795815
-0.10370000000000013,-5.520203492073373
-0.10470000000000024,-5.565474253669055
-0.10570000000000013,-5.631965684762711
-0.10670000000000024,-5.704115961055828
-0.10770000000000013,-5.762119124350295
-0.10870000000000024,-5.820122287644761
-0.10970000000000013,-5.893687275237743
-0.11070000000000024,-5.955934572431804
-0.11170000000000013,-6.009693601826676
-0.11270000000000002,-6.070526187720873
-0.11370000000000013,-6.145505886613719
-0.11470000000000002,-6.186532514309805
-0.11570000000000014,-6.245950388904137
-0.11670000000000003,-6.311027108697928
-0.11770000000000014,-6.349224313794284
-0.11870000000000003,-6.393080364090101
-0.11970000000000014,-6.458157083883892
-0.12070000000000003,-6.497769000280114
-0.12170000000000014,-6.533136782776739
-0.12270000000000003,-6.585481100871745
-0.12370000000000014,-6.634995996367022
-0.12470000000000003,-6.660460799764593
-0.12570000000000014,-6.698658004860949
-0.12670000000000003,-6.75241703425582
-0.12770000000000015,-6.780711260253121
-0.12870000000000004,-6.811834908850152
-0.12970000000000015,-6.861349804345428
-0.13070000000000004,-6.895302875542188
-0.13170000000000015,-6.920767678939759
-0.13270000000000004,-6.9646237292355755
-0.13370000000000015,-7.008479779531392
-0.13470000000000004,-7.025456315129772
-0.13570000000000015,-7.0565799637268025
-0.13670000000000004,-7.106094859222079
-0.13770000000000016,-7.125900817420191
-0.13870000000000005,-7.15136562081776
-0.13970000000000016,-7.200880516313037
-0.14070000000000005,-7.230589453610202
-0.14170000000000016,-7.250395411808314
-0.14270000000000005,-7.287177905604803
-0.14370000000000016,-7.331033955900621
-0.14470000000000005,-7.342351646299541
-0.14570000000000016,-7.3777194287961665
-0.14670000000000005,-7.418746056492251
-0.14770000000000016,-7.439966725990228
-0.14870000000000005,-7.462602106788069
-0.14970000000000017,-7.507872868383751
-0.15070000000000006,-7.5418259395805105
-0.15170000000000017,-7.563046609078486
-0.15270000000000006,-7.6069026593743025
-0.15370000000000017,-7.646514575770523
-0.15470000000000006,-7.6663205339686336
-0.15570000000000017,-7.70168831646526
-0.15670000000000006,-7.749788500660671
-0.15770000000000017,-7.775253304058242
-0.15870000000000006,-7.803547530055542
-0.15970000000000018,-7.8502330029510885
-0.16070000000000007,-7.8771125176485235
-0.16170000000000018,-7.9025773210460954
-0.16270000000000007,-7.942189237442316
-0.16370000000000018,-7.9888747103378615
-0.16470000000000007,-8.017168936335162
-0.16570000000000018,-8.051122007531923
-0.16670000000000007,-8.100636903027201
-0.16770000000000018,-8.124686995124907
-0.16870000000000007,-8.154395932422071
-0.16970000000000018,-8.208154961816943
-0.17070000000000007,-8.233619765214515
-0.17170000000000019,-8.267572836411274
-0.17270000000000008,-8.311428886707091
-0.1737000000000002,-8.35669964830277
-0.17470000000000008,-8.380749740400477
-0.1757000000000002,-8.418946945496833
-0.17670000000000008,-8.469876552291973
-0.1777000000000002,-8.503829623488736
-0.17870000000000008,-8.533538560785903
-0.1797000000000002,-8.588712301480637
-0.18070000000000008,-8.626909506576993
-0.1817000000000002,-8.652374309974565
-0.18270000000000008,-8.701889205469842
-0.1837000000000002,-8.745745255765657
-0.1847000000000001,-8.771210059163227
-0.1857000000000002,-8.80799255295972
-0.1867000000000001,-8.877313406653105
-0.1877000000000002,-8.908437055250136
-0.1887000000000001,-8.949463682946222
-0.1897000000000002,-9.011710980140284
-0.1907000000000001,-9.0555670304361
-0.1917000000000001,-9.083861256433401
-0.19269999999999998,-9.146108553627464
-0.1937000000000001,-9.205526428221793
-0.19469999999999998,-9.232405942919229
-0.1957000000000001,-9.28899439491383
-0.19669999999999999,-9.354071114707622
-0.1977000000000001,-9.39792716500344
-0.1987,-9.447442060498714
-0.1997000000000001,-9.508274646392913
-0.2007,-9.556374830588323
-0.2017000000000001,-9.593157324384812
-0.2027,-9.65116048767928
-0.2037000000000001,-9.717651918772937
-0.2047,-9.753019701269562
-0.2057000000000001,-9.80536401936457
-0.2067,-9.883173140857146
-0.2077000000000001,-9.928443902452829
-0.2087,-9.973714664048508
-0.2097000000000001,-10.044450229041761
-0.2107,-10.096794547136765
-0.2117000000000001,-10.144894731332178
-0.2127,-10.212800873725701
-0.2137000000000001,-10.284951150018816
-0.2147,-10.337295468113824
-0.2157000000000001,-10.419348723505994
-0.2167,-10.492913711098977
-0.21770000000000012,-10.538184472694656
-0.2187,-10.596187635989125
-0.21970000000000012,-10.683899736580756
-0.2207,-10.744732322474952
-0.22170000000000012,-10.805564908369151
-0.2227,-10.881959318561863
-0.22370000000000012,-10.966841996553764
-0.2247,-11.020601025948634
-0.22570000000000012,-11.094166013541617
-0.2267,-11.174804557633923
-0.22770000000000012,-11.24129598872758
-0.22870000000000001,-11.312031553720834
-0.22970000000000013,-11.406817210811791
-0.23070000000000002,-11.488870466203963
-0.23170000000000013,-11.553947185997753
-0.23270000000000002,-11.641659286589386
-0.23370000000000013,-11.73503023238048
-0.23470000000000002,-11.804351086073867
-0.23570000000000013,-11.896307320565093
-0.23670000000000002,-11.992507688955916
-0.2376999999999999,-12.066072676548897
-0.23870000000000002,-12.15378477714053
-0.2396999999999999,-12.261302835930273
-0.24070000000000003,-12.354673781721367
-0.24169999999999991,-12.440971171013134
-0.24270000000000003,-12.537171539403955
-0.24369999999999992,-12.647519020793428
-0.24470000000000003,-12.728157564885736
-0.24569999999999992,-12.824357933276557
-0.24670000000000003,-12.94036425986549
-0.24769999999999992,-13.036564628256313
-0.24870000000000003,-13.137009130546732
-0.24969999999999992,-13.261503724934855
-0.25070000000000003,-13.360533515925406
-0.2516999999999999,-13.455319173016363
-0.25270000000000004,-13.568496077005566
-0.2536999999999999,-13.690161248793961
-0.25470000000000004,-13.790605751084376
-0.2556999999999999,-13.909441500273042
-0.25670000000000004,-14.04383907376022
-0.25769999999999993,-14.161260111649016
-0.25870000000000004,-14.274437015638219
-0.25969999999999993,-14.430055258623375
-0.26070000000000004,-14.543232162612577
-0.26169999999999993,-14.67055617960043
-0.26270000000000004,-14.812027309586934
-0.26369999999999993,-14.953498439573437
-0.26470000000000005,-15.080822456561293
-0.26569999999999994,-15.208146473549144
-0.26670000000000005,-15.37791182953295
-0.26769999999999994,-15.505235846520803
-0.26870000000000005,-15.632559863508657
-0.26969999999999994,-15.802325219492458
-0.27070000000000005,-15.943796349478962
-0.27169999999999994,-16.071120366466815
-0.27270000000000005,-16.22673860945197
-0.27369999999999994,-16.396503965435777
-0.27470000000000006,-16.53797509542228
-0.27569999999999995,-16.70774045140608
-0.27670000000000006,-16.877505807389888
-0.27769999999999995,-17.03312405037504
-0.27870000000000006,-17.20288940635885
-0.27969999999999995,-17.386801875341302
-0.28070000000000006,-17.570714344323754
-0.28169999999999995,-17.74047970030756
-0.28270000000000006,-17.938539282288666
-0.28369999999999995,-18.13659886426977
-0.28470000000000006,-18.306364220253574
-0.28569999999999995,-18.504423802234676
-0.28670000000000007,-18.716630497214435
-0.28769999999999996,-18.91469007919554
-0.28870000000000007,-19.112749661176647
-0.28969999999999996,-19.339103469155052
-0.29070000000000007,-19.537163051136158
-0.29169999999999996,-19.749369746115914
-0.29270000000000007,-19.97572355409432
-0.29369999999999996,-20.21622447507137
-0.2947000000000001,-20.414284057052477
-0.29569999999999996,-20.640637865030882
-0.2967000000000001,-20.881138786007945
-0.29769999999999996,-21.107492593986347
-0.2987000000000001,-21.333846401964752
-0.29969999999999997,-21.602641548939108
-0.3007000000000001,-21.843142469916167
-0.30169999999999997,-22.083643390893226
-0.3027000000000001,-22.352438537867577
-0.30369999999999997,-22.63538079784059
-0.3047000000000001,-22.890028831816295
-0.30569999999999997,-23.15882397879065
-0.3067000000000001,-23.45591335176231
-0.3077,-23.710561385738018
-0.3087000000000001,-23.97935653271237
-0.3097,-24.27644590568403
-0.3107000000000001,-24.57353527865569
-0.3117,-24.870624651627345
-0.3127000000000001,-25.18186113759765
-0.3137,-25.507244736566612
-0.3147000000000001,-25.81848122253692
-0.3157,-26.14386482150588
-0.3167000000000001,-26.483395533473487
-0.3177,-26.794632019443796
-0.3187000000000001,-27.1058685054141
-0.3197,-27.445399217381713
-0.3207000000000001,-27.770782816350668
-0.3217,-28.09616641531963
-0.3227000000000001,-28.44984424028589
-0.3237,-28.8176691782508
-0.3247000000000001,-29.157199890218404
-0.3257,-29.539171941181966
-0.3267000000000001,-29.921143992145527
-0.3277,-30.288968930110435
-0.3287000000000001,-30.656793868075347
-0.3297,-31.052913032037555
-0.3307000000000001,-31.434885083001117
-0.3317,-31.816857133964678
-0.3327000000000001,-32.19882918492823
-0.3337,-32.6090954618891
-0.3347000000000001,-32.97692039985401
-0.3357,-33.373039563816214
-0.3367000000000001,-33.79745295377573
-0.3377,-34.207719230736586
-0.3387000000000001,-34.61798550769744
-0.3397,-35.07069312365426
-0.3407000000000001,-35.48095940061512
-0.3417,-35.89122567757598
-0.3427000000000001,-36.329786180534136
-0.3437,-36.768346683492304
-0.3447000000000001,-37.178612960453165
-0.3457,-37.617173463411326
-0.3467000000000001,-38.06988107936814
-0.3477,-38.480147356329
-0.3487000000000001,-38.90456074628851
-0.3497,-39.35726836224533
-0.3507000000000001,-39.78168175220483
-0.3517,-40.24853648116029
-0.3527000000000001,-40.701244097117105
-0.3537,-41.182245939071215
-0.3547000000000001,-41.606659329030734
-0.3557,-42.04521983198889
-0.35670000000000013,-42.51207456094435
-0.3577,-42.96478217690117
-0.35870000000000013,-43.41748979285798
-0.3597,-43.88434452181344
-0.36070000000000013,-44.36534636376755
-0.3617,-44.81805397972436
-0.3626999999999999,-45.28490870867982
-0.3637,-45.75176343763528
-0.3646999999999999,-46.19032394059345
-0.3657,-46.65717866954891
-0.3666999999999999,-47.13818051150302
-0.3677,-47.590888127459834
-0.3686999999999999,-48.071889969413945
-0.36970000000000003,-48.567038924366706
-0.3706999999999999,-49.04804076632082
-0.37170000000000003,-49.514895495276285
-0.3726999999999999,-49.995897337230396
-0.37370000000000003,-50.448604953187214
-0.3746999999999999,-50.90131256914402
-0.37570000000000003,-51.36816729809948
-0.3766999999999999,-51.86331625305225
-0.37770000000000004,-52.33017098200771
-0.3786999999999999,-52.81117282396182
-0.37970000000000004,-53.32046889191324
-0.3806999999999999,-53.80147073386735
-0.38170000000000004,-54.2966196888201
-0.38269999999999993,-54.80591575677152
-0.38370000000000004,-55.31521182472294
-0.38469999999999993,-55.8103607796757
-0.38570000000000004,-56.333803960625765
-0.38669999999999993,-56.03671458765411
-0.38570000000000004,-55.018122451751275
-0.38469999999999993,-54.1551485588336
-0.38370000000000004,-53.362910230909186
-0.38269999999999993,-52.58481901598341
-0.38170000000000004,-51.792580688059
-0.3806999999999999,-51.05693081212917
-0.37970000000000004,-50.32128093619935
-0.3786999999999999,-49.58563106026953
-0.37770000000000004,-48.87827541033702
-0.3766999999999999,-48.1992139864018
-0.37570000000000003,-47.506005449467935
-0.3746999999999999,-46.81279691253406
-0.37370000000000003,-46.176176827594794
-0.3726999999999999,-45.51126251665823
-0.37170000000000003,-44.84634820572166
-0.3706999999999999,-44.223875233781044
-0.36970000000000003,-43.58725514884178
-0.3686999999999999,-42.95063506390252
-0.3677,-42.34230920496055
-0.3666999999999999,-41.76227757201589
-0.3657,-41.139804600075266
-0.3646999999999999,-40.531478741133306
-0.3637,-39.95144710818864
-0.3626999999999999,-39.37141547524397
-0.3617,-38.791383842299304
-0.36070000000000013,-38.22549932235329
-0.3597,-37.659614802407276
-0.35870000000000013,-37.06543605646396
-0.3577,-36.49955153651795
-0.35670000000000013,-35.96196124256923
-0.3557,-35.41022383562187
-0.3547000000000001,-34.85848642867451
-0.3537,-34.33504324772444
-0.3527000000000001,-33.783305840777075
-0.3517,-33.231568433829715
-0.3507000000000001,-32.70812525287965
-0.3497,-32.19882918492823
-0.3487000000000001,-31.661238890979522
-0.3477,-31.151942823028104
-0.3467000000000001,-30.656793868075347
-0.3457,-30.13335068712528
-0.3447000000000001,-29.63820173217252
-0.3437,-29.157199890218404
-0.3427000000000001,-28.647903822266994
-0.3417,-28.15275486731423
-0.3407000000000001,-27.671753025360115
-0.3397,-27.204898296404657
-0.3387000000000001,-26.723896454450543
-0.3377,-26.257041725495082
-0.3367000000000001,-25.80433410953827
-0.3357,-25.337479380582806
-0.3347000000000001,-24.870624651627345
-0.3337,-24.432064148669184
-0.3327000000000001,-23.97935653271237
-0.3317,-23.526648916755562
-0.3307000000000001,-23.088088413797397
-0.3297,-22.649527910839236
-0.3287000000000001,-22.210967407881075
-0.3277,-21.786554017921564
-0.3267000000000001,-21.376287740960702
-0.3257,-20.95187435100119
-0.3247000000000001,-20.52746096104168
-0.3237,-20.13134179707947
-0.3227000000000001,-19.73522263311726
-0.3217,-19.31080924315775
-0.3207000000000001,-18.92883719219419
-0.3197,-18.546865141230633
-0.3187000000000001,-18.13659886426977
-0.3177,-17.75462681330621
-0.3167000000000001,-17.40094898833995
-0.3157,-17.018976937376394
-0.3147000000000001,-16.665299112410132
-0.3137,-16.311621287443874
-0.3127000000000001,-15.943796349478962
-0.3117,-15.561824298515406
-0.3107000000000001,-15.222293586547794
-0.3097,-14.882762874580186
-0.3087000000000001,-14.514937936615278
-0.3077,-14.175407224647667
-0.3067000000000001,-13.861341316077631
-0.30569999999999997,-13.50766349111137
-0.3047000000000001,-13.168132779143761
-0.30369999999999997,-12.854066870573723
-0.3027000000000001,-12.53009798290463
-0.30169999999999997,-12.204714383935672
-0.3007000000000001,-11.899136743164824
-0.29969999999999997,-11.590729679794245
-0.2987000000000001,-11.275249059924343
-0.29769999999999996,-10.969671419153494
-0.2967000000000001,-10.685314447880621
-0.29569999999999996,-10.393883920108426
-0.2947000000000001,-10.096794547136765
-0.29369999999999996,-9.82799940016241
-0.29270000000000007,-9.540813006289808
-0.29169999999999996,-9.24938247851761
-0.29070000000000007,-8.989075599342444
-0.28969999999999996,-8.72169516366795
-0.28870000000000007,-8.452900016693595
-0.28769999999999996,-8.195422560118157
-0.28670000000000007,-7.946433371341912
-0.28569999999999995,-7.681882358267148
-0.28470000000000006,-7.4244049016917115
-0.28369999999999995,-7.186733403314386
-0.28270000000000006,-6.94623248233733
-0.28169999999999995,-6.6958285822612185
-0.28070000000000006,-6.462401217783487
-0.27969999999999995,-6.244535677604272
-0.27870000000000006,-5.99413177752816
-0.27769999999999995,-5.772022103449349
-0.27670000000000006,-5.564059542369189
-0.27569999999999995,-5.3306321778914585
-0.27470000000000006,-5.118425482911703
-0.27369999999999994,-4.913292344431272
-0.27270000000000005,-4.695426804252056
-0.27169999999999994,-4.481805397972437
-0.27070000000000005,-4.286575238591061
-0.26969999999999994,-4.09275979050955
-0.26870000000000005,-3.8791383842299307
-0.26769999999999994,-3.6824935135486903
-0.26670000000000005,-3.4985810445662353
