Potential V vs RHE, Current mA cm-2
0.013299999999999867,-0.14387613919627423
0.012299999999999978,-0.3320327420783241
0.011299999999999866,-0.44167286781786447
0.010299999999999976,-0.5254237767698746
0.009299999999999864,-0.6009693601826676
0.008299999999999974,-0.671846396305906
0.007299999999999862,-0.7418746056492252
0.006299999999999972,-0.8107710459526526
0.00529999999999986,-0.8772624770463092
0.0042999999999999705,-0.9434709658799929
0.0032999999999998586,-1.0069915032439332
0.0022999999999999687,-1.0700876272179138
0.0012999999999998568,-1.127241963732461
0.00029999999999996696,-1.177747157137643
-0.000700000000000145,-1.2274035237629057
-0.0017000000000000348,-1.2726742853585868
-0.0027000000000001467,-1.3175206335643086
-0.0037000000000000366,-1.3581228478704352
-0.0047000000000001485,-1.3951882839268992
-0.005700000000000038,-1.4288584128636872
-0.00670000000000015,-1.462811484060448
-0.00770000000000004,-1.4925204213576138
-0.008700000000000152,-1.5208146473549145
-0.009700000000000042,-1.54769416205235
-0.010700000000000154,-1.5717442541500557
-0.011700000000000044,-1.5943796349478963
-0.012700000000000156,-1.6198444383454669
-0.013700000000000045,-1.6410651078434426
-0.014700000000000157,-1.6651151999411482
-0.015700000000000047,-1.6835064468393939
-0.01670000000000016,-1.7061418276372344
-0.01770000000000005,-1.72736249713521
-0.01870000000000016,-1.7429243214337253
-0.01970000000000005,-1.7613155683319706
-0.020700000000000163,-1.778292103930351
-0.021700000000000053,-1.7924392169290013
-0.022700000000000164,-1.8122451751271118
-0.023700000000000054,-1.8278069994256272
-0.024700000000000166,-1.8405394011244125
-0.025700000000000056,-1.857515936722793
-0.026700000000000168,-1.8688336271217136
-0.027700000000000058,-1.884395451420229
-0.02870000000000017,-1.895713141819149
-0.02970000000000006,-1.9070308322180693
-0.03070000000000017,-1.9197632339168547
-0.03170000000000006,-1.9296662130159101
-0.03270000000000017,-1.9423986147146954
-0.03370000000000006,-1.9523015938137507
-0.034700000000000175,-1.9579604390132106
-0.035700000000000065,-1.9664487068124006
-0.03670000000000018,-1.9763516859114565
-0.03770000000000007,-1.9862546650105113
-0.03870000000000018,-1.9975723554094316
-0.03970000000000007,-2.001816489309027
-0.04070000000000018,-2.0103047571082175
-0.04170000000000007,-2.020207736207272
-0.04270000000000018,-2.0244518701068674
-0.04370000000000007,-2.0315254266061924
-0.044700000000000184,-2.038598983105518
-0.045700000000000074,-2.042843117005113
-0.046700000000000186,-2.052746096104168
-0.047700000000000076,-2.0584049413036287
-0.04870000000000019,-2.0668932091028185
-0.04970000000000008,-2.072552054302279
-0.05070000000000019,-2.076796188201874
-0.05170000000000008,-2.0866991673009294
-0.05270000000000019,-2.0937727238002544
-0.05370000000000008,-2.0994315689997145
-0.05470000000000019,-2.1065051254990395
-0.05570000000000008,-2.110749259398635
-0.056700000000000195,-2.1192375271978254
-0.057700000000000085,-2.127725794997015
-0.058700000000000196,-2.1347993514963406
-0.059700000000000086,-2.1404581966958003
-0.0607000000000002,-2.1447023305953956
-0.06170000000000009,-2.156020020994316
-0.0627000000000002,-2.1645082887935065
-0.06370000000000009,-2.1687524226931014
-0.0647000000000002,-2.174411267892561
-0.06570000000000009,-2.1800701130920217
-0.0667000000000002,-2.1885583808912115
-0.0677000000000001,-2.197046648690402
-0.0687000000000002,-2.205534916489592
-0.0697000000000001,-2.208364339089322
-0.07070000000000021,-2.215437895588648
-0.0717000000000001,-2.2239261633878376
-0.07270000000000021,-2.229585008587298
-0.0737000000000001,-2.2394879876863527
-0.07470000000000021,-2.2451468328858133
-0.0757000000000001,-2.250805678085273
-0.07670000000000021,-2.2621233684841937
-0.0777000000000001,-2.2677822136836534
-0.07870000000000021,-2.2776851927827093
-0.0797000000000001,-2.2819293266823037
-0.08070000000000022,-2.2890028831816296
-0.0817000000000001,-2.298905862280684
-0.08270000000000022,-2.3045647074801447
-0.08370000000000011,-2.3144676865791998
-0.08470000000000022,-2.3201265317786604
-0.08570000000000011,-2.3272000882779853
-0.08670000000000022,-2.3356883560771755
-0.08770000000000011,-2.3441766238763657
-0.08870000000000022,-2.352664891675556
-0.08970000000000011,-2.362567870774611
-0.09070000000000022,-2.3653972933743415
-0.09170000000000011,-2.3753002724733965
-0.09270000000000023,-2.382373828972722
-0.09370000000000012,-2.3908620967719116
-0.09470000000000023,-2.3979356532712375
-0.09570000000000012,-2.4035944984706976
-0.09670000000000023,-2.4134974775697526
-0.09770000000000012,-2.4234004566688077
-0.09870000000000023,-2.4290593018682682
-0.09970000000000012,-2.437547569667458
-0.10070000000000023,-2.4432064148669186
-0.10170000000000012,-2.4531093939659736
-0.10270000000000024,-2.461597661765164
-0.10370000000000013,-2.468671218264489
-0.10470000000000024,-2.475744774763814
-0.10570000000000013,-2.4828183312631396
-0.10670000000000024,-2.4898918877624645
-0.10770000000000013,-2.5012095781613843
-0.10870000000000024,-2.509697845960575
-0.10970000000000013,-2.518186113759765
-0.11070000000000024,-2.5252596702590906
-0.11170000000000013,-2.533747938058281
-0.11270000000000002,-2.543650917157336
-0.11370000000000013,-2.552139184956526
-0.11470000000000002,-2.5592127414558514
-0.11570000000000014,-2.5648715866553116
-0.11670000000000003,-2.5733598544545018
-0.11770000000000014,-2.583262833553557
-0.11870000000000003,-2.5945805239524775
-0.11970000000000014,-2.600239369151937
-0.12070000000000003,-2.6087276369511274
-0.12170000000000014,-2.6200453273500477
-0.12270000000000003,-2.627118883849373
-0.12370000000000014,-2.637021862948428
-0.12470000000000003,-2.6426807081478887
-0.12570000000000014,-2.6511689759470785
-0.12670000000000003,-2.661071955046134
-0.12770000000000015,-2.6723896454450546
-0.12870000000000004,-2.6822926245441097
-0.12970000000000015,-2.6907808923433
-0.13070000000000004,-2.69926916014249
-0.13170000000000015,-2.7105868505414104
-0.13270000000000004,-2.719075118340601
-0.13370000000000015,-2.7289780974396556
-0.13470000000000004,-2.737466365238846
-0.13570000000000015,-2.745954633038036
-0.13670000000000004,-2.7572723234369563
-0.13770000000000016,-2.770004725135742
-0.13870000000000005,-2.778492992934932
-0.13970000000000016,-2.785566549434257
-0.14070000000000005,-2.7968842398331777
-0.14170000000000016,-2.8096166415319628
-0.14270000000000005,-2.820934331930883
-0.14370000000000016,-2.8294225997300737
-0.14470000000000005,-2.8393255788291283
-0.14570000000000016,-2.8506432692280486
-0.14670000000000005,-2.8605462483271045
-0.14770000000000016,-2.874693361325755
-0.14870000000000005,-2.8845963404248094
-0.14970000000000017,-2.8944993195238653
-0.15070000000000006,-2.9044022986229203
-0.15170000000000017,-2.9143052777219753
-0.15270000000000006,-2.9298671020204905
-0.15370000000000017,-2.945428926319006
-0.15470000000000006,-2.9539171941181968
-0.15570000000000017,-2.9666495958169823
-0.15670000000000006,-2.9807967088156326
-0.15770000000000017,-2.9935291105144173
-0.15870000000000006,-3.006261512213203
-0.15970000000000018,-3.0161644913122583
-0.16070000000000007,-3.028896893011044
-0.16170000000000018,-3.047288139909289
-0.16270000000000007,-3.0600205416080746
-0.16370000000000018,-3.07841178850632
-0.16470000000000007,-3.09255890150497
-0.16570000000000018,-3.1024618806040256
-0.16670000000000007,-3.1180237049025408
-0.16770000000000018,-3.1321708179011907
-0.16870000000000007,-3.1491473534995715
-0.16970000000000018,-3.166123889097952
-0.17070000000000007,-3.178856290796737
-0.17170000000000019,-3.1972475376949827
-0.17270000000000008,-3.214224073293363
-0.1737000000000002,-3.228371186292014
-0.17470000000000008,-3.2453477218903943
-0.1757000000000002,-3.2623242574887747
-0.17670000000000008,-3.2821302156868852
-0.1777000000000002,-3.3019361738849957
-0.17870000000000008,-3.3189127094833766
-0.1797000000000002,-3.3387186676814866
-0.18070000000000008,-3.355695203279867
-0.1817000000000002,-3.3769158727778423
-0.18270000000000008,-3.3995512535756833
-0.1837000000000002,-3.4193572117737934
-0.1847000000000001,-3.439163169971904
-0.1857000000000002,-3.4617985507697444
-0.1867000000000001,-3.4844339315675854
-0.1877000000000002,-3.509898734965156
-0.1887000000000001,-3.5311194044631313
-0.1897000000000002,-3.553754785260972
-0.1907000000000001,-3.5778048773586777
-0.1917000000000001,-3.6004402581565187
-0.19269999999999998,-3.630149195453684
-0.1937000000000001,-3.65702871015112
-0.19469999999999998,-3.678249379649095
-0.1957000000000001,-3.707958316946261
-0.19669999999999999,-3.7362525429435625
-0.1977000000000001,-3.764546768940863
-0.1987,-3.795670417537894
-0.1997000000000001,-3.821135220935464
-0.2007,-3.852258869532495
-0.2017000000000001,-3.884797229429391
-0.2027,-3.915920878026421
-0.2037000000000001,-3.9512886605230477
-0.2047,-3.982412309120079
-0.2057000000000001,-4.01636538031684
-0.2067,-4.051733162813465
-0.2077000000000001,-4.08710094531009
-0.2087,-4.125298150406447
-0.2097000000000001,-4.160665932903073
-0.2107,-4.197448426699564
-0.2117000000000001,-4.238475054395651
-0.2127,-4.279501682091736
-0.2137000000000001,-4.317698887188092
-0.2147,-4.358725514884178
-0.2157000000000001,-4.40399627647986
-0.2167,-4.45209646067527
-0.21770000000000012,-4.4973672222709515
-0.2187,-4.538393849967037
-0.21970000000000012,-4.585079322862584
-0.2207,-4.631764795758129
-0.22170000000000012,-4.679864979953542
-0.2227,-4.732209298048548
-0.22370000000000012,-4.7803094822439585
-0.2247,-4.832653800338965
-0.22570000000000012,-4.886412829733837
-0.2267,-4.941586570428573
-0.22770000000000012,-4.998175022423175
-0.22870000000000001,-5.059007608317371
-0.22970000000000013,-5.114181349012108
-0.23070000000000002,-5.172184512306574
-0.23170000000000013,-5.23301709820077
-0.23270000000000002,-5.2980938179945625
-0.23370000000000013,-5.361755826488489
-0.23470000000000002,-5.425417834982416
-0.23570000000000013,-5.490494554776207
-0.23670000000000002,-5.5598154084695945
-0.2376999999999999,-5.630550973462847
-0.23870000000000002,-5.702701249755963
-0.2396999999999999,-5.773436814749215
-0.24070000000000003,-5.847001802342197
-0.24169999999999991,-5.926225635134639
-0.24270000000000003,-6.00262004532735
-0.24369999999999992,-6.081843878119792
-0.24470000000000003,-6.1624824222121
-0.24569999999999992,-6.244535677604272
-0.24670000000000003,-6.333662489495769
-0.24769999999999992,-6.418545167487672
-0.24870000000000003,-6.506257268079304
-0.24969999999999992,-6.598213502570531
-0.25070000000000003,-6.678852046662837
-0.2516999999999999,-6.779296548953256
-0.25270000000000004,-6.881155762543538
-0.2536999999999999,-6.980185553534091
-0.25470000000000004,-7.086288901023969
-0.2556999999999999,-7.188148114614252
-0.25670000000000004,-7.295666173403994
-0.25769999999999993,-7.406013654793467
-0.25870000000000004,-7.510702290983478
-0.25969999999999993,-7.625293906272548
-0.26070000000000004,-7.746959078060941
-0.26169999999999993,-7.87286838374893
-0.26270000000000004,-7.9945335555373225
-0.26369999999999993,-8.117613438625579
-0.26470000000000005,-8.250596300812894
-0.26569999999999994,-8.383579163000208
-0.26670000000000005,-8.526465004286575
-0.26769999999999994,-8.66793613427308
-0.26870000000000005,-8.810821975559447
-0.26969999999999994,-8.956537239445547
-0.27070000000000005,-9.109326059830972
-0.27169999999999994,-9.26635901411599
-0.27270000000000005,-9.430465524900336
-0.27369999999999994,-9.593157324384812
-0.27470000000000006,-9.760093257768888
-0.27569999999999995,-9.934102747652288
-0.27670000000000006,-10.112356371435283
-0.27769999999999995,-10.293439417818007
-0.27870000000000006,-10.478766598100327
-0.27969999999999995,-10.66550848968251
-0.28070000000000006,-10.860738649063887
-0.28169999999999995,-11.065871787544317
-0.28270000000000006,-11.276663771224207
-0.28369999999999995,-11.486041043604232
-0.28470000000000006,-11.692588893384528
-0.28569999999999995,-11.909039722263879
-0.28670000000000007,-12.135393530242286
-0.28769999999999996,-12.357503204321095
-0.28870000000000007,-12.593759991398557
-0.28969999999999996,-12.834260912375612
-0.29070000000000007,-13.08042067855213
-0.29169999999999996,-13.329409867328376
-0.29270000000000007,-13.581228478704354
-0.29369999999999996,-13.831632378780464
-0.2947000000000001,-14.09193925795563
-0.29569999999999996,-14.359319693630123
-0.2967000000000001,-14.642261953603128
-0.29769999999999996,-14.911057100577487
-0.2987000000000001,-15.193999360550496
-0.29969999999999997,-15.4769416205235
-0.3007000000000001,-15.759883880496508
-0.30169999999999997,-16.056973253468165
-0.3027000000000001,-16.368209739438473
-0.30369999999999997,-16.679446225408782
-0.3047000000000001,-16.99068271137909
-0.30569999999999997,-17.301919197349395
-0.3067000000000001,-17.627302796318357
-0.3077,-17.952686395287316
-0.3087000000000001,-18.27806999425627
-0.3097,-18.603453593225233
-0.3107000000000001,-18.95713141819149
-0.3117,-19.296662130159103
-0.3127000000000001,-19.664487068124007
-0.3137,-20.01816489309027
-0.3147000000000001,-20.357695605057877
-0.3157,-20.72552054302279
-0.3167000000000001,-21.093345480987697
-0.3177,-21.461170418952605
-0.3187000000000001,-21.857289582914817
-0.3197,-22.267555859875678
-0.3207000000000001,-22.67782213683654
-0.3217,-23.073941300798747
-0.3227000000000001,-23.45591335176231
-0.3237,-23.852032515724517
-0.3247000000000001,-24.27644590568403
-0.3257,-24.71500640864219
-0.3267000000000001,-25.1394197986017
-0.3277,-25.549686075562565
-0.3287000000000001,-26.002393691519377
-0.3297,-26.469248420474838
-0.3307000000000001,-26.907808923433
-0.3317,-27.34636942639116
-0.3327000000000001,-27.78492992934932
-0.3337,-28.251784658304786
-0.3347000000000001,-28.732786500258893
-0.3357,-29.213788342213007
-0.3367000000000001,-29.68064307116847
-0.3377,-30.147497800123933
-0.3387000000000001,-30.642646755076694
-0.3397,-31.12364859703081
-0.3407000000000001,-31.618797551983565
-0.3417,-32.11394650693633
-0.3427000000000001,-32.6090954618891
-0.3437,-33.11839152984051
-0.3447000000000001,-33.64183471079057
-0.3457,-34.16527789174064
-0.3467000000000001,-34.702868185689354
-0.3477,-35.240458479638065
-0.3487000000000001,-35.778048773586775
-0.3497,-36.329786180534136
-0.3507000000000001,-36.8532293614842
-0.3517,-37.376672542434264
-0.3527000000000001,-37.88596861038568
-0.3537,-38.46600024333035
-0.3547000000000001,-39.046031876275016
-0.3557,-39.61191639622103
-0.35670000000000013,-40.163653803168394
-0.3577,-40.75783254911171
-0.35870000000000013,-41.30956995605907
-0.3597,-41.87545447600508
-0.36070000000000013,-42.497927447945706
-0.3617,-43.106253306887666
-0.3626999999999999,-43.71457916582963
-0.3637,-44.3511992507689
-0.3646999999999999,-44.97367222270952
-0.3657,-45.581998081651484
-0.3666999999999999,-46.19032394059345
-0.3677,-46.84109113853137
-0.3686999999999999,-47.449416997473335
-0.36970000000000003,-48.071889969413945
-0.3706999999999999,-48.73680428035051
-0.37170000000000003,-49.41586570428573
-0.3726999999999999,-50.094927128220945
-0.37370000000000003,-50.73154721316022
-0.3746999999999999,-51.396461524096786
-0.37570000000000003,-52.075522948032
-0.3766999999999999,-52.76873148496586
-0.37770000000000004,-53.433645795902436
-0.3786999999999999,-54.1268543328363
-0.37970000000000004,-54.834209982768826
-0.3806999999999999,-55.527418519702685
-0.38170000000000004,-56.23477416963521
-0.38269999999999993,-56.98457115856368
-0.38370000000000004,-57.73436814749215
-0.38469999999999993,-58.427576684426015
-0.38570000000000004,-59.13493233435853
-0.38669999999999993,-59.20566789935179
-0.38570000000000004,-58.583194927411164
-0.38469999999999993,-57.93242772947325
-0.38370000000000004,-57.33824898352994
-0.38269999999999993,-56.72992312458797
-0.38170000000000004,-56.164038604641945
-0.3806999999999999,-55.56985985869864
-0.37970000000000004,-54.989828225753975
-0.3786999999999999,-54.35320814081471
-0.37770000000000004,-53.7307351688741
-0.3766999999999999,-53.12240930993213
-0.37570000000000003,-52.485789224992864
-0.3746999999999999,-51.83502202705494
-0.37370000000000003,-51.17010771611838
-0.3726999999999999,-50.53348763117911
-0.37170000000000003,-49.9110146592385
-0.3706999999999999,-49.27439457429922
-0.36970000000000003,-48.62362737636131
-0.3686999999999999,-47.972860178423396
-0.3677,-47.350387206482786
-0.3666999999999999,-46.74206134754081
-0.3657,-46.133735488598845
-0.3646999999999999,-45.51126251665823
-0.3637,-44.91708377071491
-0.3626999999999999,-44.3229050247716
-0.3617,-43.71457916582963
-0.36070000000000013,-43.106253306887666
-0.3597,-42.497927447945706
-0.35870000000000013,-41.90374870200238
-0.3577,-41.29542284306042
-0.35670000000000013,-40.75783254911171
-0.3557,-40.177800916167044
-0.3547000000000001,-39.59776928322238
-0.3537,-39.03188476327636
-0.3527000000000001,-38.4518531303317
-0.3517,-37.88596861038568
-0.3507000000000001,-37.32008409043967
-0.3497,-36.740052457495004
-0.3487000000000001,-36.16002082455034
-0.3477,-35.62243053060162
-0.3467000000000001,-35.08484023665291
-0.3457,-34.56139705570285
-0.3447000000000001,-34.03795387475279
-0.3437,-33.48621646780542
-0.3427000000000001,-32.96277328685535
-0.3417,-32.48177144490124
-0.3407000000000001,-31.94418115095253
-0.3397,-31.40659085700382
-0.3387000000000001,-30.8690005630551
-0.3377,-30.359704495103685
-0.3367000000000001,-29.878702653149578
-0.3357,-29.39770081119546
-0.3347000000000001,-28.9025518562427
-0.3337,-28.421550014288584
-0.3327000000000001,-27.940548172334477
-0.3317,-27.473693443379013
-0.3307000000000001,-26.992691601424898
-0.3297,-26.511689759470787
-0.3287000000000001,-26.058982143513976
-0.3277,-25.60627452755716
-0.3267000000000001,-25.153566911600354
-0.3257,-24.70085929564354
-0.3247000000000001,-24.262298792685378
-0.3237,-23.823738289727217
-0.3227000000000001,-23.399324899767706
-0.3217,-22.974911509808198
-0.3207000000000001,-22.550498119848687
-0.3197,-22.126084729889175
-0.3187000000000001,-21.701671339929664
-0.3177,-21.291405062968803
-0.3167000000000001,-20.90943301200524
-0.3157,-20.51331384804303
-0.3147000000000001,-20.10304757108217
-0.3137,-19.69278129412131
-0.3127000000000001,-19.31080924315775
-0.3117,-18.94298430519284
-0.3107000000000001,-18.57515936722793
-0.3097,-18.19318731626437
-0.3087000000000001,-17.825362378299463
-0.3077,-17.471684553333205
-0.3067000000000001,-17.118006728366943
-0.30569999999999997,-16.778476016399335
-0.3047000000000001,-16.424798191433077
-0.30369999999999997,-16.085267479465468
-0.3027000000000001,-15.74573676749786
-0.30169999999999997,-15.4203531685289
-0.3007000000000001,-15.094969569559943
-0.29969999999999997,-14.769585970590983
-0.2987000000000001,-14.458349484620674
-0.29769999999999996,-14.132965885651718
-0.2967000000000001,-13.82172939968141
-0.29569999999999996,-13.520395892810155
-0.2947000000000001,-13.221891808538631
-0.29369999999999996,-12.929046569466571
-0.29270000000000007,-12.636201330394508
-0.29169999999999996,-12.357503204321095
-0.29070000000000007,-12.068902099148628
-0.28969999999999996,-11.783130416575892
-0.28870000000000007,-11.503017579202615
-0.28769999999999996,-11.237051854827985
-0.28670000000000007,-10.97391555305309
-0.28569999999999995,-10.712193962578057
-0.28470000000000006,-10.453301794702757
-0.28369999999999995,-10.197239049427184
-0.28270000000000006,-9.949664571950803
-0.28169999999999995,-9.703504805774287
-0.28070000000000006,-9.45451561699804
-0.27969999999999995,-9.21259998472112
-0.27870000000000006,-8.962196084645006
-0.27769999999999995,-8.733012854066871
-0.27670000000000006,-8.503829623488736
-0.27569999999999995,-8.278890526810194
-0.27470000000000006,-8.053951430131654
-0.27369999999999994,-7.830427044752977
-0.27270000000000005,-7.609732081974033
-0.27169999999999994,-7.3975253869942765
-0.27070000000000005,-7.186733403314386
-0.26969999999999994,-6.973111997034766
-0.26870000000000005,-6.766564147254471
-0.26769999999999994,-6.557186874874445
