Aug. 22, 2024   06:33:41
Cyclic Voltammetry
File: c:/users/guazh/data/20240813_batch_94_500/2024-08-15-exp157\exp157-2024-08-22t06_26_14-arkoh\exp157_cv_sr_500mvs_efin_-1400mv.bin
Data Source:  Experiment
Instrument Model:  CHI760E
Header: CV ran at 500 mVs
Note: 

Init E (V) = -1
High E (V) = -1
Low E (V) = -1.4
Final E (V) = -1
Init P/N = N
Scan Rate (V/s) = 0.5
Segment = 3
Sample Interval (V) = 0.001
Quiet Time (sec) = 2
Sensitivity (A/V) = 0.01
Comp R (ohm) = 1.7

Results:

Channel 1:
Segment 1:

Segment 2:

Segment 3:

Potential/V, Current/A

-1.000, -5.226e-5
-1.001, -9.093e-6
-1.002, 2.174e-5
-1.003, 4.949e-5
-1.004, 7.107e-5
-1.005, 8.957e-5
-1.006, 1.081e-4
-1.007, 1.266e-4
-1.008, 1.420e-4
-1.009, 1.543e-4
-1.010, 1.666e-4
-1.011, 1.790e-4
-1.012, 1.913e-4
-1.013, 2.036e-4
-1.014, 2.129e-4
-1.015, 2.221e-4
-1.016, 2.345e-4
-1.017, 2.437e-4
-1.018, 2.530e-4
-1.019, 2.591e-4
-1.020, 2.684e-4
-1.021, 2.746e-4
-1.022, 2.838e-4
-1.023, 2.900e-4
-1.024, 2.992e-4
-1.025, 3.085e-4
-1.026, 3.177e-4
-1.027, 3.239e-4
-1.028, 3.300e-4
-1.029, 3.393e-4
-1.030, 3.455e-4
-1.031, 3.547e-4
-1.032, 3.640e-4
-1.033, 3.701e-4
-1.034, 3.794e-4
-1.035, 3.825e-4
-1.036, 3.886e-4
-1.037, 3.948e-4
-1.038, 4.010e-4
-1.039, 4.040e-4
-1.040, 4.102e-4
-1.041, 4.164e-4
-1.042, 4.225e-4
-1.043, 4.256e-4
-1.044, 4.318e-4
-1.045, 4.349e-4
-1.046, 4.410e-4
-1.047, 4.441e-4
-1.048, 4.503e-4
-1.049, 4.565e-4
-1.050, 4.595e-4
-1.051, 4.657e-4
-1.052, 4.719e-4
-1.053, 4.780e-4
-1.054, 4.811e-4
-1.055, 4.873e-4
-1.056, 4.935e-4
-1.057, 4.965e-4
-1.058, 5.027e-4
-1.059, 5.089e-4
-1.060, 5.120e-4
-1.061, 5.150e-4
-1.062, 5.181e-4
-1.063, 5.243e-4
-1.064, 5.274e-4
-1.065, 5.305e-4
-1.066, 5.366e-4
-1.067, 5.397e-4
-1.068, 5.428e-4
-1.069, 5.459e-4
-1.070, 5.489e-4
-1.071, 5.520e-4
-1.072, 5.551e-4
-1.073, 5.582e-4
-1.074, 5.613e-4
-1.075, 5.644e-4
-1.076, 5.674e-4
-1.077, 5.674e-4
-1.078, 5.705e-4
-1.079, 5.736e-4
-1.080, 5.767e-4
-1.081, 5.798e-4
-1.082, 5.829e-4
-1.083, 5.859e-4
-1.084, 5.890e-4
-1.085, 5.921e-4
-1.086, 5.921e-4
-1.087, 5.952e-4
-1.088, 5.983e-4
-1.089, 6.014e-4
-1.090, 6.044e-4
-1.091, 6.075e-4
-1.092, 6.137e-4
-1.093, 6.137e-4
-1.094, 6.199e-4
-1.095, 6.229e-4
-1.096, 6.229e-4
-1.097, 6.291e-4
-1.098, 6.291e-4
-1.099, 6.353e-4
-1.100, 6.384e-4
-1.101, 6.445e-4
-1.102, 6.445e-4
-1.103, 6.507e-4
-1.104, 6.538e-4
-1.105, 6.538e-4
-1.106, 6.599e-4
-1.107, 6.661e-4
-1.108, 6.723e-4
-1.109, 6.784e-4
-1.110, 6.815e-4
-1.111, 6.908e-4
-1.112, 6.969e-4
-1.113, 7.031e-4
-1.114, 7.093e-4
-1.115, 7.185e-4
-1.116, 7.247e-4
-1.117, 7.339e-4
-1.118, 7.463e-4
-1.119, 7.555e-4
-1.120, 7.648e-4
-1.121, 7.740e-4
-1.122, 7.863e-4
-1.123, 7.956e-4
-1.124, 8.079e-4
-1.125, 8.172e-4
-1.126, 8.264e-4
-1.127, 8.357e-4
-1.128, 8.418e-4
-1.129, 8.511e-4
-1.130, 8.573e-4
-1.131, 8.634e-4
-1.132, 8.696e-4
-1.133, 8.758e-4
-1.134, 8.850e-4
-1.135, 8.912e-4
-1.136, 8.973e-4
-1.137, 9.004e-4
-1.138, 9.066e-4
-1.139, 9.128e-4
-1.140, 9.158e-4
-1.141, 9.220e-4
-1.142, 9.282e-4
-1.143, 9.343e-4
-1.144, 9.343e-4
-1.145, 9.405e-4
-1.146, 9.436e-4
-1.147, 9.467e-4
-1.148, 9.528e-4
-1.149, 9.559e-4
-1.150, 9.621e-4
-1.151, 9.652e-4
-1.152, 9.683e-4
-1.153, 9.713e-4
-1.154, 9.744e-4
-1.155, 9.775e-4
-1.156, 9.837e-4
-1.157, 9.868e-4
-1.158, 9.898e-4
-1.159, 9.929e-4
-1.160, 9.960e-4
-1.161, 9.991e-4
-1.162, 1.002e-3
-1.163, 1.005e-3
-1.164, 1.008e-3
-1.165, 1.011e-3
-1.166, 1.018e-3
-1.167, 1.021e-3
-1.168, 1.024e-3
-1.169, 1.027e-3
-1.170, 1.030e-3
-1.171, 1.033e-3
-1.172, 1.033e-3
-1.173, 1.039e-3
-1.174, 1.042e-3
-1.175, 1.045e-3
-1.176, 1.048e-3
-1.177, 1.051e-3
-1.178, 1.055e-3
-1.179, 1.058e-3
-1.180, 1.061e-3
-1.181, 1.064e-3
-1.182, 1.067e-3
-1.183, 1.070e-3
-1.184, 1.073e-3
-1.185, 1.076e-3
-1.186, 1.079e-3
-1.187, 1.082e-3
-1.188, 1.085e-3
-1.189, 1.088e-3
-1.190, 1.092e-3
-1.191, 1.095e-3
-1.192, 1.101e-3
-1.193, 1.104e-3
-1.194, 1.107e-3
-1.195, 1.107e-3
-1.196, 1.113e-3
-1.197, 1.116e-3
-1.198, 1.119e-3
-1.199, 1.122e-3
-1.200, 1.125e-3
-1.201, 1.132e-3
-1.202, 1.132e-3
-1.203, 1.135e-3
-1.204, 1.138e-3
-1.205, 1.144e-3
-1.206, 1.147e-3
-1.207, 1.150e-3
-1.208, 1.153e-3
-1.209, 1.156e-3
-1.210, 1.162e-3
-1.211, 1.162e-3
-1.212, 1.169e-3
-1.213, 1.169e-3
-1.214, 1.175e-3
-1.215, 1.178e-3
-1.216, 1.181e-3
-1.217, 1.187e-3
-1.218, 1.187e-3
-1.219, 1.190e-3
-1.220, 1.193e-3
-1.221, 1.196e-3
-1.222, 1.203e-3
-1.223, 1.206e-3
-1.224, 1.209e-3
-1.225, 1.212e-3
-1.226, 1.221e-3
-1.227, 1.221e-3
-1.228, 1.227e-3
-1.229, 1.230e-3
-1.230, 1.233e-3
-1.231, 1.240e-3
-1.232, 1.240e-3
-1.233, 1.249e-3
-1.234, 1.252e-3
-1.235, 1.255e-3
-1.236, 1.261e-3
-1.237, 1.264e-3
-1.238, 1.270e-3
-1.239, 1.273e-3
-1.240, 1.277e-3
-1.241, 1.283e-3
-1.242, 1.289e-3
-1.243, 1.292e-3
-1.244, 1.298e-3
-1.245, 1.301e-3
-1.246, 1.304e-3
-1.247, 1.310e-3
-1.248, 1.314e-3
-1.249, 1.323e-3
-1.250, 1.326e-3
-1.251, 1.332e-3
-1.252, 1.338e-3
-1.253, 1.341e-3
-1.254, 1.347e-3
-1.255, 1.351e-3
-1.256, 1.360e-3
-1.257, 1.363e-3
-1.258, 1.369e-3
-1.259, 1.375e-3
-1.260, 1.381e-3
-1.261, 1.384e-3
-1.262, 1.391e-3
-1.263, 1.397e-3
-1.264, 1.403e-3
-1.265, 1.409e-3
-1.266, 1.415e-3
-1.267, 1.421e-3
-1.268, 1.431e-3
-1.269, 1.434e-3
-1.270, 1.440e-3
-1.271, 1.446e-3
-1.272, 1.455e-3
-1.273, 1.462e-3
-1.274, 1.468e-3
-1.275, 1.474e-3
-1.276, 1.483e-3
-1.277, 1.489e-3
-1.278, 1.495e-3
-1.279, 1.502e-3
-1.280, 1.511e-3
-1.281, 1.520e-3
-1.282, 1.526e-3
-1.283, 1.536e-3
-1.284, 1.542e-3
-1.285, 1.548e-3
-1.286, 1.557e-3
-1.287, 1.563e-3
-1.288, 1.573e-3
-1.289, 1.579e-3
-1.290, 1.588e-3
-1.291, 1.597e-3
-1.292, 1.606e-3
-1.293, 1.616e-3
-1.294, 1.622e-3
-1.295, 1.634e-3
-1.296, 1.640e-3
-1.297, 1.653e-3
-1.298, 1.662e-3
-1.299, 1.671e-3
-1.300, 1.680e-3
-1.301, 1.693e-3
-1.302, 1.702e-3
-1.303, 1.711e-3
-1.304, 1.721e-3
-1.305, 1.730e-3
-1.306, 1.742e-3
-1.307, 1.754e-3
-1.308, 1.764e-3
-1.309, 1.776e-3
-1.310, 1.785e-3
-1.311, 1.798e-3
-1.312, 1.810e-3
-1.313, 1.822e-3
-1.314, 1.832e-3
-1.315, 1.844e-3
-1.316, 1.859e-3
-1.317, 1.869e-3
-1.318, 1.884e-3
-1.319, 1.896e-3
-1.320, 1.909e-3
-1.321, 1.921e-3
-1.322, 1.933e-3
-1.323, 1.949e-3
-1.324, 1.964e-3
-1.325, 1.980e-3
-1.326, 1.995e-3
-1.327, 2.007e-3
-1.328, 2.020e-3
-1.329, 2.035e-3
-1.330, 2.050e-3
-1.331, 2.066e-3
-1.332, 2.084e-3
-1.333, 2.100e-3
-1.334, 2.115e-3
-1.335, 2.131e-3
-1.336, 2.149e-3
-1.337, 2.168e-3
-1.338, 2.183e-3
-1.339, 2.201e-3
-1.340, 2.217e-3
-1.341, 2.238e-3
-1.342, 2.254e-3
-1.343, 2.272e-3
-1.344, 2.291e-3
-1.345, 2.312e-3
-1.346, 2.331e-3
-1.347, 2.349e-3
-1.348, 2.374e-3
-1.349, 2.393e-3
-1.350, 2.414e-3
-1.351, 2.439e-3
-1.352, 2.460e-3
-1.353, 2.482e-3
-1.354, 2.501e-3
-1.355, 2.525e-3
-1.356, 2.550e-3
-1.357, 2.575e-3
-1.358, 2.596e-3
-1.359, 2.621e-3
-1.360, 2.645e-3
-1.361, 2.673e-3
-1.362, 2.698e-3
-1.363, 2.723e-3
-1.364, 2.747e-3
-1.365, 2.772e-3
-1.366, 2.800e-3
-1.367, 2.830e-3
-1.368, 2.858e-3
-1.369, 2.886e-3
-1.370, 2.914e-3
-1.371, 2.945e-3
-1.372, 2.972e-3
-1.373, 3.000e-3
-1.374, 3.034e-3
-1.375, 3.062e-3
-1.376, 3.096e-3
-1.377, 3.126e-3
-1.378, 3.157e-3
-1.379, 3.188e-3
-1.380, 3.219e-3
-1.381, 3.253e-3
-1.382, 3.287e-3
-1.383, 3.321e-3
-1.384, 3.355e-3
-1.385, 3.388e-3
-1.386, 3.422e-3
-1.387, 3.456e-3
-1.388, 3.490e-3
-1.389, 3.524e-3
-1.390, 3.561e-3
-1.391, 3.598e-3
-1.392, 3.635e-3
-1.393, 3.672e-3
-1.394, 3.709e-3
-1.395, 3.746e-3
-1.396, 3.786e-3
-1.397, 3.823e-3
-1.398, 3.863e-3
-1.399, 3.903e-3
-1.400, 3.891e-3
-1.399, 3.805e-3
-1.398, 3.731e-3
-1.397, 3.666e-3
-1.396, 3.604e-3
-1.395, 3.546e-3
-1.394, 3.493e-3
-1.393, 3.438e-3
-1.392, 3.385e-3
-1.391, 3.333e-3
-1.390, 3.281e-3
-1.389, 3.231e-3
-1.388, 3.182e-3
-1.387, 3.133e-3
-1.386, 3.086e-3
-1.385, 3.040e-3
-1.384, 2.994e-3
-1.383, 2.948e-3
-1.382, 2.901e-3
-1.381, 2.858e-3
-1.380, 2.815e-3
-1.379, 2.769e-3
-1.378, 2.729e-3
-1.377, 2.686e-3
-1.376, 2.645e-3
-1.375, 2.602e-3
-1.374, 2.562e-3
-1.373, 2.519e-3
-1.372, 2.476e-3
-1.371, 2.439e-3
-1.370, 2.396e-3
-1.369, 2.359e-3
-1.368, 2.319e-3
-1.367, 2.279e-3
-1.366, 2.242e-3
-1.365, 2.201e-3
-1.364, 2.161e-3
-1.363, 2.124e-3
-1.362, 2.087e-3
-1.361, 2.050e-3
-1.360, 2.013e-3
-1.359, 1.976e-3
-1.358, 1.939e-3
-1.357, 1.906e-3
-1.356, 1.869e-3
-1.355, 1.835e-3
-1.354, 1.798e-3
-1.353, 1.764e-3
-1.352, 1.730e-3
-1.351, 1.696e-3
-1.350, 1.665e-3
-1.349, 1.631e-3
-1.348, 1.600e-3
-1.347, 1.563e-3
-1.346, 1.532e-3
-1.345, 1.499e-3
-1.344, 1.468e-3
-1.343, 1.437e-3
-1.342, 1.406e-3
-1.341, 1.378e-3
-1.340, 1.344e-3
-1.339, 1.314e-3
-1.338, 1.283e-3
-1.337, 1.255e-3
-1.336, 1.224e-3
-1.335, 1.196e-3
-1.334, 1.169e-3
-1.333, 1.141e-3
-1.332, 1.113e-3
-1.331, 1.082e-3
-1.330, 1.055e-3
-1.329, 1.027e-3
-1.328, 1.002e-3
-1.327, 9.744e-4
-1.326, 9.498e-4
-1.325, 9.251e-4
-1.324, 8.973e-4
-1.323, 8.727e-4
-1.322, 8.449e-4
-1.321, 8.203e-4
-1.320, 7.956e-4
-1.319, 7.709e-4
-1.318, 7.494e-4
-1.317, 7.247e-4
-1.316, 7.000e-4
-1.315, 6.754e-4
-1.314, 6.538e-4
-1.313, 6.291e-4
-1.312, 6.075e-4
-1.311, 5.859e-4
-1.310, 5.613e-4
-1.309, 5.428e-4
-1.308, 5.212e-4
-1.307, 4.996e-4
-1.306, 4.811e-4
-1.305, 4.595e-4
-1.304, 4.380e-4
-1.303, 4.195e-4
-1.302, 4.010e-4
-1.301, 3.794e-4
-1.300, 3.609e-4
-1.299, 3.455e-4
-1.298, 3.239e-4
-1.297, 3.054e-4
-1.296, 2.869e-4
-1.295, 2.715e-4
-1.294, 2.530e-4
-1.293, 2.376e-4
-1.292, 2.191e-4
-1.291, 2.067e-4
-1.290, 1.882e-4
-1.289, 1.728e-4
-1.288, 1.605e-4
-1.287, 1.420e-4
-1.286, 1.296e-4
-1.285, 1.142e-4
-1.284, 1.019e-4
-1.283, 8.957e-5
-1.282, 7.415e-5
-1.281, 6.490e-5
-1.280, 5.257e-5
-1.279, 4.024e-5
-1.278, 2.790e-5
-1.277, 1.865e-5
-1.276, 9.405e-6
-1.275, 1.559e-7
-1.274, -6.010e-6
-1.273, -1.526e-5
-1.272, -2.451e-5
-1.271, -3.376e-5
-1.270, -4.301e-5
-1.269, -4.917e-5
-1.268, -5.534e-5
-1.267, -6.459e-5
-1.266, -7.076e-5
-1.265, -7.692e-5
-1.264, -8.617e-5
-1.263, -9.234e-5
-1.262, -1.016e-4
-1.261, -1.108e-4
-1.260, -1.170e-4
-1.259, -1.232e-4
-1.258, -1.263e-4
-1.257, -1.324e-4
-1.256, -1.324e-4
-1.255, -1.417e-4
-1.254, -1.448e-4
-1.253, -1.478e-4
-1.252, -1.540e-4
-1.251, -1.571e-4
-1.250, -1.632e-4
-1.249, -1.663e-4
-1.248, -1.725e-4
-1.247, -1.817e-4
-1.246, -1.848e-4
-1.245, -1.910e-4
-1.244, -1.941e-4
-1.243, -2.002e-4
-1.242, -2.064e-4
-1.241, -2.126e-4
-1.240, -2.187e-4
-1.239, -2.218e-4
-1.238, -2.311e-4
-1.237, -2.342e-4
-1.236, -2.434e-4
-1.235, -2.465e-4
-1.234, -2.527e-4
-1.233, -2.588e-4
-1.232, -2.650e-4
-1.231, -2.712e-4
-1.230, -2.773e-4
-1.229, -2.835e-4
-1.228, -2.897e-4
-1.227, -2.958e-4
-1.226, -3.020e-4
-1.225, -3.112e-4
-1.224, -3.174e-4
-1.223, -3.236e-4
-1.222, -3.328e-4
-1.221, -3.390e-4
-1.220, -3.513e-4
-1.219, -3.575e-4
-1.218, -3.667e-4
-1.217, -3.791e-4
-1.216, -3.883e-4
-1.215, -4.037e-4
-1.214, -4.191e-4
-1.213, -4.376e-4
-1.212, -4.531e-4
-1.211, -4.716e-4
-1.210, -4.901e-4
-1.209, -5.086e-4
-1.208, -5.240e-4
-1.207, -5.425e-4
-1.206, -5.610e-4
-1.205, -5.764e-4
-1.204, -5.949e-4
-1.203, -6.103e-4
-1.202, -6.257e-4
-1.201, -6.380e-4
-1.200, -6.504e-4
-1.199, -6.658e-4
-1.198, -6.781e-4
-1.197, -6.935e-4
-1.196, -7.059e-4
-1.195, -7.151e-4
-1.194, -7.275e-4
-1.193, -7.398e-4
-1.192, -7.490e-4
-1.191, -7.614e-4
-1.190, -7.737e-4
-1.189, -7.799e-4
-1.188, -7.922e-4
-1.187, -8.015e-4
-1.186, -8.107e-4
-1.185, -8.230e-4
-1.184, -8.292e-4
-1.183, -8.385e-4
-1.182, -8.477e-4
-1.181, -8.569e-4
-1.180, -8.662e-4
-1.179, -8.754e-4
-1.178, -8.847e-4
-1.177, -8.909e-4
-1.176, -9.001e-4
-1.175, -9.063e-4
-1.174, -9.155e-4
-1.173, -9.217e-4
-1.172, -9.309e-4
-1.171, -9.371e-4
-1.170, -9.464e-4
-1.169, -9.525e-4
-1.168, -9.587e-4
-1.167, -9.679e-4
-1.166, -9.741e-4
-1.165, -9.834e-4
-1.164, -9.895e-4
-1.163, -9.957e-4
-1.162, -1.005e-3
-1.161, -1.011e-3
-1.160, -1.017e-3
-1.159, -1.023e-3
-1.158, -1.030e-3
-1.157, -1.036e-3
-1.156, -1.042e-3
-1.155, -1.051e-3
-1.154, -1.057e-3
-1.153, -1.064e-3
-1.152, -1.070e-3
-1.151, -1.076e-3
-1.150, -1.082e-3
-1.149, -1.088e-3
-1.148, -1.094e-3
-1.147, -1.101e-3
-1.146, -1.107e-3
-1.145, -1.113e-3
-1.144, -1.119e-3
-1.143, -1.122e-3
-1.142, -1.128e-3
-1.141, -1.134e-3
-1.140, -1.138e-3
-1.139, -1.144e-3
-1.138, -1.150e-3
-1.137, -1.156e-3
-1.136, -1.159e-3
-1.135, -1.165e-3
-1.134, -1.168e-3
-1.133, -1.171e-3
-1.132, -1.178e-3
-1.131, -1.181e-3
-1.130, -1.187e-3
-1.129, -1.190e-3
-1.128, -1.196e-3
-1.127, -1.199e-3
-1.126, -1.202e-3
-1.125, -1.205e-3
-1.124, -1.208e-3
-1.123, -1.212e-3
-1.122, -1.215e-3
-1.121, -1.218e-3
-1.120, -1.221e-3
-1.119, -1.224e-3
-1.118, -1.227e-3
-1.117, -1.227e-3
-1.116, -1.230e-3
-1.115, -1.233e-3
-1.114, -1.233e-3
-1.113, -1.236e-3
-1.112, -1.239e-3
-1.111, -1.239e-3
-1.110, -1.239e-3
-1.109, -1.242e-3
-1.108, -1.242e-3
-1.107, -1.245e-3
-1.106, -1.249e-3
-1.105, -1.255e-3
-1.104, -1.255e-3
-1.103, -1.261e-3
-1.102, -1.267e-3
-1.101, -1.267e-3
-1.100, -1.273e-3
-1.099, -1.279e-3
-1.098, -1.286e-3
-1.097, -1.292e-3
-1.096, -1.298e-3
-1.095, -1.307e-3
-1.094, -1.310e-3
-1.093, -1.316e-3
-1.092, -1.322e-3
-1.091, -1.329e-3
-1.090, -1.335e-3
-1.089, -1.341e-3
-1.088, -1.350e-3
-1.087, -1.356e-3
-1.086, -1.363e-3
-1.085, -1.369e-3
-1.084, -1.375e-3
-1.083, -1.378e-3
-1.082, -1.384e-3
-1.081, -1.390e-3
-1.080, -1.400e-3
-1.079, -1.409e-3
-1.078, -1.415e-3
-1.077, -1.421e-3
-1.076, -1.427e-3
-1.075, -1.433e-3
-1.074, -1.440e-3
-1.073, -1.446e-3
-1.072, -1.455e-3
-1.071, -1.461e-3
-1.070, -1.470e-3
-1.069, -1.477e-3
-1.068, -1.483e-3
-1.067, -1.489e-3
-1.066, -1.495e-3
-1.065, -1.504e-3
-1.064, -1.511e-3
-1.063, -1.520e-3
-1.062, -1.526e-3
-1.061, -1.535e-3
-1.060, -1.541e-3
-1.059, -1.544e-3
-1.058, -1.554e-3
-1.057, -1.560e-3
-1.056, -1.566e-3
-1.055, -1.572e-3
-1.054, -1.578e-3
-1.053, -1.585e-3
-1.052, -1.588e-3
-1.051, -1.594e-3
-1.050, -1.597e-3
-1.049, -1.603e-3
-1.048, -1.606e-3
-1.047, -1.612e-3
-1.046, -1.615e-3
-1.045, -1.618e-3
-1.044, -1.622e-3
-1.043, -1.625e-3
-1.042, -1.628e-3
-1.041, -1.631e-3
-1.040, -1.637e-3
-1.039, -1.637e-3
-1.038, -1.643e-3
-1.037, -1.643e-3
-1.036, -1.646e-3
-1.035, -1.646e-3
-1.034, -1.649e-3
-1.033, -1.652e-3
-1.032, -1.655e-3
-1.031, -1.659e-3
-1.030, -1.662e-3
-1.029, -1.662e-3
-1.028, -1.662e-3
-1.027, -1.665e-3
-1.026, -1.668e-3
-1.025, -1.668e-3
-1.024, -1.671e-3
-1.023, -1.671e-3
-1.022, -1.674e-3
-1.021, -1.677e-3
-1.020, -1.680e-3
-1.019, -1.680e-3
-1.018, -1.680e-3
-1.017, -1.686e-3
-1.016, -1.686e-3
-1.015, -1.689e-3
-1.014, -1.692e-3
-1.013, -1.696e-3
-1.012, -1.702e-3
-1.011, -1.702e-3
-1.010, -1.705e-3
-1.009, -1.708e-3
-1.008, -1.714e-3
-1.007, -1.720e-3
-1.006, -1.726e-3
-1.005, -1.733e-3
-1.004, -1.739e-3
-1.003, -1.748e-3
-1.002, -1.754e-3
-1.001, -1.760e-3
