Jan. 15, 2025   00:51:35
Cyclic Voltammetry
File: c:/users/guazh/data/banditlqround7_x0exp772_r5/2025-01-10-exp848\exp848-2025-01-15t00_41_56-arkoh\exp848_cv_sr_100mvs_efin_-1500mv.bin
Data Source:  Experiment
Instrument Model:  CHI760E
Header: CV ran at 100 mVs
Note: 

Init E (V) = -1
High E (V) = -1
Low E (V) = -1.5
Final E (V) = -1
Init P/N = N
Scan Rate (V/s) = 0.1
Segment = 3
Sample Interval (V) = 0.001
Quiet Time (sec) = 2
Sensitivity (A/V) = 0.01
Comp R (ohm) = 1.5

Results:

Channel 1:
Segment 1:
Ep = -1.234V
ip = 2.642e-4A
Ah = 2.049e-4C

Segment 2:
Ep = -1.137V
ip = -1.524e-4A
Ah = -1.041e-4C

Segment 3:

Potential/V, Current/A

-1.000, 2.346e-6
-1.001, 2.354e-5
-1.002, 3.544e-5
-1.003, 3.495e-5
-1.004, 4.437e-5
-1.005, 4.478e-5
-1.006, 4.717e-5
-1.007, 5.389e-5
-1.008, 5.046e-5
-1.009, 5.822e-5
-1.010, 5.745e-5
-1.011, 5.897e-5
-1.012, 6.481e-5
-1.013, 6.087e-5
-1.014, 6.798e-5
-1.015, 6.730e-5
-1.016, 6.830e-5
-1.017, 7.377e-5
-1.018, 7.006e-5
-1.019, 7.673e-5
-1.020, 7.571e-5
-1.021, 7.678e-5
-1.022, 8.209e-5
-1.023, 7.862e-5
-1.024, 8.559e-5
-1.025, 8.409e-5
-1.026, 8.536e-5
-1.027, 9.037e-5
-1.028, 8.679e-5
-1.029, 9.380e-5
-1.030, 9.242e-5
-1.031, 9.370e-5
-1.032, 9.879e-5
-1.033, 9.476e-5
-1.034, 1.020e-4
-1.035, 1.005e-4
-1.036, 1.019e-4
-1.037, 1.069e-4
-1.038, 1.032e-4
-1.039, 1.107e-4
-1.040, 1.089e-4
-1.041, 1.101e-4
-1.042, 1.156e-4
-1.043, 1.118e-4
-1.044, 1.188e-4
-1.045, 1.172e-4
-1.046, 1.185e-4
-1.047, 1.240e-4
-1.048, 1.200e-4
-1.049, 1.271e-4
-1.050, 1.257e-4
-1.051, 1.272e-4
-1.052, 1.327e-4
-1.053, 1.284e-4
-1.054, 1.356e-4
-1.055, 1.343e-4
-1.056, 1.355e-4
-1.057, 1.409e-4
-1.058, 1.372e-4
-1.059, 1.443e-4
-1.060, 1.430e-4
-1.061, 1.441e-4
-1.062, 1.494e-4
-1.063, 1.457e-4
-1.064, 1.527e-4
-1.065, 1.513e-4
-1.066, 1.529e-4
-1.067, 1.582e-4
-1.068, 1.542e-4
-1.069, 1.617e-4
-1.070, 1.595e-4
-1.071, 1.618e-4
-1.072, 1.666e-4
-1.073, 1.625e-4
-1.074, 1.705e-4
-1.075, 1.688e-4
-1.076, 1.706e-4
-1.077, 1.753e-4
-1.078, 1.717e-4
-1.079, 1.793e-4
-1.080, 1.772e-4
-1.081, 1.795e-4
-1.082, 1.845e-4
-1.083, 1.806e-4
-1.084, 1.882e-4
-1.085, 1.866e-4
-1.086, 1.885e-4
-1.087, 1.937e-4
-1.088, 1.905e-4
-1.089, 1.977e-4
-1.090, 1.964e-4
-1.091, 1.987e-4
-1.092, 2.040e-4
-1.093, 2.005e-4
-1.094, 2.086e-4
-1.095, 2.071e-4
-1.096, 2.096e-4
-1.097, 2.145e-4
-1.098, 2.114e-4
-1.099, 2.194e-4
-1.100, 2.184e-4
-1.101, 2.209e-4
-1.102, 2.265e-4
-1.103, 2.237e-4
-1.104, 2.319e-4
-1.105, 2.308e-4
-1.106, 2.339e-4
-1.107, 2.397e-4
-1.108, 2.371e-4
-1.109, 2.458e-4
-1.110, 2.447e-4
-1.111, 2.483e-4
-1.112, 2.543e-4
-1.113, 2.518e-4
-1.114, 2.610e-4
-1.115, 2.597e-4
-1.116, 2.642e-4
-1.117, 2.703e-4
-1.118, 2.683e-4
-1.119, 2.778e-4
-1.120, 2.771e-4
-1.121, 2.815e-4
-1.122, 2.876e-4
-1.123, 2.857e-4
-1.124, 2.956e-4
-1.125, 2.952e-4
-1.126, 2.999e-4
-1.127, 3.068e-4
-1.128, 3.049e-4
-1.129, 3.151e-4
-1.130, 3.149e-4
-1.131, 3.196e-4
-1.132, 3.265e-4
-1.133, 3.250e-4
-1.134, 3.354e-4
-1.135, 3.354e-4
-1.136, 3.406e-4
-1.137, 3.477e-4
-1.138, 3.464e-4
-1.139, 3.572e-4
-1.140, 3.567e-4
-1.141, 3.618e-4
-1.142, 3.698e-4
-1.143, 3.689e-4
-1.144, 3.791e-4
-1.145, 3.794e-4
-1.146, 3.847e-4
-1.147, 3.921e-4
-1.148, 3.911e-4
-1.149, 4.020e-4
-1.150, 4.016e-4
-1.151, 4.080e-4
-1.152, 4.150e-4
-1.153, 4.140e-4
-1.154, 4.247e-4
-1.155, 4.245e-4
-1.156, 4.304e-4
-1.157, 4.379e-4
-1.158, 4.372e-4
-1.159, 4.478e-4
-1.160, 4.484e-4
-1.161, 4.551e-4
-1.162, 4.623e-4
-1.163, 4.608e-4
-1.164, 4.720e-4
-1.165, 4.720e-4
-1.166, 4.781e-4
-1.167, 4.852e-4
-1.168, 4.842e-4
-1.169, 4.953e-4
-1.170, 4.955e-4
-1.171, 5.014e-4
-1.172, 5.087e-4
-1.173, 5.073e-4
-1.174, 5.184e-4
-1.175, 5.178e-4
-1.176, 5.241e-4
-1.177, 5.311e-4
-1.178, 5.308e-4
-1.179, 5.421e-4
-1.180, 5.410e-4
-1.181, 5.467e-4
-1.182, 5.537e-4
-1.183, 5.534e-4
-1.184, 5.640e-4
-1.185, 5.629e-4
-1.186, 5.691e-4
-1.187, 5.757e-4
-1.188, 5.746e-4
-1.189, 5.850e-4
-1.190, 5.836e-4
-1.191, 5.896e-4
-1.192, 5.959e-4
-1.193, 5.936e-4
-1.194, 6.047e-4
-1.195, 6.027e-4
-1.196, 6.087e-4
-1.197, 6.147e-4
-1.198, 6.129e-4
-1.199, 6.229e-4
-1.200, 6.208e-4
-1.201, 6.261e-4
-1.202, 6.320e-4
-1.203, 6.302e-4
-1.204, 6.401e-4
-1.205, 6.371e-4
-1.206, 6.428e-4
-1.207, 6.485e-4
-1.208, 6.444e-4
-1.209, 6.547e-4
-1.210, 6.524e-4
-1.211, 6.577e-4
-1.212, 6.629e-4
-1.213, 6.593e-4
-1.214, 6.698e-4
-1.215, 6.667e-4
-1.216, 6.706e-4
-1.217, 6.740e-4
-1.218, 6.706e-4
-1.219, 6.789e-4
-1.220, 6.757e-4
-1.221, 6.803e-4
-1.222, 6.839e-4
-1.223, 6.803e-4
-1.224, 6.883e-4
-1.225, 6.846e-4
-1.226, 6.872e-4
-1.227, 6.910e-4
-1.228, 6.874e-4
-1.229, 6.964e-4
-1.230, 6.913e-4
-1.231, 6.942e-4
-1.232, 6.965e-4
-1.233, 6.920e-4
-1.234, 6.999e-4
-1.235, 6.945e-4
-1.236, 6.968e-4
-1.237, 6.981e-4
-1.238, 6.911e-4
-1.239, 6.989e-4
-1.240, 6.930e-4
-1.241, 6.948e-4
-1.242, 6.980e-4
-1.243, 6.921e-4
-1.244, 6.991e-4
-1.245, 6.910e-4
-1.246, 6.924e-4
-1.247, 6.944e-4
-1.248, 6.878e-4
-1.249, 6.938e-4
-1.250, 6.869e-4
-1.251, 6.886e-4
-1.252, 6.895e-4
-1.253, 6.815e-4
-1.254, 6.880e-4
-1.255, 6.805e-4
-1.256, 6.798e-4
-1.257, 6.810e-4
-1.258, 6.736e-4
-1.259, 6.787e-4
-1.260, 6.718e-4
-1.261, 6.717e-4
-1.262, 6.712e-4
-1.263, 6.635e-4
-1.264, 6.685e-4
-1.265, 6.605e-4
-1.266, 6.612e-4
-1.267, 6.599e-4
-1.268, 6.500e-4
-1.269, 6.563e-4
-1.270, 6.481e-4
-1.271, 6.477e-4
-1.272, 6.471e-4
-1.273, 6.379e-4
-1.274, 6.426e-4
-1.275, 6.338e-4
-1.276, 6.333e-4
-1.277, 6.317e-4
-1.278, 6.231e-4
-1.279, 6.284e-4
-1.280, 6.201e-4
-1.281, 6.184e-4
-1.282, 6.173e-4
-1.283, 6.090e-4
-1.284, 6.124e-4
-1.285, 6.036e-4
-1.286, 6.029e-4
-1.287, 6.014e-4
-1.288, 5.928e-4
-1.289, 5.968e-4
-1.290, 5.875e-4
-1.291, 5.860e-4
-1.292, 5.857e-4
-1.293, 5.762e-4
-1.294, 5.798e-4
-1.295, 5.704e-4
-1.296, 5.698e-4
-1.297, 5.686e-4
-1.298, 5.592e-4
-1.299, 5.637e-4
-1.300, 5.541e-4
-1.301, 5.539e-4
-1.302, 5.519e-4
-1.303, 5.436e-4
-1.304, 5.473e-4
-1.305, 5.394e-4
-1.306, 5.395e-4
-1.307, 5.380e-4
-1.308, 5.299e-4
-1.309, 5.340e-4
-1.310, 5.243e-4
-1.311, 5.243e-4
-1.312, 5.238e-4
-1.313, 5.162e-4
-1.314, 5.210e-4
-1.315, 5.125e-4
-1.316, 5.135e-4
-1.317, 5.125e-4
-1.318, 5.049e-4
-1.319, 5.100e-4
-1.320, 5.018e-4
-1.321, 5.032e-4
-1.322, 5.034e-4
-1.323, 4.964e-4
-1.324, 5.023e-4
-1.325, 4.945e-4
-1.326, 4.956e-4
-1.327, 4.972e-4
-1.328, 4.907e-4
-1.329, 4.962e-4
-1.330, 4.901e-4
-1.331, 4.919e-4
-1.332, 4.933e-4
-1.333, 4.868e-4
-1.334, 4.940e-4
-1.335, 4.876e-4
-1.336, 4.902e-4
-1.337, 4.933e-4
-1.338, 4.868e-4
-1.339, 4.948e-4
-1.340, 4.888e-4
-1.341, 4.919e-4
-1.342, 4.944e-4
-1.343, 4.896e-4
-1.344, 4.973e-4
-1.345, 4.924e-4
-1.346, 4.958e-4
-1.347, 4.990e-4
-1.348, 4.947e-4
-1.349, 5.034e-4
-1.350, 4.985e-4
-1.351, 5.027e-4
-1.352, 5.065e-4
-1.353, 5.022e-4
-1.354, 5.122e-4
-1.355, 5.071e-4
-1.356, 5.120e-4
-1.357, 5.155e-4
-1.358, 5.117e-4
-1.359, 5.213e-4
-1.360, 5.166e-4
-1.361, 5.216e-4
-1.362, 5.255e-4
-1.363, 5.220e-4
-1.364, 5.324e-4
-1.365, 5.276e-4
-1.366, 5.335e-4
-1.367, 5.379e-4
-1.368, 5.339e-4
-1.369, 5.440e-4
-1.370, 5.404e-4
-1.371, 5.444e-4
-1.372, 5.497e-4
-1.373, 5.453e-4
-1.374, 5.555e-4
-1.375, 5.513e-4
-1.376, 5.565e-4
-1.377, 5.612e-4
-1.378, 5.572e-4
-1.379, 5.672e-4
-1.380, 5.632e-4
-1.381, 5.677e-4
-1.382, 5.727e-4
-1.383, 5.691e-4
-1.384, 5.775e-4
-1.385, 5.729e-4
-1.386, 5.787e-4
-1.387, 5.820e-4
-1.388, 5.783e-4
-1.389, 5.868e-4
-1.390, 5.822e-4
-1.391, 5.872e-4
-1.392, 5.900e-4
-1.393, 5.865e-4
-1.394, 5.953e-4
-1.395, 5.896e-4
-1.396, 5.955e-4
-1.397, 5.980e-4
-1.398, 5.937e-4
-1.399, 6.023e-4
-1.400, 5.970e-4
-1.401, 6.016e-4
-1.402, 6.044e-4
-1.403, 5.999e-4
-1.404, 6.089e-4
-1.405, 6.032e-4
-1.406, 6.072e-4
-1.407, 6.104e-4
-1.408, 6.061e-4
-1.409, 6.146e-4
-1.410, 6.098e-4
-1.411, 6.132e-4
-1.412, 6.169e-4
-1.413, 6.121e-4
-1.414, 6.218e-4
-1.415, 6.170e-4
-1.416, 6.216e-4
-1.417, 6.264e-4
-1.418, 6.225e-4
-1.419, 6.320e-4
-1.420, 6.290e-4
-1.421, 6.343e-4
-1.422, 6.392e-4
-1.423, 6.381e-4
-1.424, 6.489e-4
-1.425, 6.471e-4
-1.426, 6.548e-4
-1.427, 6.623e-4
-1.428, 6.642e-4
-1.429, 6.788e-4
-1.430, 6.819e-4
-1.431, 6.952e-4
-1.432, 7.083e-4
-1.433, 7.174e-4
-1.434, 7.407e-4
-1.435, 7.533e-4
-1.436, 7.788e-4
-1.437, 8.067e-4
-1.438, 8.337e-4
-1.439, 8.774e-4
-1.440, 9.151e-4
-1.441, 9.709e-4
-1.442, 1.034e-3
-1.443, 1.102e-3
-1.444, 1.195e-3
-1.445, 1.289e-3
-1.446, 1.407e-3
-1.447, 1.537e-3
-1.448, 1.675e-3
-1.449, 1.834e-3
-1.450, 1.991e-3
-1.451, 2.163e-3
-1.452, 2.337e-3
-1.453, 2.515e-3
-1.454, 2.708e-3
-1.455, 2.889e-3
-1.456, 3.082e-3
-1.457, 3.273e-3
-1.458, 3.458e-3
-1.459, 3.651e-3
-1.460, 3.823e-3
-1.461, 3.999e-3
-1.462, 4.163e-3
-1.463, 4.322e-3
-1.464, 4.480e-3
-1.465, 4.621e-3
-1.466, 4.771e-3
-1.467, 4.908e-3
-1.468, 5.035e-3
-1.469, 5.177e-3
-1.470, 5.301e-3
-1.471, 5.434e-3
-1.472, 5.556e-3
-1.473, 5.667e-3
-1.474, 5.788e-3
-1.475, 5.896e-3
-1.476, 6.006e-3
-1.477, 6.107e-3
-1.478, 6.200e-3
-1.479, 6.298e-3
-1.480, 6.378e-3
-1.481, 6.469e-3
-1.482, 6.551e-3
-1.483, 6.626e-3
-1.484, 6.704e-3
-1.485, 6.771e-3
-1.486, 6.854e-3
-1.487, 6.923e-3
-1.488, 6.997e-3
-1.489, 7.071e-3
-1.490, 7.130e-3
-1.491, 7.197e-3
-1.492, 7.261e-3
-1.493, 7.317e-3
-1.494, 7.400e-3
-1.495, 7.446e-3
-1.496, 7.513e-3
-1.497, 7.581e-3
-1.498, 7.642e-3
-1.499, 7.706e-3
-1.500, 7.697e-3
-1.499, 7.594e-3
-1.498, 7.516e-3
-1.497, 7.404e-3
-1.496, 7.311e-3
-1.495, 7.202e-3
-1.494, 7.101e-3
-1.493, 7.031e-3
-1.492, 6.965e-3
-1.491, 6.872e-3
-1.490, 6.777e-3
-1.489, 6.692e-3
-1.488, 6.597e-3
-1.487, 6.516e-3
-1.486, 6.419e-3
-1.485, 6.335e-3
-1.484, 6.259e-3
-1.483, 6.177e-3
-1.482, 6.093e-3
-1.481, 6.036e-3
-1.480, 5.967e-3
-1.479, 5.898e-3
-1.478, 5.805e-3
-1.477, 5.728e-3
-1.476, 5.646e-3
-1.475, 5.564e-3
-1.474, 5.483e-3
-1.473, 5.426e-3
-1.472, 5.340e-3
-1.471, 5.266e-3
-1.470, 5.184e-3
-1.469, 5.111e-3
-1.468, 5.044e-3
-1.467, 4.964e-3
-1.466, 4.891e-3
-1.465, 4.817e-3
-1.464, 4.751e-3
-1.463, 4.679e-3
-1.462, 4.612e-3
-1.461, 4.552e-3
-1.460, 4.476e-3
-1.459, 4.406e-3
-1.458, 4.332e-3
-1.457, 4.264e-3
-1.456, 4.194e-3
-1.455, 4.134e-3
-1.454, 4.071e-3
-1.453, 3.995e-3
-1.452, 3.928e-3
-1.451, 3.872e-3
-1.450, 3.810e-3
-1.449, 3.759e-3
-1.448, 3.712e-3
-1.447, 3.638e-3
-1.446, 3.582e-3
-1.445, 3.515e-3
-1.444, 3.457e-3
-1.443, 3.402e-3
-1.442, 3.331e-3
-1.441, 3.273e-3
-1.440, 3.219e-3
-1.439, 3.158e-3
-1.438, 3.101e-3
-1.437, 3.039e-3
-1.436, 2.980e-3
-1.435, 2.918e-3
-1.434, 2.863e-3
-1.433, 2.803e-3
-1.432, 2.747e-3
-1.431, 2.692e-3
-1.430, 2.639e-3
-1.429, 2.580e-3
-1.428, 2.527e-3
-1.427, 2.468e-3
-1.426, 2.419e-3
-1.425, 2.367e-3
-1.424, 2.319e-3
-1.423, 2.263e-3
-1.422, 2.209e-3
-1.421, 2.163e-3
-1.420, 2.108e-3
-1.419, 2.060e-3
-1.418, 2.009e-3
-1.417, 1.960e-3
-1.416, 1.917e-3
-1.415, 1.861e-3
-1.414, 1.815e-3
-1.413, 1.770e-3
-1.412, 1.737e-3
-1.411, 1.692e-3
-1.410, 1.643e-3
-1.409, 1.603e-3
-1.408, 1.559e-3
-1.407, 1.513e-3
-1.406, 1.476e-3
-1.405, 1.433e-3
-1.404, 1.392e-3
-1.403, 1.354e-3
-1.402, 1.308e-3
-1.401, 1.272e-3
-1.400, 1.228e-3
-1.399, 1.194e-3
-1.398, 1.157e-3
-1.397, 1.118e-3
-1.396, 1.088e-3
-1.395, 1.047e-3
-1.394, 1.017e-3
-1.393, 9.833e-4
-1.392, 9.458e-4
-1.391, 9.176e-4
-1.390, 8.790e-4
-1.389, 8.493e-4
-1.388, 8.194e-4
-1.387, 7.861e-4
-1.386, 7.607e-4
-1.385, 7.263e-4
-1.384, 6.998e-4
-1.383, 6.730e-4
-1.382, 6.431e-4
-1.381, 6.209e-4
-1.380, 5.903e-4
-1.379, 5.674e-4
-1.378, 5.429e-4
-1.377, 5.150e-4
-1.376, 4.976e-4
-1.375, 4.695e-4
-1.374, 4.487e-4
-1.373, 4.273e-4
-1.372, 4.022e-4
-1.371, 3.904e-4
-1.370, 3.655e-4
-1.369, 3.479e-4
-1.368, 3.303e-4
-1.367, 3.081e-4
-1.366, 2.956e-4
-1.365, 2.735e-4
-1.364, 2.599e-4
-1.363, 2.448e-4
-1.362, 2.251e-4
-1.361, 2.160e-4
-1.360, 1.965e-4
-1.359, 1.846e-4
-1.358, 1.718e-4
-1.357, 1.542e-4
-1.356, 1.471e-4
-1.355, 1.295e-4
-1.354, 1.207e-4
-1.353, 1.096e-4
-1.352, 9.483e-5
-1.351, 8.953e-5
-1.350, 7.375e-5
-1.349, 6.704e-5
-1.348, 5.772e-5
-1.347, 4.468e-5
-1.346, 4.144e-5
-1.345, 2.684e-5
-1.344, 2.211e-5
-1.343, 1.494e-5
-1.342, 3.619e-6
-1.341, 2.889e-6
-1.340, -9.917e-6
-1.339, -1.390e-5
-1.338, -1.965e-5
-1.337, -3.042e-5
-1.336, -3.048e-5
-1.335, -4.187e-5
-1.334, -4.443e-5
-1.333, -4.911e-5
-1.332, -5.854e-5
-1.331, -5.757e-5
-1.330, -6.804e-5
-1.329, -7.005e-5
-1.328, -7.319e-5
-1.327, -8.176e-5
-1.326, -8.028e-5
-1.325, -8.964e-5
-1.324, -9.111e-5
-1.323, -9.401e-5
-1.322, -1.012e-4
-1.321, -9.836e-5
-1.320, -1.072e-4
-1.319, -1.074e-4
-1.318, -1.100e-4
-1.317, -1.167e-4
-1.316, -1.139e-4
-1.315, -1.226e-4
-1.314, -1.217e-4
-1.313, -1.243e-4
-1.312, -1.304e-4
-1.311, -1.274e-4
-1.310, -1.351e-4
-1.309, -1.342e-4
-1.308, -1.366e-4
-1.307, -1.428e-4
-1.306, -1.387e-4
-1.305, -1.469e-4
-1.304, -1.455e-4
-1.303, -1.473e-4
-1.302, -1.534e-4
-1.301, -1.493e-4
-1.300, -1.572e-4
-1.299, -1.555e-4
-1.298, -1.570e-4
-1.297, -1.629e-4
-1.296, -1.588e-4
-1.295, -1.667e-4
-1.294, -1.650e-4
-1.293, -1.665e-4
-1.292, -1.716e-4
-1.291, -1.676e-4
-1.290, -1.744e-4
-1.289, -1.730e-4
-1.288, -1.743e-4
-1.287, -1.803e-4
-1.286, -1.762e-4
-1.285, -1.836e-4
-1.284, -1.818e-4
-1.283, -1.828e-4
-1.282, -1.883e-4
-1.281, -1.849e-4
-1.280, -1.912e-4
-1.279, -1.886e-4
-1.278, -1.910e-4
-1.277, -1.968e-4
-1.276, -1.924e-4
-1.275, -2.004e-4
-1.274, -1.981e-4
-1.273, -2.001e-4
-1.272, -2.054e-4
-1.271, -2.012e-4
-1.270, -2.094e-4
-1.269, -2.072e-4
-1.268, -2.088e-4
-1.267, -2.146e-4
-1.266, -2.095e-4
-1.265, -2.179e-4
-1.264, -2.157e-4
-1.263, -2.165e-4
-1.262, -2.237e-4
-1.261, -2.192e-4
-1.260, -2.271e-4
-1.259, -2.248e-4
-1.258, -2.268e-4
-1.257, -2.323e-4
-1.256, -2.280e-4
-1.255, -2.365e-4
-1.254, -2.354e-4
-1.253, -2.367e-4
-1.252, -2.429e-4
-1.251, -2.388e-4
-1.250, -2.469e-4
-1.249, -2.454e-4
-1.248, -2.483e-4
-1.247, -2.538e-4
-1.246, -2.499e-4
-1.245, -2.577e-4
-1.244, -2.565e-4
-1.243, -2.587e-4
-1.242, -2.649e-4
-1.241, -2.609e-4
-1.240, -2.691e-4
-1.239, -2.679e-4
-1.238, -2.704e-4
-1.237, -2.760e-4
-1.236, -2.734e-4
-1.235, -2.817e-4
-1.234, -2.801e-4
-1.233, -2.832e-4
-1.232, -2.887e-4
-1.231, -2.859e-4
-1.230, -2.950e-4
-1.229, -2.956e-4
-1.228, -2.982e-4
-1.227, -3.044e-4
-1.226, -3.016e-4
-1.225, -3.112e-4
-1.224, -3.101e-4
-1.223, -3.136e-4
-1.222, -3.204e-4
-1.221, -3.174e-4
-1.220, -3.282e-4
-1.219, -3.270e-4
-1.218, -3.304e-4
-1.217, -3.383e-4
-1.216, -3.353e-4
-1.215, -3.453e-4
-1.214, -3.454e-4
-1.213, -3.493e-4
-1.212, -3.578e-4
-1.211, -3.555e-4
-1.210, -3.649e-4
-1.209, -3.649e-4
-1.208, -3.697e-4
-1.207, -3.765e-4
-1.206, -3.748e-4
-1.205, -3.852e-4
-1.204, -3.853e-4
-1.203, -3.905e-4
-1.202, -3.984e-4
-1.201, -3.965e-4
-1.200, -4.071e-4
-1.199, -4.077e-4
-1.198, -4.128e-4
-1.197, -4.210e-4
-1.196, -4.195e-4
-1.195, -4.302e-4
-1.194, -4.304e-4
-1.193, -4.357e-4
-1.192, -4.436e-4
-1.191, -4.427e-4
-1.190, -4.535e-4
-1.189, -4.539e-4
-1.188, -4.590e-4
-1.187, -4.671e-4
-1.186, -4.650e-4
-1.185, -4.760e-4
-1.184, -4.759e-4
-1.183, -4.810e-4
-1.182, -4.888e-4
-1.181, -4.869e-4
-1.180, -4.977e-4
-1.179, -4.968e-4
-1.178, -5.030e-4
-1.177, -5.103e-4
-1.176, -5.086e-4
-1.175, -5.181e-4
-1.174, -5.167e-4
-1.173, -5.211e-4
-1.172, -5.317e-4
-1.171, -5.269e-4
-1.170, -5.367e-4
-1.169, -5.380e-4
-1.168, -5.407e-4
-1.167, -5.465e-4
-1.166, -5.431e-4
-1.165, -5.515e-4
-1.164, -5.500e-4
-1.163, -5.543e-4
-1.162, -5.594e-4
-1.161, -5.561e-4
-1.160, -5.643e-4
-1.159, -5.623e-4
-1.158, -5.644e-4
-1.157, -5.702e-4
-1.156, -5.664e-4
-1.155, -5.728e-4
-1.154, -5.701e-4
-1.153, -5.732e-4
-1.152, -5.779e-4
-1.151, -5.733e-4
-1.150, -5.815e-4
-1.149, -5.767e-4
-1.148, -5.786e-4
-1.147, -5.833e-4
-1.146, -5.777e-4
-1.145, -5.851e-4
-1.144, -5.813e-4
-1.143, -5.822e-4
-1.142, -5.864e-4
-1.141, -5.794e-4
-1.140, -5.874e-4
-1.139, -5.836e-4
-1.138, -5.836e-4
-1.137, -5.877e-4
-1.136, -5.806e-4
-1.135, -5.854e-4
-1.134, -5.825e-4
-1.133, -5.831e-4
-1.132, -5.846e-4
-1.131, -5.794e-4
-1.130, -5.849e-4
-1.129, -5.797e-4
-1.128, -5.795e-4
-1.127, -5.821e-4
-1.126, -5.765e-4
-1.125, -5.819e-4
-1.124, -5.774e-4
-1.123, -5.772e-4
-1.122, -5.802e-4
-1.121, -5.731e-4
-1.120, -5.779e-4
-1.119, -5.721e-4
-1.118, -5.723e-4
-1.117, -5.741e-4
-1.116, -5.675e-4
-1.115, -5.725e-4
-1.114, -5.669e-4
-1.113, -5.673e-4
-1.112, -5.684e-4
-1.111, -5.618e-4
-1.110, -5.673e-4
-1.109, -5.611e-4
-1.108, -5.612e-4
-1.107, -5.634e-4
-1.106, -5.563e-4
-1.105, -5.614e-4
-1.104, -5.561e-4
-1.103, -5.553e-4
-1.102, -5.569e-4
-1.101, -5.500e-4
-1.100, -5.552e-4
-1.099, -5.500e-4
-1.098, -5.490e-4
-1.097, -5.511e-4
-1.096, -5.443e-4
-1.095, -5.486e-4
-1.094, -5.446e-4
-1.093, -5.433e-4
-1.092, -5.451e-4
-1.091, -5.384e-4
-1.090, -5.432e-4
-1.089, -5.393e-4
-1.088, -5.381e-4
-1.087, -5.388e-4
-1.086, -5.333e-4
-1.085, -5.367e-4
-1.084, -5.323e-4
-1.083, -5.318e-4
-1.082, -5.336e-4
-1.081, -5.260e-4
-1.080, -5.311e-4
-1.079, -5.259e-4
-1.078, -5.251e-4
-1.077, -5.270e-4
-1.076, -5.207e-4
-1.075, -5.259e-4
-1.074, -5.208e-4
-1.073, -5.198e-4
-1.072, -5.212e-4
-1.071, -5.151e-4
-1.070, -5.195e-4
-1.069, -5.148e-4
-1.068, -5.145e-4
-1.067, -5.163e-4
-1.066, -5.093e-4
-1.065, -5.138e-4
-1.064, -5.088e-4
-1.063, -5.083e-4
-1.062, -5.113e-4
-1.061, -5.057e-4
-1.060, -5.101e-4
-1.059, -5.044e-4
-1.058, -5.040e-4
-1.057, -5.067e-4
-1.056, -4.995e-4
-1.055, -5.044e-4
-1.054, -5.001e-4
-1.053, -4.987e-4
-1.052, -5.007e-4
-1.051, -4.945e-4
-1.050, -4.990e-4
-1.049, -4.945e-4
-1.048, -4.935e-4
-1.047, -4.961e-4
-1.046, -4.889e-4
-1.045, -4.937e-4
-1.044, -4.902e-4
-1.043, -4.892e-4
-1.042, -4.917e-4
-1.041, -4.860e-4
-1.040, -4.896e-4
-1.039, -4.854e-4
-1.038, -4.851e-4
-1.037, -4.870e-4
-1.036, -4.809e-4
-1.035, -4.852e-4
-1.034, -4.813e-4
-1.033, -4.808e-4
-1.032, -4.822e-4
-1.031, -4.765e-4
-1.030, -4.813e-4
-1.029, -4.773e-4
-1.028, -4.764e-4
-1.027, -4.791e-4
-1.026, -4.730e-4
-1.025, -4.770e-4
-1.024, -4.744e-4
-1.023, -4.729e-4
-1.022, -4.769e-4
-1.021, -4.696e-4
-1.020, -4.742e-4
-1.019, -4.711e-4
-1.018, -4.699e-4
-1.017, -4.730e-4
-1.016, -4.669e-4
-1.015, -4.711e-4
-1.014, -4.675e-4
-1.013, -4.666e-4
-1.012, -4.693e-4
-1.011, -4.638e-4
-1.010, -4.686e-4
-1.009, -4.650e-4
-1.008, -4.641e-4
-1.007, -4.668e-4
-1.006, -4.616e-4
-1.005, -4.658e-4
-1.004, -4.622e-4
-1.003, -4.615e-4
-1.002, -4.651e-4
-1.001, -4.593e-4
