Potential V vs RHE, Current mA cm-2
0.013299999999999867,-0.2202705493889862
0.012299999999999978,-1.0490084288499246
0.011299999999999866,-1.4415908145624723
0.010299999999999976,-1.7471684553333202
0.009299999999999864,-2.008890045808352
0.008299999999999974,-2.226755585987568
0.007299999999999862,-2.4446211261667834
0.006299999999999972,-2.576189277054232
0.00529999999999986,-2.618630616050183
0.0042999999999999705,-2.662486666345999
0.0032999999999998586,-2.706342716641815
0.0022999999999999687,-2.8379108675292635
0.0012999999999998568,-3.0119203574126634
0.00029999999999996696,-3.0996324580042955
-0.000700000000000145,-3.1859298472960624
-0.0017000000000000348,-3.1420737970002466
-0.0027000000000001467,-3.1859298472960624
-0.0037000000000000366,-3.2297858975918787
-0.0047000000000001485,-3.403795387475278
-0.005700000000000038,-3.5353635383627267
-0.00670000000000015,-3.579219588658543
-0.00770000000000004,-3.623075638954359
-0.008700000000000152,-3.623075638954359
-0.009700000000000042,-3.623075638954359
-0.010700000000000154,-3.7532290785419424
-0.011700000000000044,-3.884797229429391
-0.012700000000000156,-4.014950669016974
-0.013700000000000045,-4.102662769608606
-0.014700000000000157,-4.102662769608606
-0.015700000000000047,-4.102662769608606
-0.01670000000000016,-4.146518819904423
-0.01770000000000005,-4.276672259492005
-0.01870000000000016,-4.406825699079589
-0.01970000000000005,-4.538393849967037
-0.020700000000000163,-4.582249900262854
-0.021700000000000053,-4.582249900262854
-0.022700000000000164,-4.582249900262854
-0.023700000000000054,-4.668547289554621
-0.024700000000000166,-4.800115440442069
-0.025700000000000056,-4.974124930325469
-0.026700000000000168,-5.0618370309171015
-0.027700000000000058,-5.105693081212917
-0.02870000000000017,-5.149549131508733
-0.02970000000000006,-5.149549131508733
-0.03070000000000017,-5.279702571096316
-0.03170000000000006,-5.453712060979717
-0.03270000000000017,-5.629136262162981
-0.03370000000000006,-5.715433651454749
-0.034700000000000175,-5.715433651454749
-0.035700000000000065,-5.715433651454749
-0.03670000000000018,-5.80314575204638
-0.03770000000000007,-5.9347139029338285
-0.03870000000000018,-6.108723392817228
-0.03970000000000007,-6.238876832404812
-0.04070000000000018,-6.326588932996443
-0.04170000000000007,-6.37044498329226
-0.04270000000000018,-6.37044498329226
-0.04370000000000007,-6.500598422879844
-0.044700000000000184,-6.632166573767292
-0.045700000000000074,-6.806176063650692
-0.046700000000000186,-6.93774421453814
-0.047700000000000076,-7.024041603829907
-0.04870000000000019,-7.024041603829907
-0.04970000000000008,-7.067897654125724
-0.05070000000000019,-7.199465805013171
-0.05170000000000008,-7.37347529489657
-0.05270000000000019,-7.5474847847799715
-0.05370000000000008,-7.679052935667419
-0.05470000000000019,-7.722908985963235
-0.05570000000000008,-7.722908985963235
-0.056700000000000195,-7.809206375255003
-0.057700000000000085,-7.940774526142452
-0.058700000000000196,-8.158640066321666
-0.059700000000000086,-8.332649556205066
-0.0607000000000002,-8.4203616567967
-0.06170000000000009,-8.464217707092514
-0.0627000000000002,-8.508073757388331
-0.06370000000000009,-8.55051509638428
-0.0647000000000002,-8.769795347863363
-0.06570000000000009,-8.943804837746763
-0.0667000000000002,-9.073958277334345
-0.0677000000000001,-9.161670377925978
-0.0687000000000002,-9.205526428221793
-0.0697000000000001,-9.24938247851761
-0.07070000000000021,-9.379535918105192
-0.0717000000000001,-9.511104068992642
-0.07270000000000021,-9.728969609171857
-0.0737000000000001,-9.85912304875944
-0.07470000000000021,-9.85912304875944
-0.0757000000000001,-9.902979099055257
-0.07670000000000021,-9.99069119964689
-0.0777000000000001,-10.120844639234473
-0.07870000000000021,-10.296268840417738
-0.0797000000000001,-10.470278330301136
-0.08070000000000022,-10.557990430892769
-0.0817000000000001,-10.601846481188586
-0.08270000000000022,-10.644287820184536
-0.08370000000000011,-10.775855971071984
-0.08470000000000022,-10.906009410659568
-0.08570000000000011,-11.123874950838783
-0.08670000000000022,-11.255443101726232
-0.08770000000000011,-11.343155202317865
-0.08870000000000022,-11.343155202317865
-0.08970000000000011,-11.42945259160963
-0.09070000000000022,-11.517164692201263
-0.09170000000000011,-11.691174182084664
-0.09270000000000023,-11.909039722263879
-0.09370000000000012,-12.040607873151327
-0.09470000000000023,-12.040607873151327
-0.09570000000000012,-12.084463923447142
-0.09670000000000023,-12.170761312738911
-0.09770000000000012,-12.302329463626359
-0.09870000000000023,-12.520195003805576
-0.09970000000000012,-12.651763154693022
-0.10070000000000023,-12.781916594280606
-0.10170000000000012,-12.825772644576423
-0.10270000000000024,-12.825772644576423
-0.10370000000000013,-12.913484745168056
-0.10470000000000024,-13.087494235051453
-0.10570000000000013,-13.261503724934855
-0.10670000000000024,-13.3930718758223
-0.10770000000000013,-13.47936926511407
-0.10870000000000024,-13.523225315409885
-0.10970000000000013,-13.567081365705702
-0.11070000000000024,-13.698649516593148
-0.11170000000000013,-13.872659006476551
-0.11270000000000002,-14.002812446064135
-0.11370000000000013,-14.13438059695158
-0.11470000000000002,-14.175407224647667
-0.11570000000000014,-14.175407224647667
-0.11670000000000003,-14.26028990263957
-0.11770000000000014,-14.401761032626075
-0.11870000000000003,-14.61396772760583
-0.11970000000000014,-14.783733083589633
-0.12070000000000003,-14.868615761581536
-0.12170000000000014,-14.925204213576137
-0.12270000000000003,-14.967645552572087
-0.12370000000000014,-15.01008689156804
-0.12470000000000003,-15.179852247551842
-0.12570000000000014,-15.349617603535648
-0.12670000000000003,-15.533530072518102
-0.12770000000000015,-15.618412750510005
-0.12870000000000004,-15.618412750510005
-0.12970000000000015,-15.70329542850191
-0.13070000000000004,-15.830619445489761
-0.13170000000000015,-16.014531914472215
-0.13270000000000004,-16.22673860945197
-0.13370000000000015,-16.311621287443874
-0.13470000000000004,-16.396503965435777
-0.13570000000000015,-16.396503965435777
-0.13670000000000004,-16.53797509542228
-0.13770000000000016,-16.70774045140608
-0.13870000000000005,-16.877505807389888
-0.13970000000000016,-17.103859615368293
-0.14070000000000005,-17.231183632356142
-0.14170000000000016,-17.2736249713521
-0.14270000000000005,-17.316066310348052
-0.14370000000000016,-17.40094898833995
-0.14470000000000005,-17.627302796318357
-0.14570000000000016,-17.839509491298113
-0.14670000000000005,-18.009274847281915
-0.14770000000000016,-18.15074597726842
-0.14870000000000005,-18.19318731626437
-0.14970000000000017,-18.27806999425627
-0.15070000000000006,-18.44783535024008
-0.15170000000000017,-18.674189158218486
-0.15270000000000006,-18.88639585319824
-0.15370000000000017,-19.056161209182044
-0.15470000000000006,-19.155191000172596
-0.15570000000000017,-19.197632339168546
-0.15670000000000006,-19.3249563561564
-0.15770000000000017,-19.49472171214021
-0.15870000000000006,-19.763516859114564
-0.15970000000000018,-19.93328221509837
-0.16070000000000007,-20.10304757108217
-0.16170000000000018,-20.202077362072725
-0.16270000000000007,-20.244518701068674
-0.16370000000000018,-20.414284057052477
-0.16470000000000007,-20.626490752032236
-0.16570000000000018,-20.89528589900659
-0.16670000000000007,-21.107492593986347
-0.16770000000000018,-21.2065223849769
-0.16870000000000007,-21.291405062968803
-0.16970000000000018,-21.376287740960702
-0.17070000000000007,-21.58849443594046
-0.17170000000000019,-21.814848243918867
-0.17270000000000008,-22.069496277894572
-0.1737000000000002,-22.253408746877028
-0.17470000000000008,-22.38073276386488
-0.1757000000000002,-22.42317410286083
-0.17670000000000008,-22.592939458844636
-0.1777000000000002,-22.776851927827092
-0.17870000000000008,-23.073941300798747
-0.1797000000000002,-23.300295108777156
-0.18070000000000008,-23.47006046476096
-0.1817000000000002,-23.597384481748815
-0.18270000000000008,-23.682267159740714
-0.1837000000000002,-23.823738289727217
-0.1847000000000001,-24.120827662698876
-0.1857000000000002,-24.389622809673234
-0.1867000000000001,-24.601829504652986
-0.1877000000000002,-24.729153521640843
-0.1887000000000001,-24.814036199632742
-0.1897000000000002,-24.95550732961925
-0.1907000000000001,-25.12527268560305
-0.1917000000000001,-25.43650917157336
-0.19269999999999998,-25.691157205549064
-0.1937000000000001,-25.91751101352747
-0.19469999999999998,-26.002393691519377
-0.1957000000000001,-26.087276369511276
-0.19669999999999999,-26.21460038649913
-0.1977000000000001,-26.440954194477534
-0.1987,-26.738043567449193
-0.1997000000000001,-26.9643973754276
-0.2007,-27.134162731411404
-0.2017000000000001,-27.261486748399253
-0.2027,-27.303928087395207
-0.2037000000000001,-27.43125210438306
-0.2047,-27.700047251357418
-0.2057000000000001,-27.954695285333123
-0.2067,-28.22349043230748
-0.2077000000000001,-28.350814449295335
-0.2087,-28.435697127287238
-0.2097000000000001,-28.53472691827779
-0.2107,-28.704492274261593
-0.2117000000000001,-28.91669896924135
-0.2127,-29.18549411621571
-0.2137000000000001,-29.35525947219951
-0.2147,-29.440142150191413
-0.2157000000000001,-29.581613280177915
-0.2167,-29.708937297165768
-0.21770000000000012,-29.878702653149578
-0.2187,-30.10505646112798
-0.21970000000000012,-30.359704495103685
-0.2207,-30.487028512091538
-0.22170000000000012,-30.571911190083444
-0.2227,-30.614352529079397
-0.22370000000000012,-30.71338232006995
-0.2247,-30.925589015049702
-0.22570000000000012,-31.137795710029454
-0.2267,-31.321708179011907
-0.22770000000000012,-31.449032195999767
-0.22870000000000001,-31.449032195999767
-0.22970000000000013,-31.49147353499572
-0.23070000000000002,-31.57635621298762
-0.23170000000000013,-31.802710020966025
-0.23270000000000002,-32.01491671594578
-0.23370000000000013,-32.14224073293363
-0.23470000000000002,-32.14224073293363
-0.23570000000000013,-32.184682071929586
-0.23670000000000002,-32.24127052392419
-0.2376999999999999,-32.368594540912035
-0.23870000000000002,-32.58080123589179
-0.2396999999999999,-32.66568391388369
-0.24070000000000003,-32.807155043870196
-0.24169999999999991,-32.84959638286615
-0.24270000000000003,-32.84959638286615
-0.24369999999999992,-32.892037721862096
-0.24470000000000003,-33.06180307784591
-0.24569999999999992,-33.18912709483376
-0.24670000000000003,-33.330598224820264
-0.24769999999999992,-33.373039563816214
-0.24870000000000003,-33.330598224820264
-0.24969999999999992,-33.373039563816214
-0.25070000000000003,-33.41548090281216
-0.2516999999999999,-33.50036358080407
-0.25270000000000004,-33.627687597791926
-0.2536999999999999,-33.670128936787876
-0.25470000000000004,-33.627687597791926
-0.2556999999999999,-33.58524625879597
-0.25670000000000004,-33.58524625879597
-0.25769999999999993,-33.627687597791926
-0.25870000000000004,-33.755011614779775
-0.25969999999999993,-33.85404140577033
-0.26070000000000004,-33.81160006677438
-0.26169999999999993,-33.755011614779775
-0.26270000000000004,-33.670128936787876
-0.26369999999999993,-33.58524625879597
-0.26470000000000005,-33.670128936787876
-0.26569999999999994,-33.755011614779775
-0.26670000000000005,-33.85404140577033
-0.26769999999999994,-33.81160006677438
-0.26870000000000005,-33.712570275783825
-0.26969999999999994,-33.58524625879597
-0.27070000000000005,-33.54280491980002
-0.27169999999999994,-33.54280491980002
-0.27270000000000005,-33.627687597791926
-0.27369999999999994,-33.58524625879597
-0.27470000000000006,-33.50036358080407
-0.27569999999999995,-33.41548090281216
-0.27670000000000006,-33.288156885824314
-0.27769999999999995,-33.288156885824314
-0.27870000000000006,-33.288156885824314
-0.27969999999999995,-33.231568433829715
-0.28070000000000006,-33.14668575583781
-0.28169999999999995,-33.01936173884996
-0.28270000000000006,-32.84959638286615
-0.28369999999999995,-32.764713704874254
-0.28470000000000006,-32.764713704874254
-0.28569999999999995,-32.807155043870196
-0.28670000000000007,-32.807155043870196
-0.28769999999999996,-32.62324257488775
-0.28870000000000007,-32.45347721890394
-0.28969999999999996,-32.24127052392419
-0.29070000000000007,-32.14224073293363
-0.29169999999999996,-32.09979939393769
-0.29270000000000007,-32.09979939393769
-0.29369999999999996,-32.01491671594578
-0.2947000000000001,-31.802710020966025
-0.29569999999999996,-31.57635621298762
-0.2967000000000001,-31.321708179011907
-0.29769999999999996,-31.23682550102001
-0.2987000000000001,-31.137795710029454
-0.29969999999999997,-31.095354371033505
-0.3007000000000001,-30.925589015049702
-0.30169999999999997,-30.7558236590659
-0.3027000000000001,-30.444587173095588
-0.30369999999999997,-30.274821817111786
-0.3047000000000001,-30.147497800123933
-0.30569999999999997,-30.04846800913338
-0.3067000000000001,-29.96358533114148
-0.3077,-29.751378636161718
-0.3087000000000001,-29.482583489187363
-0.3097,-29.22793545521166
-0.3107000000000001,-29.100611438223805
-0.3117,-28.959140308237306
-0.3127000000000001,-28.831816291249446
-0.3137,-28.662050935265643
-0.3147000000000001,-28.393255788291288
-0.3157,-28.09616641531963
-0.3167000000000001,-27.869812607341224
-0.3177,-27.742488590353368
-0.3187000000000001,-27.65760591236147
-0.3197,-27.530281895373616
-0.3207000000000001,-27.303928087395207
-0.3217,-27.00683871442355
-0.3227000000000001,-26.65316088945729
-0.3237,-26.440954194477534
-0.3247000000000001,-26.29948306449103
-0.3257,-26.21460038649913
-0.3267000000000001,-26.087276369511276
-0.3277,-25.86092256153287
-0.3287000000000001,-25.563833188561212
-0.3297,-25.295038041586857
-0.3307000000000001,-25.0828313466071
-0.3317,-24.95550732961925
-0.3327000000000001,-24.814036199632742
-0.3337,-24.64427084364894
-0.3347000000000001,-24.389622809673234
-0.3357,-24.16326900169483
-0.3367000000000001,-23.993503645711023
-0.3377,-23.86617962872317
-0.3387000000000001,-23.767149837732617
-0.3397,-23.639825820744765
-0.3407000000000001,-23.47006046476096
-0.3417,-23.2012653177866
-0.3427000000000001,-22.946617283810895
-0.3437,-22.776851927827092
-0.3447000000000001,-22.72026347583249
-0.3457,-22.67782213683654
-0.3467000000000001,-22.592939458844636
-0.3477,-22.46561544185678
-0.3487000000000001,-22.253408746877028
-0.3497,-22.069496277894572
-0.3507000000000001,-22.027054938898623
-0.3517,-22.027054938898623
-0.3527000000000001,-22.069496277894572
-0.3537,-22.027054938898623
-0.3547000000000001,-21.857289582914817
-0.3557,-21.67337711393236
-0.35670000000000013,-21.54605309694451
-0.3577,-21.54605309694451
-0.35870000000000013,-21.63093577493641
-0.3597,-21.67337711393236
-0.36070000000000013,-21.67337711393236
-0.3617,-21.54605309694451
-0.3626999999999999,-21.418729079956652
-0.3637,-21.376287740960702
-0.3646999999999999,-21.461170418952605
-0.3657,-21.54605309694451
-0.3666999999999999,-21.58849443594046
-0.3677,-21.54605309694451
-0.3686999999999999,-21.461170418952605
-0.36970000000000003,-21.418729079956652
-0.3706999999999999,-21.461170418952605
-0.37170000000000003,-21.54605309694451
-0.3726999999999999,-21.67337711393236
-0.37370000000000003,-21.67337711393236
-0.3746999999999999,-21.67337711393236
-0.37570000000000003,-21.63093577493641
-0.3766999999999999,-21.63093577493641
-0.37770000000000004,-21.772406904922917
-0.3786999999999999,-21.94217226090672
-0.37970000000000004,-22.111937616890522
-0.3806999999999999,-22.15437895588647
-0.38170000000000004,-22.15437895588647
-0.38269999999999993,-22.15437895588647
-0.38370000000000004,-22.15437895588647
-0.38469999999999993,-22.33829142486893
-0.38570000000000004,-22.508056780852733
-0.38669999999999993,-22.63538079784059
-0.38770000000000004,-22.72026347583249
-0.38869999999999993,-22.72026347583249
-0.38970000000000005,-22.776851927827092
-0.39069999999999994,-22.904175944814945
-0.39170000000000005,-23.031499961802798
-0.39269999999999994,-23.24370665678255
-0.39370000000000005,-23.385177786769056
-0.39469999999999994,-23.385177786769056
-0.39570000000000005,-23.385177786769056
-0.39669999999999994,-23.427619125765005
-0.39770000000000005,-23.597384481748815
-0.39869999999999994,-23.823738289727217
-0.39970000000000006,-23.993503645711023
-0.40069999999999995,-24.078386323702922
-0.40170000000000006,-24.078386323702922
-0.40269999999999995,-24.120827662698876
-0.40370000000000006,-24.20571034069078
-0.40469999999999995,-24.389622809673234
-0.40570000000000006,-24.559388165657033
-0.40669999999999995,-24.771594860636792
-0.40770000000000006,-24.814036199632742
-0.40869999999999995,-24.870624651627345
-0.40970000000000006,-24.9130659906233
-0.41069999999999995,-25.04039000761115
-0.41170000000000007,-25.210155363594954
-0.41269999999999996,-25.43650917157336
-0.41370000000000007,-25.563833188561212
-0.41469999999999996,-25.60627452755716
-0.41570000000000007,-25.60627452755716
-0.41669999999999996,-25.648715866553115
-0.41770000000000007,-25.77603988354097
-0.41869999999999996,-25.959952352523427
-0.4197000000000001,-26.17215904750318
-0.42069999999999996,-26.257041725495082
-0.4217000000000001,-26.257041725495082
-0.42269999999999996,-26.257041725495082
-0.4237000000000001,-26.34192440348698
-0.42469999999999997,-26.483395533473487
-0.4257000000000001,-26.69560222845324
-0.42669999999999997,-26.780484906445146
-0.4277000000000001,-26.86536758443705
-0.42869999999999997,-26.822926245441096
-0.4297000000000001,-26.86536758443705
-0.43069999999999997,-26.9643973754276
-0.4317000000000001,-27.091721392415455
-0.4327,-27.261486748399253
-0.4337000000000001,-27.34636942639116
-0.4347,-27.303928087395207
-0.4357000000000001,-27.303928087395207
-0.4367,-27.34636942639116
-0.4377000000000001,-27.487840556377662
-0.4387,-27.65760591236147
-0.4397000000000001,-27.742488590353368
-0.4407,-27.78492992934932
-0.4417000000000001,-27.78492992934932
-0.4427,-27.742488590353368
-0.4437000000000001,-27.78492992934932
-0.4447,-27.912253946337174
-0.4457000000000001,-28.05372507632368
-0.4467,-28.13860775431558
-0.4477000000000001,-28.13860775431558
-0.4487,-28.09616641531963
-0.4497000000000001,-28.05372507632368
-0.4507,-28.13860775431558
-0.4517000000000001,-28.265931771303435
-0.4527,-28.393255788291288
-0.4537000000000001,-28.435697127287238
-0.4547,-28.435697127287238
-0.4557000000000001,-28.350814449295335
-0.4567,-28.350814449295335
-0.4577000000000001,-28.478138466283188
-0.4587,-28.619609596269694
-0.4597000000000001,-28.704492274261593
-0.4607,-28.746933613257543
-0.4617000000000001,-28.704492274261593
-0.4627,-28.662050935265643
-0.4637000000000001,-28.704492274261593
-0.4647,-28.831816291249446
-0.4657000000000001,-29.001581647233255
-0.4667,-29.14305277721976
-0.4677000000000001,-29.18549411621571
-0.4687,-29.14305277721976
-0.4697000000000001,-29.18549411621571
-0.4707,-29.31281813320356
-0.4717000000000001,-29.525024828183312
-0.4727,-29.751378636161718
-0.4737000000000001,-29.921143992145527
-0.4747,-30.04846800913338
-0.4757000000000001,-30.147497800123933
-0.4767,-30.317263156107735
-0.4777000000000001,-30.571911190083444
-0.4787,-30.968030354045652
-0.4797000000000001,-31.321708179011907
-0.4807,-31.717827342974125
-0.48170000000000013,-32.05735805494172
-0.4827,-32.49591855789989
-0.48370000000000013,-33.06180307784591
-0.4847,-33.755011614779775
-0.48570000000000013,-34.58969128170015
-0.4867,-34.377484586720385
-0.48570000000000013,-32.97692039985401
-0.4847,-32.24127052392419
-0.48370000000000013,-31.802710020966025
-0.4827,-31.717827342974125
-0.48170000000000013,-31.76026868197007
-0.4807,-31.887592698957924
-0.4797000000000001,-32.09979939393769
-0.4787,-32.283711862920136
-0.4777000000000001,-32.49591855789989
-0.4767,-32.807155043870196
-0.4757000000000001,-33.18912709483376
-0.4747,-33.670128936787876
-0.4737000000000001,-34.15113077874198
-0.4727,-34.5472499427042
-0.4717000000000001,-34.90092776767045
-0.4707,-35.240458479638065
-0.4697000000000001,-35.636577643600276
-0.4687,-36.07513814655844
-0.4677000000000001,-36.55613998851254
-0.4667,-36.95225915247476
-0.4657000000000001,-37.206907186450465
