Potential V vs RHE, Current mA cm-2
0.4132999999999999,0.0063534684476938795
0.4122999999999999,0.004155007087703612
0.4112999999999999,0.0033429628015810816
0.4102999999999999,0.0028732786500258894
0.4092999999999999,0.0024658417956647588
0.4082999999999999,0.002163093577493641
0.4072999999999999,0.0019098602548177994
0.4062999999999999,0.001700482982437774
0.4052999999999999,0.0014684703292599081
0.4042999999999999,0.0012131149396342688
0.4032999999999999,0.0010526866782295738
0.4022999999999999,0.0008880142829252835
0.4012999999999999,0.0007428649035591307
0.4002999999999999,0.0005627721550863116
0.3992999999999999,0.00033811600066774376
0.3982999999999999,0.00020272812927065974
0.3972999999999999,0.00011892063186665498
0.3962999999999999,-1.9268367904161802e-05
0.3952999999999999,-0.00014345172580631471
0.3942999999999999,-0.0003178856290796737
0.39329999999999987,-0.0004337504845386202
0.39229999999999987,-0.0005272629014596992
0.39129999999999987,-0.0006264341635802382
0.39029999999999987,-0.0007464016818087934
0.38929999999999987,-0.0008902778210050675
0.38829999999999987,-0.0010185921359028263
0.38729999999999987,-0.0010618823016786967
0.38629999999999987,-0.001174917734537913
0.38529999999999986,-0.0012796063707279258
0.38429999999999986,-0.0014135795308251446
0.38329999999999986,-0.0015293029151541046
0.38229999999999986,-0.001578817810649381
0.38129999999999986,-0.0016424798191433075
0.38029999999999986,-0.0017570714344323753
0.37929999999999986,-0.0018787366062207687
0.37829999999999986,-0.001979181108511186
0.37729999999999986,-0.0020612343639033583
0.37629999999999986,-0.0021008462802995795
0.37529999999999986,-0.002205534916489592
0.37429999999999986,-0.0023073941300798748
0.37329999999999985,-0.002405009209770562
0.37229999999999985,-0.0024531093939659738
0.37129999999999985,-0.0024913065990623292
0.37029999999999985,-0.002594580523952477
0.36929999999999985,-0.0027190751183406004
0.36829999999999985,-0.0027869812607341222
0.36729999999999985,-0.002829422599730073
0.36629999999999985,-0.0028874257630245397
0.36529999999999985,-0.002959576039317657
0.36429999999999985,-0.0030755823659065896
0.36329999999999985,-0.0031293413953014607
0.36229999999999984,-0.003173197445597277
0.36129999999999984,-0.0032326153201916084
0.36029999999999984,-0.0033174979981835107
0.35929999999999984,-0.003433504324772444
0.35829999999999984,-0.003521216425364076
0.35729999999999984,-0.0035381929609624566
0.35629999999999984,-0.003591951990357328
0.35529999999999984,-0.003628734484153819
0.35429999999999984,-0.003744740810742752
0.35329999999999984,-0.0038041586853370833
0.35229999999999984,-0.003819720509635599
0.35129999999999983,-0.0038918707859287157
0.35029999999999983,-0.003939970970124128
0.34929999999999983,-0.004057392008012925
0.34829999999999983,-0.004121054016506852
0.34729999999999983,-0.004177642468501453
0.34629999999999983,-0.004183301313700913
0.34529999999999983,-0.004245548610894975
0.34429999999999983,-0.004326187154987282
0.3432999999999998,-0.004396922719980534
0.3422999999999998,-0.004422387523378105
0.3412999999999998,-0.004457755305874731
0.3402999999999998,-0.004514343757869332
0.3392999999999998,-0.004599226435861235
0.3382999999999998,-0.004657229599155701
0.3372999999999998,-0.004686938536452867
0.3362999999999998,-0.004699670938151652
0.3352999999999998,-0.004766162369245309
0.3342999999999998,-0.00484538620203775
0.3332999999999998,-0.004907633499231813
0.3322999999999998,-0.004924610034830193
0.3312999999999998,-0.004937342436528979
0.3302999999999998,-0.00501373684672169
0.3292999999999998,-0.005105693081212918
0.3282999999999998,-0.005131157884610488
0.3272999999999998,-0.005152378554108463
0.3262999999999998,-0.00517642864620617
0.3252999999999999,-0.005233017098200771
0.3242999999999999,-0.005316485064892808
0.3232999999999999,-0.005350438136089568
0.3222999999999999,-0.0053730735168874095
0.3212999999999999,-0.005425417834982416
0.3202999999999999,-0.005442394370580797
0.3192999999999999,-0.005537180027671754
0.3182999999999999,-0.00559235376836649
0.3172999999999999,-0.005616403860464196
0.3162999999999999,-0.005657430488160281
0.3152999999999999,-0.0057027012497559626
0.3142999999999999,-0.00580031632944665
0.3132999999999999,-0.005841342957142736
0.3122999999999999,-0.005841342957142736
0.3112999999999999,-0.005855490070141387
0.3102999999999999,-0.0058866137187384175
0.3092999999999999,-0.005979984664529509
0.3082999999999999,-0.0060365731165241115
0.3072999999999999,-0.006030914271324651
0.3062999999999999,-0.0060493055182228965
0.3052999999999999,-0.006108723392817228
0.3042999999999999,-0.00617662953521075
0.3032999999999999,-0.006206338472507916
0.3022999999999999,-0.006211997317707376
0.3012999999999999,-0.006224729719406161
0.3002999999999999,-0.006278488748801033
0.2992999999999999,-0.00635063902509415
0.2982999999999999,-0.00639025094149037
0.2972999999999999,-0.006401568631889292
0.2962999999999999,-0.006414301033588077
0.2952999999999999,-0.0064822071759815985
0.2942999999999999,-0.006534551494076604
0.2932999999999999,-0.00656143100877404
0.2922999999999999,-0.006586895812171611
0.2912999999999999,-0.006589725234771341
0.2902999999999999,-0.0066576313771648625
0.2892999999999999,-0.006707146272660138
0.2882999999999999,-0.00675241703425582
0.2872999999999999,-0.0067609053020550106
0.2862999999999999,-0.006773637703753795
0.2852999999999999,-0.006804761352350827
0.2842999999999999,-0.0068853998964431345
0.2832999999999999,-0.006919352967639895
0.2822999999999999,-0.0069448177710374655
0.2812999999999999,-0.0069575501727362505
0.2802999999999999,-0.0069745267083346305
0.2792999999999999,-0.007062238808926264
0.2782999999999999,-0.0070990213027227545
0.2772999999999999,-0.007091947746223429
0.2762999999999999,-0.007110338993121673
0.2752999999999999,-0.0071329743739195145
0.2742999999999999,-0.007233418876209932
0.2732999999999999,-0.007280104349105479
0.2722999999999999,-0.007282933771705209
0.2712999999999999,-0.0073211309768015645
0.2702999999999999,-0.007343766357599406
0.2692999999999999,-0.007396110675694412
0.26829999999999987,-0.007444210859889824
0.26729999999999987,-0.0074201607677921175
0.26629999999999987,-0.0074541138389888776
0.26529999999999987,-0.00750504344578402
0.26429999999999987,-0.0075503142073797
0.26329999999999987,-0.0075955849689753815
0.26229999999999987,-0.007588511412476056
0.26129999999999987,-0.007594170257675516
0.26029999999999986,-0.007647929287070387
0.25929999999999986,-0.007680467646967283
0.25829999999999986,-0.007755447345860131
0.25729999999999986,-0.00774695907806094
0.25629999999999986,-0.007738470810261752
0.25529999999999986,-0.0077837415718574315
0.25429999999999986,-0.00786155069335001
0.25329999999999986,-0.007882771362847985
0.25229999999999986,-0.007902577321046095
0.25129999999999986,-0.00789267434194704
0.25029999999999986,-0.007926627413143799
0.24929999999999986,-0.008003021823336513
0.24829999999999985,-0.008032730760633678
0.24729999999999985,-0.008046877873632327
0.24629999999999985,-0.008044048451032598
0.24529999999999985,-0.008104881036926794
0.24429999999999985,-0.008167128334120857
0.24329999999999985,-0.008201081405317619
0.24229999999999985,-0.008188349003618832
0.24129999999999985,-0.00820391082791735
0.24029999999999985,-0.008223716786115458
0.23929999999999985,-0.008298696485008306
0.23829999999999985,-0.008331234844905201
0.23729999999999984,-0.00833689369010466
0.23629999999999984,-0.008351040803103312
0.23529999999999984,-0.008386408585599936
0.23429999999999984,-0.008475535397491435
0.23329999999999984,-0.008510903179988061
0.23229999999999984,-0.008501000200889005
0.23129999999999984,-0.008512317891287926
0.23029999999999984,-0.008529294426886306
0.22929999999999984,-0.008580224033681447
0.22829999999999984,-0.008628324217876859
0.22729999999999984,-0.008601444703179422
0.22629999999999983,-0.008643886042175374
0.22529999999999983,-0.008677839113372134
0.22429999999999983,-0.008741501121866063
0.22329999999999983,-0.008768380636563497
0.22229999999999983,-0.008765551213963767
0.22129999999999983,-0.008771210059163228
0.22029999999999983,-0.008793845439961067
0.21929999999999983,-0.008868825138853915
0.21829999999999983,-0.00890985176655
0.21729999999999983,-0.008916925323049326
0.21629999999999983,-0.008907022343950272
0.21529999999999982,-0.008950878394246088
0.21429999999999982,-0.008994734444541904
0.21329999999999982,-0.009048493473936775
0.21229999999999982,-0.009051322896536505
0.21129999999999982,-0.00903576107223799
0.21029999999999982,-0.009073958277334345
0.20929999999999982,-0.009154596821426653
0.20829999999999982,-0.009192794026523008
0.20729999999999982,-0.009202697005622063
0.20629999999999982,-0.009214014696020985
0.20529999999999982,-0.009212599984721119
0.20429999999999982,-0.009279091415814776
0.20329999999999981,-0.009297482662713021
0.2022999999999998,-0.009318703332210998
0.2012999999999998,-0.009341338713008837
0.20029999999999992,-0.009332850445209647
0.19929999999999992,-0.00941773312320155
0.19829999999999992,-0.009458759750897636
0.19729999999999992,-0.009450271483098446
0.19629999999999992,-0.009451686194398309
0.19529999999999992,-0.009470077441296555
0.19429999999999992,-0.009607304437383465
0.19329999999999992,-0.0096624781780782
0.19229999999999992,-0.009610133859983196
0.19129999999999991,-0.009622866261681979
0.1902999999999999,-0.009629939818181305
0.1892999999999999,-0.009693601826675231
0.1882999999999999,-0.009737457876971048
0.1872999999999999,-0.009726140186572127
0.1862999999999999,-0.009743116722170509
0.1852999999999999,-0.009764337391668482
0.1842999999999999,-0.009811022864564029
0.1832999999999999,-0.0098647818939589
0.1822999999999999,-0.009854878914859847
0.1812999999999999,-0.009871855450458227
0.1802999999999999,-0.009894490831256066
0.1792999999999999,-0.009929858613752693
0.1782999999999999,-0.009992105910946755
0.1772999999999999,-0.009980788220547833
0.1762999999999999,-0.009997764756146214
0.1752999999999999,-0.01003030311604311
0.1742999999999999,-0.010081232722838252
0.1732999999999999,-0.010125088773134068
0.1722999999999999,-0.010122259350534337
0.1712999999999999,-0.010118015216634742
0.1702999999999999,-0.010153382999131369
0.1692999999999999,-0.01021563029632543
0.1682999999999999,-0.010259486346621246
0.1672999999999999,-0.010267974614420437
0.1662999999999999,-0.010245339233622594
0.1652999999999999,-0.010286365861318682
0.1642999999999999,-0.01034436902461315
0.1632999999999999,-0.010371248539310585
0.1622999999999999,-0.010391054497508694
0.1612999999999999,-0.01039812805400802
0.1602999999999999,-0.010408031033107074
0.1592999999999999,-0.010468863619001272
0.15829999999999989,-0.010519793225796412
0.15729999999999988,-0.010509890246697358
0.15629999999999988,-0.010522622648396141
0.15529999999999988,-0.010539599183994523
0.15429999999999988,-0.01060609061508818
0.15329999999999988,-0.010655605510583456
0.15229999999999988,-0.010635799552385347
0.15129999999999988,-0.010661264355782915
0.15029999999999988,-0.010668337912282241
0.14929999999999988,-0.010747561745074683
0.14829999999999988,-0.010804150197069285
0.14729999999999988,-0.010778685393671715
0.14629999999999987,-0.010784344238871176
0.14529999999999987,-0.010818297310067934
0.14429999999999987,-0.010873471050762671
0.14329999999999987,-0.010942791904456059
0.14229999999999987,-0.010969671419153495
0.14129999999999987,-0.010941377193156193
0.14029999999999987,-0.010978159686952683
0.13929999999999987,-0.01102484515984823
0.13829999999999987,-0.011078604189243103
0.13729999999999987,-0.011072945344043643
0.13629999999999987,-0.011102654281340808
0.13529999999999986,-0.011143680909036894
0.13429999999999986,-0.011227148875728931
0.13329999999999986,-0.011290810884222858
0.13229999999999986,-0.011290810884222858
0.13129999999999986,-0.011254028390426368
0.13029999999999986,-0.011280907905123802
0.12929999999999986,-0.01134739933621746
0.12829999999999986,-0.011371449428315167
0.12729999999999986,-0.01139549952041287
0.12629999999999986,-0.01142096432381044
0.12529999999999986,-0.011415305478610981
0.12429999999999986,-0.011491699888803693
0.12329999999999985,-0.011541214784298969
0.12229999999999985,-0.011538385361699238
0.12129999999999985,-0.011556776608597484
0.12029999999999985,-0.011549703052098159
0.11929999999999985,-0.01162609746229087
0.11829999999999985,-0.011671368223886553
0.11729999999999985,-0.011696833027284121
0.11629999999999985,-0.011716638985482234
0.11529999999999985,-0.011705321295083315
0.11429999999999985,-0.01177181272617697
0.11329999999999985,-0.011822742332972112
0.11229999999999984,-0.011822742332972112
0.11129999999999984,-0.011839718868570492
0.11029999999999984,-0.011853865981569142
0.10929999999999984,-0.011921772123962664
0.10829999999999984,-0.011985434132456592
0.10729999999999984,-0.011982604709856862
0.10629999999999984,-0.01197411644205767
0.10529999999999984,-0.011995337111555645
0.10429999999999984,-0.012057584408749707
0.10329999999999984,-0.01212831997374296
0.10229999999999984,-0.012109928726844714
0.10129999999999983,-0.012114172860744309
0.10029999999999983,-0.012172176024038774
0.09929999999999983,-0.012210373229135131
0.09829999999999983,-0.012274035237629058
0.09729999999999983,-0.012262717547230139
0.09629999999999983,-0.012282523505428248
0.09529999999999983,-0.012313647154025277
0.09429999999999983,-0.012354673781721365
0.09329999999999983,-0.012423994635414753
0.09229999999999983,-0.012442385882312997
0.09129999999999983,-0.012459362417911377
0.09029999999999982,-0.012474924242209893
0.08929999999999982,-0.012565465765401256
0.08829999999999982,-0.012624883639995588
0.08729999999999982,-0.012650348443393158
0.08629999999999982,-0.012641860175593968
0.08529999999999982,-0.012663080845091943
0.08429999999999982,-0.0127295722761856
0.08329999999999982,-0.01275220765698344
0.08229999999999982,-0.01277484303778128
0.08129999999999982,-0.012790404862079796
0.08029999999999982,-0.01279747841857912
0.07929999999999982,-0.012882361096571024
0.07829999999999981,-0.01293470541466603
0.07729999999999981,-0.012941778971165356
0.07629999999999981,-0.01295451137286414
0.07529999999999992,-0.012974317331062251
0.07429999999999992,-0.013043638184755638
0.07329999999999992,-0.013095982502850644
0.07229999999999992,-0.01310871490454943
0.07129999999999992,-0.013138423841846596
0.07029999999999992,-0.01314266797574619
0.06929999999999992,-0.013216232963339174
0.06829999999999992,-0.013294042084831748
0.06729999999999992,-0.013294042084831748
0.06629999999999991,-0.013306774486530537
0.06529999999999991,-0.013357704093325677
0.06429999999999991,-0.013408633700120817
0.06329999999999991,-0.013494931089412587
0.06229999999999991,-0.013489272244213124
0.06129999999999991,-0.01349068695551299
0.06029999999999991,-0.013557178386606646
0.05929999999999991,-0.013609522704701654
0.05829999999999991,-0.01367318471319558
0.05729999999999991,-0.013668940579295984
0.056299999999999906,-0.013684502403594501
0.055299999999999905,-0.013717040763491397
0.054299999999999904,-0.013775043926785864
0.0532999999999999,-0.013859926604777764
0.0522999999999999,-0.01388114727427574
0.0512999999999999,-0.013889635542074931
0.0502999999999999,-0.013923588613271691
0.0492999999999999,-0.013984421199165886
0.0482999999999999,-0.01404949791895968
0.0472999999999999,-0.014067889165857925
0.0462999999999999,-0.014067889165857925
0.045299999999999896,-0.014111745216153741
0.044299999999999895,-0.014189554337646317
0.043299999999999894,-0.01424614278964092
0.04229999999999989,-0.014288584128636872
0.04129999999999989,-0.014288584128636872
0.04029999999999989,-0.014373466806628774
0.03929999999999989,-0.014430055258623373
0.03829999999999989,-0.014486643710617976
0.03729999999999989,-0.014500790823616624
0.03629999999999989,-0.014529085049613928
0.03529999999999989,-0.014543232162612576
0.034299999999999886,-0.014642261953603129
0.033299999999999885,-0.014712997518596381
0.032299999999999884,-0.014727144631595034
0.031299999999999883,-0.014755438857592333
0.030299999999999883,-0.014783733083589632
0.02929999999999988,-0.014854468648582884
0.02829999999999988,-0.014939351326574786
0.02729999999999988,-0.014967645552572089
0.02629999999999988,-0.014995939778569388
0.025299999999999878,-0.015024234004566688
0.024299999999999877,-0.015080822456561293
0.023299999999999876,-0.015179852247551842
0.022299999999999875,-0.015179852247551842
0.021299999999999875,-0.015222293586547794
0.020299999999999874,-0.015278882038542396
0.019299999999999873,-0.015335470490536997
0.018299999999999872,-0.015420353168528897
0.01729999999999987,-0.01543450028152755
0.01629999999999987,-0.015448647394526203
0.01529999999999987,-0.015505235846520802
0.014299999999999868,-0.015590118524512706
0.013299999999999867,-0.015660854089505957
0.012299999999999978,-0.015703295428501907
0.011299999999999866,-0.015703295428501907
0.010299999999999976,-0.015745736767497857
0.009299999999999864,-0.01583061944548976
0.008299999999999974,-0.01591550212348166
0.007299999999999862,-0.015957943462477614
0.006299999999999972,-0.01597209057547626
0.00529999999999986,-0.016014531914472215
0.0042999999999999705,-0.016099414592464115
0.0032999999999998586,-0.01615600304445872
0.0022999999999999687,-0.01619844438345467
0.0012999999999998568,-0.016226738609451972
0.00029999999999996696,-0.01625503283544927
-0.000700000000000145,-0.016354062626439823
-0.0017000000000000348,-0.016424798191433075
-0.0027000000000001467,-0.01646723953042903
-0.0037000000000000366,-0.01650968086942498
-0.0047000000000001485,-0.01652382798242363
-0.005700000000000038,-0.01662285777341418
-0.00670000000000015,-0.01670774045140608
-0.00770000000000004,-0.01673603467740338
-0.008700000000000152,-0.016764328903400686
-0.009700000000000042,-0.016820917355395284
-0.010700000000000154,-0.01693409425938449
-0.011700000000000044,-0.01703312405037504
-0.012700000000000156,-0.017047271163373692
-0.013700000000000045,-0.017089712502369642
-0.014700000000000157,-0.017160448067362895
-0.015700000000000047,-0.017231183632356147
-0.01670000000000016,-0.017358507649344
-0.01770000000000005,-0.017372654762342652
-0.01870000000000016,-0.017400948988339954
-0.01970000000000005,-0.0174150961013386
-0.020700000000000163,-0.017471684553333203
-0.021700000000000053,-0.017584861457322406
-0.022700000000000164,-0.017599008570321057
-0.023700000000000054,-0.017641449909317007
-0.024700000000000166,-0.01769803836131161
-0.025700000000000056,-0.01776877392630486
-0.026700000000000168,-0.01785365660429676
-0.027700000000000058,-0.017896097943292714
-0.02870000000000017,-0.017910245056291362
-0.02970000000000006,-0.017966833508285963
-0.03070000000000017,-0.018051716186277867
-0.03170000000000006,-0.01812245175127112
-0.03270000000000017,-0.01816489309026707
-0.03370000000000006,-0.01817904020326572
-0.034700000000000175,-0.018221481542261674
-0.035700000000000065,-0.018334658446250877
-0.03670000000000018,-0.018391246898245478
-0.03770000000000007,-0.018447835350240076
-0.03870000000000018,-0.018461982463238727
-0.03970000000000007,-0.01850442380223468
-0.04070000000000018,-0.018617600706223883
-0.04170000000000007,-0.018688336271217135
-0.04270000000000018,-0.018702483384215783
-0.04370000000000007,-0.018730777610213082
-0.044700000000000184,-0.018787366062207687
-0.045700000000000074,-0.01887224874019959
-0.046700000000000186,-0.018957131418191494
-0.047700000000000076,-0.018985425644188793
-0.04870000000000019,-0.019027866983184743
-0.04970000000000008,-0.019056161209182042
-0.05070000000000019,-0.019141043887173945
-0.05170000000000008,-0.01922592656516585
-0.05270000000000019,-0.019240073678164497
-0.05370000000000008,-0.0192966621301591
-0.05470000000000019,-0.0193249563561564
-0.05570000000000008,-0.0194098390341483
-0.056700000000000195,-0.019480574599141553
-0.057700000000000085,-0.019494721712140204
-0.058700000000000196,-0.019551310164134805
-0.059700000000000086,-0.019579604390132108
-0.0607000000000002,-0.01965033995512536
-0.06170000000000009,-0.019763516859114563
