Potential V vs RHE, Current mA cm-2
0.4132999999999999,-0.008522220870386982
0.4122999999999999,-0.010031717827342976
0.4112999999999999,-0.010425007568705454
0.4102999999999999,-0.010659849644483051
0.4092999999999999,-0.01081688259876807
0.4082999999999999,-0.010969671419153495
0.4072999999999999,-0.011105483703940539
0.4062999999999999,-0.011196025227131898
0.4052999999999999,-0.011309202131121104
0.4042999999999999,-0.011402573076912195
0.4032999999999999,-0.011488870466203964
0.4022999999999999,-0.01157799727809546
0.4012999999999999,-0.011652976976988307
0.4002999999999999,-0.011725127253281424
0.3992999999999999,-0.011805765797373732
0.3982999999999999,-0.011913283856163474
0.3972999999999999,-0.011985434132456592
0.3962999999999999,-0.012040607873151327
0.3952999999999999,-0.012097196325145929
0.3942999999999999,-0.012170761312738912
0.39329999999999987,-0.012252814568131081
0.39229999999999987,-0.012317891287924874
0.39129999999999987,-0.01236174733822069
0.39029999999999987,-0.012418335790215292
0.38929999999999987,-0.012457947706611513
0.38829999999999987,-0.01254707451850301
0.38729999999999987,-0.012605077681797477
0.38629999999999987,-0.012658836711192348
0.38529999999999986,-0.012705522184087896
0.38429999999999986,-0.012762110636082496
0.38329999999999986,-0.012844163891474669
0.38229999999999986,-0.012878116962671429
0.38129999999999986,-0.012924802435566976
0.38029999999999986,-0.012982805598861443
0.37929999999999986,-0.013030905783056851
0.37829999999999986,-0.013101641348050105
0.37729999999999986,-0.013166718067843896
0.37629999999999986,-0.013204915272940251
0.37529999999999986,-0.01324877132323607
0.37429999999999986,-0.013279894971833099
0.37329999999999985,-0.013360533515925407
0.37229999999999985,-0.013417121967920009
0.37129999999999985,-0.013455319173016364
0.37029999999999985,-0.013506248779811504
0.36929999999999985,-0.013544445984907859
0.36829999999999985,-0.013595375591703002
0.36729999999999985,-0.01366752586799612
0.36629999999999985,-0.013707137784392339
0.36529999999999985,-0.013731187876490048
0.36429999999999985,-0.01379202046238424
0.36329999999999985,-0.01384436478047925
0.36229999999999984,-0.013885391408175336
0.36129999999999984,-0.013944809282769666
0.36029999999999984,-0.013987250621765616
0.35929999999999984,-0.014042424362460355
0.35829999999999984,-0.014100427525754819
0.35729999999999984,-0.014130136463051987
0.35629999999999984,-0.014175407224647668
0.35529999999999984,-0.014217848563643616
0.35429999999999984,-0.01424614278964092
0.35329999999999984,-0.014316878354634173
0.35229999999999984,-0.014359319693630123
0.35129999999999983,-0.014401761032626074
0.35029999999999983,-0.014430055258623373
0.34929999999999983,-0.014458349484620674
0.34829999999999983,-0.014543232162612576
0.34729999999999983,-0.01461396772760583
0.34629999999999983,-0.014642261953603129
0.34529999999999983,-0.014684703292599082
0.34429999999999983,-0.014712997518596381
0.3432999999999998,-0.014783733083589632
0.3422999999999998,-0.014826174422585584
0.3412999999999998,-0.014854468648582884
0.3402999999999998,-0.014911057100577486
0.3392999999999998,-0.014939351326574786
0.3382999999999998,-0.01501008689156804
0.3372999999999998,-0.01505252823056399
0.3362999999999998,-0.015080822456561293
0.3352999999999998,-0.015137410908555892
0.3342999999999998,-0.015165705134553195
0.3332999999999998,-0.015208146473549147
0.3322999999999998,-0.015278882038542396
0.3312999999999998,-0.015293029151541045
0.3302999999999998,-0.015321323377538347
0.3292999999999998,-0.0153637647165343
0.3282999999999998,-0.015420353168528897
0.3272999999999998,-0.015491088733522153
0.3262999999999998,-0.015505235846520802
0.3252999999999999,-0.015547677185516754
0.3242999999999999,-0.015590118524512706
0.3232999999999999,-0.015618412750510005
0.3222999999999999,-0.01568914831550326
0.3212999999999999,-0.015703295428501907
0.3202999999999999,-0.01573158965449921
0.3192999999999999,-0.015774030993495156
0.3182999999999999,-0.01583061944548976
0.3172999999999999,-0.01588720789748436
0.3162999999999999,-0.01591550212348166
0.3152999999999999,-0.015957943462477614
0.3142999999999999,-0.015957943462477614
0.3132999999999999,-0.016028679027470863
0.3122999999999999,-0.016071120366466816
0.3112999999999999,-0.01611356170546277
0.3102999999999999,-0.01614185593146007
0.3092999999999999,-0.01618429727045602
0.3082999999999999,-0.016269179948447923
0.3072999999999999,-0.016311621287443873
0.3062999999999999,-0.016354062626439823
0.3052999999999999,-0.016368209739438477
0.3042999999999999,-0.016396503965435776
0.3032999999999999,-0.01648138664342768
0.3022999999999999,-0.01650968086942498
0.3012999999999999,-0.016537975095422278
0.3002999999999999,-0.01656626932141958
0.2992999999999999,-0.01659456354741688
0.2982999999999999,-0.01665115199941148
0.2972999999999999,-0.016721887564404736
0.2962999999999999,-0.016764328903400686
0.2952999999999999,-0.016778476016399334
0.2942999999999999,-0.016806770242396636
0.2932999999999999,-0.01687750580738989
0.2922999999999999,-0.01693409425938449
0.2912999999999999,-0.016948241372383138
0.2902999999999999,-0.01699068271137909
0.2892999999999999,-0.017018976937376393
0.2882999999999999,-0.01706141827637234
0.2872999999999999,-0.017146300954364244
0.2862999999999999,-0.017146300954364244
0.2852999999999999,-0.017174595180361543
0.2842999999999999,-0.017231183632356147
0.2832999999999999,-0.017273624971352097
0.2822999999999999,-0.0173302134233467
0.2812999999999999,-0.017358507649344
0.2802999999999999,-0.0173868018753413
0.2792999999999999,-0.0174150961013386
0.2782999999999999,-0.017457537440334552
0.2772999999999999,-0.0175282730053278
0.2762999999999999,-0.017556567231325104
0.2752999999999999,-0.017570714344323755
0.2742999999999999,-0.017627302796318356
0.2732999999999999,-0.01766974413531431
0.2722999999999999,-0.01771218547431026
0.2712999999999999,-0.01776877392630486
0.2702999999999999,-0.017797068152302163
0.2692999999999999,-0.017825362378299462
0.26829999999999987,-0.017881950830294063
0.26729999999999987,-0.017924392169290013
0.26629999999999987,-0.017952686395287316
0.26529999999999987,-0.017995127734283266
0.26429999999999987,-0.01803756907327922
0.26329999999999987,-0.018065863299276518
0.26229999999999987,-0.01813659886426977
0.26129999999999987,-0.01816489309026707
0.26029999999999986,-0.01820733442926302
0.25929999999999986,-0.01820733442926302
0.25829999999999986,-0.018292217107254923
0.25729999999999986,-0.018348805559249524
0.25629999999999986,-0.018348805559249524
0.25529999999999986,-0.018419541124242777
0.25429999999999986,-0.018433688237241428
0.25329999999999986,-0.01849027668923603
0.25229999999999986,-0.018546865141230634
0.25129999999999986,-0.01858930648022658
0.25029999999999986,-0.018617600706223883
0.24929999999999986,-0.018631747819222534
0.24829999999999985,-0.018688336271217135
0.24729999999999985,-0.018759071836210388
0.24629999999999985,-0.018787366062207687
0.24529999999999985,-0.01882980740120364
0.24429999999999985,-0.01885810162720094
0.24329999999999985,-0.018900542966196893
0.24229999999999985,-0.018957131418191494
0.24129999999999985,-0.018985425644188793
0.24029999999999985,-0.019027866983184743
0.23929999999999985,-0.019084455435179344
0.23829999999999985,-0.019112749661176646
0.23729999999999984,-0.019197632339168547
0.23629999999999984,-0.019211779452167198
0.23529999999999984,-0.01922592656516585
0.23429999999999984,-0.01928251501716045
0.23329999999999984,-0.01933910346915505
0.23229999999999984,-0.019395691921149656
0.23129999999999984,-0.0194098390341483
0.23029999999999984,-0.019438133260145606
0.22929999999999984,-0.019480574599141553
0.22829999999999984,-0.019551310164134805
0.22729999999999984,-0.01959375150313076
0.22629999999999983,-0.019622045729128058
0.22529999999999983,-0.01965033995512536
0.22429999999999983,-0.01967863418112266
0.22329999999999983,-0.019749369746115915
0.22229999999999983,-0.019805958198110513
0.22129999999999983,-0.019820105311109164
0.22029999999999983,-0.019862546650105117
0.21929999999999983,-0.019890840876102416
0.21829999999999983,-0.019961576441095665
0.21729999999999983,-0.020018164893090266
0.21629999999999983,-0.02003231200608892
0.21529999999999982,-0.02007475334508487
0.21429999999999982,-0.02011719468408082
0.21329999999999982,-0.02015963602307677
0.21229999999999982,-0.020244518701068675
0.21129999999999982,-0.020272812927065977
0.21029999999999982,-0.020301107153063276
0.20929999999999982,-0.02032940137906058
0.20829999999999982,-0.020371842718056525
0.20729999999999982,-0.02045672539604843
0.20629999999999982,-0.020499166735044382
0.20529999999999982,-0.02052746096104168
0.20429999999999982,-0.020569902300037635
0.20329999999999981,-0.020640637865030884
0.2022999999999998,-0.020697226317025485
0.2012999999999998,-0.02073966765602144
0.20029999999999992,-0.02075381476902009
0.19929999999999992,-0.020810403221014687
0.19829999999999992,-0.02085284456001064
0.19729999999999992,-0.020923580125003893
0.19629999999999992,-0.020951874351001196
0.19529999999999992,-0.020980168576998495
0.19429999999999992,-0.021065051254990398
0.19329999999999992,-0.021135786819983647
0.19229999999999992,-0.0211782281589796
0.19129999999999991,-0.02122066949797555
0.1902999999999999,-0.02124896372397285
0.1892999999999999,-0.021291405062968803
0.1882999999999999,-0.021333846401964753
0.1872999999999999,-0.021404581966958002
0.1862999999999999,-0.021461170418952607
0.1852999999999999,-0.021489464644949906
0.1842999999999999,-0.021517758870947205
0.1832999999999999,-0.02158849443594046
0.1822999999999999,-0.021645082887935062
0.1812999999999999,-0.021687524226931015
0.1802999999999999,-0.021744112678925617
0.1792999999999999,-0.021758259791924264
0.1782999999999999,-0.021814848243918866
0.1772999999999999,-0.02189973092191077
0.1762999999999999,-0.021913878034909417
0.1752999999999999,-0.021956319373905367
0.1742999999999999,-0.022012907825899968
0.1732999999999999,-0.02205534916489592
0.1722999999999999,-0.022140231842887825
0.1712999999999999,-0.022168526068885124
0.1702999999999999,-0.022225114520879725
0.1692999999999999,-0.022253408746877028
0.1682999999999999,-0.02230999719887163
0.1672999999999999,-0.02239487987686353
0.1662999999999999,-0.022437321215859483
0.1652999999999999,-0.022479762554855433
0.1642999999999999,-0.022522203893851383
0.1632999999999999,-0.022550498119848682
0.1622999999999999,-0.022635380797840585
0.1612999999999999,-0.022691969249835187
0.1602999999999999,-0.02270611636283384
0.1592999999999999,-0.02277685192782709
0.15829999999999989,-0.022833440379821688
0.15729999999999988,-0.02287588171881764
0.15629999999999988,-0.022932470170812246
0.15529999999999988,-0.022974911509808196
0.15429999999999988,-0.023017352848804146
0.15329999999999988,-0.0230597941878001
0.15229999999999988,-0.02313052975279335
0.15129999999999988,-0.023172971091789302
0.15029999999999988,-0.0232295595437839
0.14929999999999988,-0.023286147995778505
0.14829999999999988,-0.023342736447773106
0.14729999999999988,-0.023399324899767704
0.14629999999999987,-0.02345591335176231
0.14529999999999987,-0.023484207577759608
0.14429999999999987,-0.02355494314275286
0.14329999999999987,-0.023625678707746112
0.14229999999999987,-0.023724708498736664
0.14129999999999987,-0.023753002724733966
0.14029999999999987,-0.023795444063729916
0.13929999999999987,-0.023823738289727222
0.13829999999999987,-0.02388032674172182
0.13729999999999987,-0.02395106230671507
0.13629999999999987,-0.023993503645711022
0.13529999999999986,-0.024064239210704275
0.13429999999999986,-0.024120827662698876
0.13329999999999986,-0.024149121888696175
0.13229999999999986,-0.02424815167968673
0.13129999999999986,-0.02429059301868268
0.13029999999999986,-0.02434718147067728
0.12929999999999986,-0.02438962280967323
0.12829999999999986,-0.024446211261667832
0.12729999999999986,-0.02453109393965974
0.12629999999999986,-0.024559388165657038
0.12529999999999986,-0.02461597661765164
0.12429999999999986,-0.02468671218264489
0.12329999999999985,-0.02471500640864219
0.12229999999999985,-0.024814036199632745
0.12129999999999985,-0.024870624651627343
0.12029999999999985,-0.024898918877624646
0.11929999999999985,-0.0249413602166206
0.11829999999999985,-0.0249979486686152
0.11729999999999985,-0.0250828313466071
0.11629999999999985,-0.025139419798601705
0.11529999999999985,-0.025196008250596303
0.11429999999999985,-0.025266743815589552
0.11329999999999985,-0.025323332267584157
0.11229999999999984,-0.02537992071957876
0.11129999999999984,-0.02545065628457201
0.11029999999999984,-0.025507244736566608
0.10929999999999984,-0.02554968607556256
0.10829999999999984,-0.025634568753554465
0.10729999999999984,-0.025705304318547718
0.10629999999999984,-0.02576189277054232
0.10529999999999984,-0.025818481222536924
0.10429999999999984,-0.02587506967453152
0.10329999999999984,-0.02594580523952477
0.10229999999999984,-0.026016540804518026
0.10129999999999983,-0.026087276369511275
0.10029999999999983,-0.02612971770850723
0.09929999999999983,-0.026186306160501827
0.09829999999999983,-0.02624289461249643
0.09729999999999983,-0.02632777729048833
0.09629999999999983,-0.026384365742482933
0.09529999999999983,-0.026440954194477534
0.09429999999999983,-0.02649754264647214
0.09329999999999983,-0.02656827821146539
0.09229999999999983,-0.026667308002455942
0.09129999999999983,-0.026723896454450544
0.09029999999999982,-0.026780484906445145
0.08929999999999982,-0.026851220471438397
0.08829999999999982,-0.026879514697435696
0.08729999999999982,-0.026978544488426247
0.08629999999999982,-0.02703513294042085
0.08529999999999982,-0.02709172139241545
0.08429999999999982,-0.027162456957408702
0.08329999999999982,-0.027219045409403307
0.08229999999999982,-0.02730392808739521
0.08129999999999982,-0.027374663652388463
0.08029999999999982,-0.02741710499138441
0.07929999999999982,-0.02750198766937631
0.07829999999999981,-0.02755857612137091
0.07729999999999981,-0.027671753025360117
0.07629999999999981,-0.02774248859035337
0.07529999999999992,-0.027770782816350672
0.07429999999999992,-0.027841518381343924
0.07329999999999992,-0.027912253946337173
0.07229999999999992,-0.027997136624329073
0.07129999999999992,-0.028082019302320977
0.07029999999999992,-0.028124460641316927
0.06929999999999992,-0.02819519620631018
0.06829999999999992,-0.028265931771303435
0.06729999999999992,-0.028364961562293983
0.06629999999999991,-0.028435697127287232
0.06529999999999991,-0.02849228557928184
0.06429999999999991,-0.02854887403127644
0.06329999999999991,-0.028647903822266993
0.06229999999999991,-0.028732786500258897
0.06129999999999991,-0.028789374952253494
0.06029999999999991,-0.028860110517246747
0.05929999999999991,-0.02894499319523865
0.05829999999999991,-0.02902987587323055
0.05729999999999991,-0.029114758551222454
0.056299999999999906,-0.029185494116215707
0.055299999999999905,-0.029256229681208955
0.054299999999999904,-0.02931281813320356
0.0532999999999999,-0.02941184792419411
0.0522999999999999,-0.029525024828183317
0.0512999999999999,-0.029581613280177915
0.0502999999999999,-0.029638201732172516
0.0492999999999999,-0.02972308441016442
0.0482999999999999,-0.02979381997515767
0.0472999999999999,-0.029906996879146875
0.0462999999999999,-0.029991879557138775
0.045299999999999896,-0.030048468009133376
0.044299999999999895,-0.030133350687125283
0.043299999999999894,-0.03018993913911988
0.04229999999999989,-0.030288968930110433
0.04129999999999989,-0.030387998721100987
0.04029999999999989,-0.03047288139909289
0.03929999999999989,-0.030543616964086147
0.03829999999999989,-0.030600205416080745
0.03729999999999989,-0.030699235207071292
0.03629999999999989,-0.030784117885063196
0.03529999999999989,-0.03085485345005645
0.034299999999999886,-0.030953883241047007
0.033299999999999885,-0.031024618806040256
0.032299999999999884,-0.03110950148403216
0.031299999999999883,-0.03120853127502271
0.030299999999999883,-0.03126511972701731
0.02929999999999988,-0.031350002405009215
0.02829999999999988,-0.031434885083001116
0.02729999999999988,-0.031533914873991674
0.02629999999999988,-0.03163294466498222
0.025299999999999878,-0.03168953311697682
0.024299999999999877,-0.03177441579496872
0.023299999999999876,-0.03185929847296063
0.022299999999999875,-0.031972475376949826
0.021299999999999875,-0.032071505167940384
0.020299999999999874,-0.032156387845932284
0.019299999999999873,-0.03221297629792688
0.018299999999999872,-0.03228371186292014
0.01729999999999987,-0.03239688876690934
0.01629999999999987,-0.03249591855789989
0.01529999999999987,-0.03258080123589179
0.014299999999999868,-0.0326656839138837
0.013299999999999867,-0.03276471370487424
0.012299999999999978,-0.03289203772186211
0.011299999999999866,-0.032991067512852655
0.010299999999999976,-0.033061803077845904
0.009299999999999864,-0.03316083286883646
0.008299999999999974,-0.03323156843382971
0.007299999999999862,-0.033358892450817565
0.006299999999999972,-0.03347206935480676
0.00529999999999986,-0.03357109914579732
0.0042999999999999705,-0.03367012893678788
0.0032999999999998586,-0.03375501161477978
0.0022999999999999687,-0.033910629857764926
0.0012999999999998568,-0.03403795387475279
0.00029999999999996696,-0.03412283655274468
-0.000700000000000145,-0.03420771923073659
-0.0017000000000000348,-0.034278454795729836
-0.0027000000000001467,-0.034391631699719045
-0.0037000000000000366,-0.0344906614907096
-0.0047000000000001485,-0.034547249942704195
-0.005700000000000038,-0.03464627973369475
-0.00670000000000015,-0.034745309524685304
-0.00770000000000004,-0.03488678065467181
-0.008700000000000152,-0.03501410467165966
-0.009700000000000042,-0.03508484023665291
-0.010700000000000154,-0.035198017140642114
-0.011700000000000044,-0.035282899818634014
-0.012700000000000156,-0.03536778249662592
-0.013700000000000045,-0.03548095940061512
-0.014700000000000157,-0.035579989191605675
-0.015700000000000047,-0.035664871869597575
-0.01670000000000016,-0.03579219588658543
-0.01770000000000005,-0.03590537279057463
-0.01870000000000016,-0.03604684392056113
-0.01970000000000005,-0.036131726598553036
-0.020700000000000163,-0.036202462163546285
-0.021700000000000053,-0.036301491954536844
-0.022700000000000164,-0.03642881597152469
-0.023700000000000054,-0.03655613998851255
-0.024700000000000166,-0.03666931689250175
-0.025700000000000056,-0.036768346683492305
-0.026700000000000168,-0.036867376474482856
-0.027700000000000058,-0.03702299471746801
-0.02870000000000017,-0.03713617162145721
-0.02970000000000006,-0.037235201412447766
-0.03070000000000017,-0.03734837831643697
-0.03170000000000006,-0.037404966768431566
-0.03270000000000017,-0.03757473212441537
-0.03370000000000006,-0.03768790902840457
-0.034700000000000175,-0.03778693881939513
-0.035700000000000065,-0.03791426283638299
-0.03670000000000018,-0.03798499840137624
-0.03770000000000007,-0.038112322418364084
-0.03870000000000018,-0.03826794066134924
-0.03970000000000007,-0.0383669704523398
-0.04070000000000018,-0.03846600024333035
-0.04170000000000007,-0.03855088292132225
-0.04270000000000018,-0.03866405982531145
-0.04370000000000007,-0.0388196780682966
-0.044700000000000184,-0.03889041363328985
-0.045700000000000074,-0.039003590537279066
-0.046700000000000186,-0.03910262032826961
-0.047700000000000076,-0.039244091458256115
-0.04870000000000019,-0.03938556258824262
-0.04970000000000008,-0.03948459237923317
-0.05070000000000019,-0.039597769283222374
-0.05170000000000008,-0.03971094618721158
-0.05270000000000019,-0.03983827020419943
-0.05370000000000008,-0.039979741334185935
-0.05470000000000019,-0.04005047689917919
-0.05570000000000008,-0.04017780091616704
-0.056700000000000195,-0.04029097782015625
-0.057700000000000085,-0.040418301837144094
-0.058700000000000196,-0.040545625854131954
-0.059700000000000086,-0.04065880275812116
-0.0607000000000002,-0.04075783254911171
-0.06170000000000009,-0.040899303679098206
-0.0627000000000002,-0.04104077480908471
-0.06370000000000009,-0.04115395171307392
-0.0647000000000002,-0.04128127573006177
-0.06570000000000009,-0.04135201129505502
