Potential V vs RHE, Current mA cm-2
0.013299999999999867,-0.3306180307784591
0.012299999999999978,-0.5562644831069326
0.011299999999999866,-0.671846396305906
0.010299999999999976,-0.7560217186478756
0.009299999999999864,-0.8345381957903852
0.008299999999999974,-0.9023028670539204
0.007299999999999862,-0.9738872588270913
0.006299999999999972,-1.037266325061045
0.00529999999999986,-1.07631235693732
0.0042999999999999705,-1.119319580453217
0.0032999999999998586,-1.1570923721596134
0.0022999999999999687,-1.1933089814361586
0.0012999999999998568,-1.228818235062771
0.00029999999999996696,-1.2491900777808274
-0.000700000000000145,-1.2715425163186949
-0.0017000000000000348,-1.2917728879067651
-0.0027000000000001467,-1.314549739834592
-0.0037000000000000366,-1.3385998319322978
-0.0047000000000001485,-1.348785753291326
-0.005700000000000038,-1.3632158085499495
-0.00670000000000015,-1.3792020462384242
-0.00770000000000004,-1.3981591776566158
-0.008700000000000152,-1.4189554337646317
-0.009700000000000042,-1.431687835463417
-0.010700000000000154,-1.4472496597619326
-0.011700000000000044,-1.4585673501608527
-0.012700000000000156,-1.4783733083589634
-0.013700000000000045,-1.4939351326574788
-0.014700000000000157,-1.510911668255859
-0.015700000000000047,-1.5208146473549145
-0.01670000000000016,-1.5363764716534298
-0.01770000000000005,-1.5533530072518102
-0.01870000000000016,-1.5759883880496508
-0.01970000000000005,-1.587306078448571
-0.020700000000000163,-1.6042826140469515
-0.021700000000000053,-1.6198444383454669
-0.022700000000000164,-1.6410651078434426
-0.023700000000000054,-1.655212220842093
-0.024700000000000166,-1.6736034677403384
-0.025700000000000056,-1.690580003338719
-0.026700000000000168,-1.7061418276372344
-0.027700000000000058,-1.7287772084350748
-0.02870000000000017,-1.7542420118326456
-0.02970000000000006,-1.768389124831296
-0.03070000000000017,-1.7924392169290013
-0.03170000000000006,-1.8051716186277869
-0.03270000000000017,-1.8362952672248178
-0.03370000000000006,-1.8617600706223882
-0.034700000000000175,-1.8787366062207687
-0.035700000000000065,-1.9056161209182045
-0.03670000000000018,-1.92117794521672
-0.03770000000000007,-1.9423986147146954
-0.03870000000000018,-1.972107552011861
-0.03970000000000007,-1.9862546650105113
-0.04070000000000018,-2.0187930249074073
-0.04170000000000007,-2.044257828304978
-0.04270000000000018,-2.073966765602144
-0.04370000000000007,-2.102260991599445
-0.044700000000000184,-2.1192375271978254
-0.045700000000000074,-2.150361175794856
-0.046700000000000186,-2.177240690492291
-0.047700000000000076,-2.2111937616890525
-0.04870000000000019,-2.249390966785408
-0.04970000000000008,-2.2748557701829792
-0.05070000000000019,-2.3017352848804147
-0.05170000000000008,-2.330029510877715
-0.05270000000000019,-2.3724708498736664
-0.05370000000000008,-2.407838632370292
-0.05470000000000019,-2.436132858367593
-0.05570000000000008,-2.464427084364894
-0.056700000000000195,-2.50545371206098
-0.057700000000000085,-2.5478950510569307
-0.058700000000000196,-2.590336390052882
-0.059700000000000086,-2.618630616050183
-0.0607000000000002,-2.6539983985468085
-0.06170000000000009,-2.7035132940420854
-0.0627000000000002,-2.738881076538711
-0.06370000000000009,-2.791225394633717
-0.0647000000000002,-2.820934331930883
-0.06570000000000009,-2.870449227426159
-0.0667000000000002,-2.8959140308237297
-0.0677000000000001,-2.9553319054180616
-0.0687000000000002,-3.009090934812933
-0.0697000000000001,-3.031726315610774
-0.07070000000000021,-3.08972947890524
-0.0717000000000001,-3.1392443744005165
-0.07270000000000021,-3.1944181150952526
-0.0737000000000001,-3.253835989689584
-0.07470000000000021,-3.287789060886346
-0.0757000000000001,-3.3401333789813514
-0.07670000000000021,-3.389648274476628
-0.0777000000000001,-3.4490661490709593
-0.07870000000000021,-3.515557580164616
-0.0797000000000001,-3.552340073961107
-0.08070000000000022,-3.6160020824550334
-0.0817000000000001,-3.6754199570493657
-0.08270000000000022,-3.747570233342482
-0.08370000000000011,-3.8140616644361387
-0.08470000000000022,-3.8480147356329
-0.08570000000000011,-3.918750300626152
-0.08670000000000022,-3.9809975978202137
-0.08770000000000011,-4.05314787411333
-0.08870000000000022,-4.115395171307392
-0.08970000000000011,-4.180471891101184
-0.09070000000000022,-4.23281620919619
-0.09170000000000011,-4.300722351589712
-0.09270000000000023,-4.3657990713835035
-0.09370000000000012,-4.449267038075541
-0.09470000000000023,-4.529905582167847
-0.09570000000000012,-4.583664611562719
-0.09670000000000023,-4.655814887855835
-0.09770000000000012,-4.737868143248008
-0.09870000000000023,-4.80577428564153
-0.09970000000000012,-4.883583407134107
-0.10070000000000023,-4.951489549527628
-0.10170000000000012,-5.01656626932142
-0.10270000000000024,-5.1212549055114325
-0.10370000000000013,-5.18208749140563
-0.10470000000000024,-5.274043725896856
-0.10570000000000013,-5.343364579590244
-0.10670000000000024,-5.431076680181876
-0.10770000000000013,-5.5145446468739125
-0.10870000000000024,-5.596597902266086
-0.10970000000000013,-5.685724714157582
-0.11070000000000024,-5.74938672265151
-0.11170000000000013,-5.8356841119432765
-0.11270000000000002,-5.930469769034234
-0.11370000000000013,-6.019596580925731
-0.11470000000000002,-6.086088012019388
-0.11570000000000014,-6.16531184481183
-0.11670000000000003,-6.2558533680031925
-0.11770000000000014,-6.337906623395364
-0.11870000000000003,-6.429862857886591
-0.11970000000000014,-6.517574958478224
-0.12070000000000003,-6.603872347769991
-0.12170000000000014,-6.692999159661489
-0.12270000000000003,-6.773637703753796
-0.12370000000000014,-6.862764515645292
-0.12470000000000003,-6.950476616236925
-0.12570000000000014,-7.031115160329232
-0.12670000000000003,-7.124486106120324
-0.12770000000000015,-7.219271763211282
-0.12870000000000004,-7.305569152503049
-0.12970000000000015,-7.394695964394547
-0.13070000000000004,-7.483822776286043
-0.13170000000000015,-7.567290742978082
-0.13270000000000004,-7.671979379168095
-0.13370000000000015,-7.7328119650622895
-0.13470000000000004,-7.836085889952438
-0.13570000000000015,-7.899747898446365
-0.13670000000000004,-7.991704132937592
-0.13770000000000016,-8.065269120530575
-0.13870000000000005,-8.1855195810191
-0.13970000000000016,-8.246352166913299
-0.14070000000000005,-8.332649556205066
-0.14170000000000016,-8.397726275998858
-0.14270000000000005,-8.496756066989409
-0.14370000000000016,-8.587297590180773
-0.14470000000000005,-8.669350845572946
-0.14570000000000016,-8.725939297567548
-0.14670000000000005,-8.806577841659854
-0.14770000000000016,-8.899948787450944
-0.14870000000000005,-8.969269641144333
-0.14970000000000017,-9.040005206137584
-0.15070000000000006,-9.119229038930026
-0.15170000000000017,-9.201282294322198
-0.15270000000000006,-9.27484728191518
-0.15370000000000017,-9.371047650306002
-0.15470000000000006,-9.406415432802628
-0.15570000000000017,-9.49695695599399
-0.15670000000000006,-9.546471851489269
-0.15770000000000017,-9.639842797280359
-0.15870000000000006,-9.745946144770238
-0.15970000000000018,-9.829414111462276
-0.16070000000000007,-9.835072956661735
-0.16170000000000018,-9.905808521654986
-0.16270000000000007,-9.97654408664824
-0.16370000000000018,-10.084062145437981
-0.16470000000000007,-10.130747618333528
-0.16570000000000018,-10.166115400830154
-0.16670000000000007,-10.25241279012192
-0.16770000000000018,-10.279292304819355
-0.16870000000000007,-10.37832209580991
-0.16970000000000018,-10.433495836504646
-0.17070000000000007,-10.48018130940019
-0.17170000000000019,-10.559405142192633
-0.17270000000000008,-10.60043176988872
-0.1737000000000002,-10.673996757481701
-0.17470000000000008,-10.717852807777518
-0.1757000000000002,-10.780100104971579
-0.17670000000000008,-10.81122375356861
-0.1777000000000002,-10.901765276759972
-0.17870000000000008,-10.930059502757274
-0.1797000000000002,-10.997965645150796
-0.18070000000000008,-11.041821695446613
-0.1817000000000002,-11.149339754236355
-0.18270000000000008,-11.169145712434466
-0.1837000000000002,-11.23280772092839
-0.1847000000000001,-11.275249059924343
-0.1857000000000002,-11.313446265020698
-0.1867000000000001,-11.368620005715435
-0.1877000000000002,-11.37852298481449
-0.1887000000000001,-11.452087972407472
-0.1897000000000002,-11.514335269601535
-0.1907000000000001,-11.539800072999105
-0.1917000000000001,-11.565264876396675
-0.19269999999999998,-11.602047370193167
-0.1937000000000001,-11.691174182084664
-0.19469999999999998,-11.740689077579939
-0.1957000000000001,-11.79161868437508
-0.19669999999999999,-11.812839353873056
-0.1977000000000001,-11.873671939767252
-0.1987,-11.8920631866655
-0.1997000000000001,-11.991092977656052
-0.2007,-12.003825379354835
-0.2017000000000001,-12.121246417243634
-0.2027,-12.146711220641206
-0.2037000000000001,-12.204714383935672
-0.2047,-12.220276208234186
-0.2057000000000001,-12.255643990730812
-0.2067,-12.36174733822069
-0.2077000000000001,-12.375894451219342
-0.2087,-12.402773965916776
-0.2097000000000001,-12.388626852918126
-0.2107,-12.466435974410702
-0.2117000000000001,-12.494730200408004
-0.2127,-12.582442300999638
-0.2137000000000001,-12.630542485195047
-0.2147,-12.723913430986139
-0.2157000000000001,-12.74088996658452
-0.2167,-12.821528510676828
-0.21770000000000012,-12.854066870573723
-0.2187,-12.906411188668729
-0.21970000000000012,-12.936120125965894
-0.2207,-12.953096661564276
-0.22170000000000012,-13.076176544652533
-0.2227,-13.1058854819497
-0.22370000000000012,-13.195012293841197
-0.2247,-13.264333147534584
-0.22570000000000012,-13.296871507431481
-0.2267,-13.387413030622842
-0.22770000000000012,-13.402974854921357
-0.22870000000000001,-13.5104929137111
-0.22970000000000013,-13.576984344804757
-0.23070000000000002,-13.65903760019693
-0.23170000000000013,-13.683087692294635
-0.23270000000000002,-13.763726236386942
-0.23370000000000013,-13.876903140376147
-0.23470000000000002,-13.923588613271692
-0.23570000000000013,-14.025447826861972
-0.23670000000000002,-14.10608637095428
-0.2376999999999999,-14.144283576050634
-0.23870000000000002,-14.26028990263957
-0.2396999999999999,-14.331025467632822
-0.24070000000000003,-14.430055258623375
-0.24169999999999991,-14.500790823616628
-0.24270000000000003,-14.61396772760583
-0.24369999999999992,-14.71299751859638
-0.24470000000000003,-14.812027309586934
-0.24569999999999992,-14.896909987578834
-0.24670000000000003,-15.03838111756534
-0.24769999999999992,-15.10911668255859
-0.24870000000000003,-15.236440699546446
-0.24969999999999992,-15.321323377538347
-0.25070000000000003,-15.43450028152755
-0.2516999999999999,-15.547677185516752
-0.25270000000000004,-15.70329542850191
-0.2536999999999999,-15.78817810649381
-0.25470000000000004,-15.929649236480316
-0.2556999999999999,-16.02867902747086
-0.25670000000000004,-16.15600304445872
-0.25769999999999993,-16.28332706144657
-0.25870000000000004,-16.438945304431726
-0.25969999999999993,-16.55212220842093
-0.26070000000000004,-16.70774045140608
-0.26169999999999993,-16.806770242396635
-0.26270000000000004,-16.94824137238314
-0.26369999999999993,-17.103859615368293
-0.26470000000000005,-17.259477858353446
-0.26569999999999994,-17.4433903273359
-0.26670000000000005,-17.613155683319707
-0.26769999999999994,-17.71218547431026
-0.26870000000000005,-17.896097943292716
-0.26969999999999994,-18.09415752527382
-0.27070000000000005,-18.249775768258974
-0.27169999999999994,-18.433688237241427
-0.27270000000000005,-18.631747819222536
-0.27369999999999994,-18.815660288204988
-0.27470000000000006,-18.94298430519284
-0.27569999999999995,-19.141043887173947
-0.27670000000000006,-19.31080924315775
-0.27769999999999995,-19.551310164134804
-0.27870000000000006,-19.69278129412131
-0.27969999999999995,-19.947429328097016
-0.28070000000000006,-20.07475334508487
-0.28169999999999995,-20.301107153063278
-0.28270000000000006,-20.47087250904708
-0.28369999999999995,-20.75381476902009
-0.28470000000000006,-20.95187435100119
-0.28569999999999995,-21.16408104598095
-0.28670000000000007,-21.319699288966106
-0.28769999999999996,-21.63093577493641
-0.28870000000000007,-21.814848243918867
-0.28969999999999996,-22.111937616890522
-0.29070000000000007,-22.281702972874328
-0.29169999999999996,-22.564645232847337
-0.29270000000000007,-22.76270481482844
-0.29369999999999996,-23.088088413797397
-0.2947000000000001,-23.300295108777156
-0.29569999999999996,-23.597384481748815
-0.2967000000000001,-23.809591176728567
-0.29769999999999996,-24.106680549700226
-0.2987000000000001,-24.36132858367593
-0.29969999999999997,-24.502799713662437
-0.3007000000000001,-24.828183312631392
-0.30169999999999997,-25.210155363594954
-0.3027000000000001,-25.46480339757066
-0.30369999999999997,-25.747745657543668
-0.3047000000000001,-26.087276369511276
-0.30569999999999997,-26.313630177489685
-0.3067000000000001,-26.681455115454593
-0.3077,-26.89366181043435
-0.3087000000000001,-27.247339635400607
-0.3097,-27.501987669376312
-0.3107000000000001,-27.926401059335824
-0.3117,-28.237637545306132
-0.3127000000000001,-28.56302114427509
-0.3137,-28.80352206525215
-0.3147000000000001,-29.171347003217054
-0.3157,-29.482583489187363
-0.3167000000000001,-29.878702653149578
-0.3177,-30.161644913122586
-0.3187000000000001,-30.43044006009694
-0.3197,-30.91144190205105
-0.3207000000000001,-31.19438416202406
-0.3217,-31.57635621298762
-0.3227000000000001,-31.930034037953877
-0.3237,-32.297858975918786
-0.3247000000000001,-32.56665412289314
-0.3257,-32.87789060886345
-0.3267000000000001,-33.288156885824314
-0.3277,-33.698423162785176
-0.3287000000000001,-34.10868943974604
-0.3297,-34.462367264712285
-0.3307000000000001,-34.84433931567585
-0.3317,-35.226311366639415
-0.3327000000000001,-35.693166095594876
-0.3337,-36.04684392056114
-0.3347000000000001,-36.47125731052064
-0.3357,-36.768346683492304
-0.3367000000000001,-37.291789864442364
-0.3377,-37.687909028404576
-0.3387000000000001,-38.18305798335734
-0.3397,-38.57917714731955
-0.3407000000000001,-39.10262032826961
-0.3417,-39.54118083122778
-0.3427000000000001,-39.96559422118728
-0.3437,-40.48903740213735
-0.3447000000000001,-40.88515656609956
-0.3457,-41.352011295055014
-0.3467000000000001,-41.73398334601858
-0.3477,-42.158396735978094
-0.3487000000000001,-42.653545690930855
-0.3497,-43.06381196789171
-0.3507000000000001,-43.58725514884178
-0.3517,-43.96922719980534
-0.3527000000000001,-44.535111719751356
-0.3537,-44.87464243171897
-0.3547000000000001,-45.42637983866633
-0.3557,-45.82249900262854
-0.35670000000000013,-46.4025306355732
-0.3577,-46.84109113853137
-0.35870000000000013,-47.534299675465235
-0.3597,-48.057742856415295
-0.36070000000000013,-48.41142068138156
-0.3617,-48.38312645538425
-0.3626999999999999,-49.019746540323524
-0.3637,-49.458307043281685
-0.3646999999999999,-49.81198486824794
-0.3657,-49.995897337230396
-0.3666999999999999,-50.40616361419126
-0.3677,-50.64666453516831
-0.3686999999999999,-51.31157884610488
-0.36970000000000003,-51.8491691400536
-0.3706999999999999,-52.2735825300131
-0.37170000000000003,-52.72629014596991
-0.3726999999999999,-52.81117282396182
-0.37370000000000003,-53.32046889191324
-0.3746999999999999,-53.82976495986464
-0.37570000000000003,-54.35320814081471
-0.3766999999999999,-54.791768643772876
-0.37770000000000004,-55.28691759872564
-0.3786999999999999,-55.8952434576676
-0.37970000000000004,-56.30550973462846
-0.3806999999999999,-56.97042404556503
-0.38170000000000004,-57.45142588751914
-0.38269999999999993,-58.10219308545706
-0.38370000000000004,-58.59734204040982
-0.38469999999999993,-59.31884480334099
-0.38570000000000004,-59.913023549284304
-0.38669999999999993,-59.587639950315335
-0.38570000000000004,-58.951019865376075
-0.38469999999999993,-57.91828061647461
-0.38370000000000004,-57.05530672355693
-0.38269999999999993,-56.093303039648696
-0.38170000000000004,-55.27277048572698
-0.3806999999999999,-54.67859173978366
-0.37970000000000004,-53.9005005248579
-0.3786999999999999,-53.15070353592942
-0.37770000000000004,-52.57067190298476
-0.3766999999999999,-51.919904705046854
-0.37570000000000003,-51.35402018510083
-0.3746999999999999,-50.32128093619935
-0.37370000000000003,-49.81198486824794
-0.3726999999999999,-49.104629218315424
-0.37170000000000003,-48.46800913337616
-0.3706999999999999,-47.689917918450384
-0.36970000000000003,-46.713767121543505
-0.3686999999999999,-46.091294149602895
-0.3677,-45.39808561266902
-0.3666999999999999,-44.81805397972436
-0.3657,-44.25216945977835
-0.3646999999999999,-43.75702050482558
-0.3637,-43.17698887188092
-0.3626999999999999,-42.59695723893625
-0.3617,-41.81886602401048
-0.36070000000000013,-41.12565748707661
-0.3597,-40.48903740213735
-0.35870000000000013,-39.90900576919269
-0.3577,-39.314827023249364
-0.35670000000000013,-38.805530955297954
-0.3557,-38.23964643535194
-0.3547000000000001,-37.77279170639648
-0.3537,-37.136171621457216
-0.3527000000000001,-36.48540442351929
-0.3517,-35.90537279057463
-0.3507000000000001,-35.52340073961108
-0.3497,-34.92922199366775
-0.3487000000000001,-34.377484586720385
-0.3477,-33.627687597791926
-0.3467000000000001,-33.203274207832415
-0.3457,-32.73641947887695
-0.3447000000000001,-32.340300314914735
-0.3437,-31.816857133964678
-0.3427000000000001,-31.335855292010564
-0.3417,-30.939736128048356
-0.3407000000000001,-30.55776407708479
-0.3397,-30.161644913122586
-0.3387000000000001,-29.59576039317657
-0.3377,-29.157199890218404
-0.3367000000000001,-28.619609596269694
-0.3357,-28.265931771303435
-0.3347000000000001,-27.827371268345274
-0.3337,-27.37466365238846
-0.3327000000000001,-26.936103149430302
-0.3317,-26.497542646472137
-0.3307000000000001,-26.14386482150588
-0.3297,-25.73359854454502
-0.3287000000000001,-25.351626493581456
-0.3277,-24.870624651627345
-0.3267000000000001,-24.44621126166783
-0.3257,-24.050092097705623
-0.3247000000000001,-23.753002724733967
-0.3237,-23.300295108777156
-0.3227000000000001,-22.946617283810895
-0.3217,-22.564645232847337
-0.3207000000000001,-22.253408746877028
-0.3197,-21.91387803490942
-0.3187000000000001,-21.574347322941808
-0.3177,-21.2348166109742
-0.3167000000000001,-20.824550334013338
-0.3157,-20.541608074040333
-0.3147000000000001,-20.13134179707947
-0.3137,-19.805958198110513
-0.3127000000000001,-19.565457277133458
-0.3117,-19.211779452167196
-0.3107000000000001,-18.843954514202288
-0.3097,-18.44783535024008
-0.3087000000000001,-18.17904020326572
-0.3077,-17.867803717295413
-0.3067000000000001,-17.556567231325104
-0.30569999999999997,-17.188742293360193
-0.3047000000000001,-16.97653559838044
-0.30369999999999997,-16.665299112410132
-0.3027000000000001,-16.382356852437127
-0.30169999999999997,-16.085267479465468
-0.3007000000000001,-15.816472332491113
-0.29969999999999997,-15.43450028152755
-0.2987000000000001,-15.236440699546446
-0.29769999999999996,-14.98179266557074
-0.2967000000000001,-14.69885040559773
-0.29569999999999996,-14.430055258623375
-0.2947000000000001,-14.161260111649016
-0.29369999999999996,-13.881147274275738
-0.29270000000000007,-13.639231641998819
-0.29169999999999996,-13.373265917624192
-0.29070000000000007,-13.11154432714916
-0.28969999999999996,-12.873872828771834
-0.28870000000000007,-12.667324978991537
-0.28769999999999996,-12.423994635414752
-0.28670000000000007,-12.224520342133783
-0.28569999999999995,-11.96845759685821
-0.28470000000000006,-11.753421479278725
-0.28369999999999995,-11.49877344530302
-0.28270000000000006,-11.290810884222859
-0.28169999999999995,-11.054554097145397
-0.28070000000000006,-10.870641628162943
-0.27969999999999995,-10.630140707185886
-0.27870000000000006,-10.399542765307885
-0.27769999999999995,-10.18733607032813
-0.27670000000000006,-10.058597342040411
-0.27569999999999995,-9.818096421063354
-0.27470000000000006,-9.625695684281709
-0.27369999999999994,-9.403586010202897
-0.27270000000000005,-9.187135181323548
-0.27169999999999994,-9.020199247939473
-0.27070000000000005,-8.815066109459044
-0.26969999999999994,-8.628324217876859
-0.26870000000000005,-8.49392664438968
-0.26769999999999994,-8.31425830930682
