Dec. 12, 2024   18:53:56
Cyclic Voltammetry
File: c:/users/guazh/data/banditlqround7_x0exp59_r20/2024-12-09-exp640\exp640-2024-12-12t18_40_47-arkoh\exp640_cv_sr_50mvs_efin_-1600mv.bin
Data Source:  Experiment
Instrument Model:  CHI760E
Header: CV ran at 50 mVs
Note: 

Init E (V) = -1
High E (V) = -1
Low E (V) = -1.6
Final E (V) = -1
Init P/N = N
Scan Rate (V/s) = 0.05
Segment = 3
Sample Interval (V) = 0.001
Quiet Time (sec) = 2
Sensitivity (A/V) = 0.01
Comp R (ohm) = 1.4

Results:

Channel 1:
Segment 1:

Segment 2:

Segment 3:

Potential/V, Current/A

-1.000, 6.815e-6
-1.001, 1.659e-5
-1.002, 1.996e-5
-1.003, 2.156e-5
-1.004, 2.239e-5
-1.005, 2.304e-5
-1.006, 2.436e-5
-1.007, 2.597e-5
-1.008, 2.639e-5
-1.009, 2.671e-5
-1.010, 2.671e-5
-1.011, 2.755e-5
-1.012, 2.880e-5
-1.013, 2.923e-5
-1.014, 2.908e-5
-1.015, 2.894e-5
-1.016, 2.968e-5
-1.017, 3.073e-5
-1.018, 3.107e-5
-1.019, 3.058e-5
-1.020, 3.061e-5
-1.021, 3.093e-5
-1.022, 3.177e-5
-1.023, 3.216e-5
-1.024, 3.185e-5
-1.025, 3.154e-5
-1.026, 3.206e-5
-1.027, 3.269e-5
-1.028, 3.303e-5
-1.029, 3.240e-5
-1.030, 3.203e-5
-1.031, 3.261e-5
-1.032, 3.320e-5
-1.033, 3.324e-5
-1.034, 3.299e-5
-1.035, 3.236e-5
-1.036, 3.303e-5
-1.037, 3.364e-5
-1.038, 3.373e-5
-1.039, 3.332e-5
-1.040, 3.259e-5
-1.041, 3.302e-5
-1.042, 3.391e-5
-1.043, 3.372e-5
-1.044, 3.329e-5
-1.045, 3.289e-5
-1.046, 3.326e-5
-1.047, 3.398e-5
-1.048, 3.382e-5
-1.049, 3.334e-5
-1.050, 3.302e-5
-1.051, 3.318e-5
-1.052, 3.396e-5
-1.053, 3.393e-5
-1.054, 3.334e-5
-1.055, 3.290e-5
-1.056, 3.316e-5
-1.057, 3.382e-5
-1.058, 3.385e-5
-1.059, 3.313e-5
-1.060, 3.277e-5
-1.061, 3.312e-5
-1.062, 3.370e-5
-1.063, 3.399e-5
-1.064, 3.323e-5
-1.065, 3.278e-5
-1.066, 3.307e-5
-1.067, 3.358e-5
-1.068, 3.383e-5
-1.069, 3.310e-5
-1.070, 3.259e-5
-1.071, 3.306e-5
-1.072, 3.353e-5
-1.073, 3.358e-5
-1.074, 3.311e-5
-1.075, 3.268e-5
-1.076, 3.298e-5
-1.077, 3.346e-5
-1.078, 3.357e-5
-1.079, 3.316e-5
-1.080, 3.238e-5
-1.081, 3.268e-5
-1.082, 3.350e-5
-1.083, 3.330e-5
-1.084, 3.294e-5
-1.085, 3.235e-5
-1.086, 3.260e-5
-1.087, 3.331e-5
-1.088, 3.332e-5
-1.089, 3.282e-5
-1.090, 3.229e-5
-1.091, 3.248e-5
-1.092, 3.326e-5
-1.093, 3.328e-5
-1.094, 3.273e-5
-1.095, 3.238e-5
-1.096, 3.239e-5
-1.097, 3.310e-5
-1.098, 3.334e-5
-1.099, 3.247e-5
-1.100, 3.219e-5
-1.101, 3.253e-5
-1.102, 3.309e-5
-1.103, 3.333e-5
-1.104, 3.260e-5
-1.105, 3.218e-5
-1.106, 3.251e-5
-1.107, 3.306e-5
-1.108, 3.318e-5
-1.109, 3.264e-5
-1.110, 3.204e-5
-1.111, 3.255e-5
-1.112, 3.298e-5
-1.113, 3.318e-5
-1.114, 3.269e-5
-1.115, 3.210e-5
-1.116, 3.246e-5
-1.117, 3.308e-5
-1.118, 3.325e-5
-1.119, 3.291e-5
-1.120, 3.203e-5
-1.121, 3.252e-5
-1.122, 3.317e-5
-1.123, 3.312e-5
-1.124, 3.266e-5
-1.125, 3.223e-5
-1.126, 3.236e-5
-1.127, 3.323e-5
-1.128, 3.326e-5
-1.129, 3.282e-5
-1.130, 3.221e-5
-1.131, 3.252e-5
-1.132, 3.319e-5
-1.133, 3.332e-5
-1.134, 3.274e-5
-1.135, 3.240e-5
-1.136, 3.240e-5
-1.137, 3.319e-5
-1.138, 3.342e-5
-1.139, 3.292e-5
-1.140, 3.234e-5
-1.141, 3.258e-5
-1.142, 3.320e-5
-1.143, 3.360e-5
-1.144, 3.281e-5
-1.145, 3.249e-5
-1.146, 3.270e-5
-1.147, 3.320e-5
-1.148, 3.360e-5
-1.149, 3.297e-5
-1.150, 3.243e-5
-1.151, 3.265e-5
-1.152, 3.330e-5
-1.153, 3.356e-5
-1.154, 3.314e-5
-1.155, 3.246e-5
-1.156, 3.283e-5
-1.157, 3.334e-5
-1.158, 3.363e-5
-1.159, 3.314e-5
-1.160, 3.255e-5
-1.161, 3.266e-5
-1.162, 3.357e-5
-1.163, 3.358e-5
-1.164, 3.318e-5
-1.165, 3.265e-5
-1.166, 3.282e-5
-1.167, 3.357e-5
-1.168, 3.372e-5
-1.169, 3.321e-5
-1.170, 3.276e-5
-1.171, 3.269e-5
-1.172, 3.373e-5
-1.173, 3.378e-5
-1.174, 3.333e-5
-1.175, 3.284e-5
-1.176, 3.285e-5
-1.177, 3.378e-5
-1.178, 3.412e-5
-1.179, 3.334e-5
-1.180, 3.293e-5
-1.181, 3.309e-5
-1.182, 3.374e-5
-1.183, 3.422e-5
-1.184, 3.354e-5
-1.185, 3.303e-5
-1.186, 3.314e-5
-1.187, 3.391e-5
-1.188, 3.434e-5
-1.189, 3.369e-5
-1.190, 3.312e-5
-1.191, 3.346e-5
-1.192, 3.407e-5
-1.193, 3.419e-5
-1.194, 3.400e-5
-1.195, 3.328e-5
-1.196, 3.360e-5
-1.197, 3.431e-5
-1.198, 3.452e-5
-1.199, 3.418e-5
-1.200, 3.362e-5
-1.201, 3.372e-5
-1.202, 3.458e-5
-1.203, 3.486e-5
-1.204, 3.452e-5
-1.205, 3.384e-5
-1.206, 3.398e-5
-1.207, 3.490e-5
-1.208, 3.512e-5
-1.209, 3.472e-5
-1.210, 3.444e-5
-1.211, 3.440e-5
-1.212, 3.529e-5
-1.213, 3.554e-5
-1.214, 3.513e-5
-1.215, 3.483e-5
-1.216, 3.497e-5
-1.217, 3.575e-5
-1.218, 3.620e-5
-1.219, 3.566e-5
-1.220, 3.535e-5
-1.221, 3.555e-5
-1.222, 3.621e-5
-1.223, 3.681e-5
-1.224, 3.645e-5
-1.225, 3.590e-5
-1.226, 3.643e-5
-1.227, 3.697e-5
-1.228, 3.781e-5
-1.229, 3.759e-5
-1.230, 3.692e-5
-1.231, 3.721e-5
-1.232, 3.799e-5
-1.233, 3.842e-5
-1.234, 3.823e-5
-1.235, 3.783e-5
-1.236, 3.807e-5
-1.237, 3.905e-5
-1.238, 3.948e-5
-1.239, 3.931e-5
-1.240, 3.899e-5
-1.241, 3.937e-5
-1.242, 4.039e-5
-1.243, 4.078e-5
-1.244, 4.083e-5
-1.245, 4.034e-5
-1.246, 4.071e-5
-1.247, 4.186e-5
-1.248, 4.237e-5
-1.249, 4.230e-5
-1.250, 4.212e-5
-1.251, 4.228e-5
-1.252, 4.364e-5
-1.253, 4.422e-5
-1.254, 4.410e-5
-1.255, 4.415e-5
-1.256, 4.444e-5
-1.257, 4.547e-5
-1.258, 4.645e-5
-1.259, 4.642e-5
-1.260, 4.633e-5
-1.261, 4.690e-5
-1.262, 4.802e-5
-1.263, 4.897e-5
-1.264, 4.894e-5
-1.265, 4.906e-5
-1.266, 4.964e-5
-1.267, 5.090e-5
-1.268, 5.191e-5
-1.269, 5.211e-5
-1.270, 5.221e-5
-1.271, 5.306e-5
-1.272, 5.419e-5
-1.273, 5.524e-5
-1.274, 5.580e-5
-1.275, 5.586e-5
-1.276, 5.684e-5
-1.277, 5.815e-5
-1.278, 5.947e-5
-1.279, 5.986e-5
-1.280, 6.047e-5
-1.281, 6.121e-5
-1.282, 6.281e-5
-1.283, 6.411e-5
-1.284, 6.476e-5
-1.285, 6.529e-5
-1.286, 6.627e-5
-1.287, 6.815e-5
-1.288, 6.965e-5
-1.289, 7.025e-5
-1.290, 7.127e-5
-1.291, 7.223e-5
-1.292, 7.435e-5
-1.293, 7.605e-5
-1.294, 7.685e-5
-1.295, 7.790e-5
-1.296, 7.914e-5
-1.297, 8.151e-5
-1.298, 8.334e-5
-1.299, 8.445e-5
-1.300, 8.577e-5
-1.301, 8.732e-5
-1.302, 8.955e-5
-1.303, 9.196e-5
-1.304, 9.318e-5
-1.305, 9.464e-5
-1.306, 9.666e-5
-1.307, 9.911e-5
-1.308, 1.017e-4
-1.309, 1.033e-4
-1.310, 1.050e-4
-1.311, 1.073e-4
-1.312, 1.099e-4
-1.313, 1.128e-4
-1.314, 1.148e-4
-1.315, 1.165e-4
-1.316, 1.193e-4
-1.317, 1.223e-4
-1.318, 1.255e-4
-1.319, 1.280e-4
-1.320, 1.302e-4
-1.321, 1.330e-4
-1.322, 1.367e-4
-1.323, 1.402e-4
-1.324, 1.431e-4
-1.325, 1.456e-4
-1.326, 1.489e-4
-1.327, 1.530e-4
-1.328, 1.569e-4
-1.329, 1.601e-4
-1.330, 1.632e-4
-1.331, 1.670e-4
-1.332, 1.715e-4
-1.333, 1.759e-4
-1.334, 1.796e-4
-1.335, 1.833e-4
-1.336, 1.875e-4
-1.337, 1.926e-4
-1.338, 1.974e-4
-1.339, 2.016e-4
-1.340, 2.059e-4
-1.341, 2.107e-4
-1.342, 2.161e-4
-1.343, 2.217e-4
-1.344, 2.263e-4
-1.345, 2.311e-4
-1.346, 2.366e-4
-1.347, 2.425e-4
-1.348, 2.489e-4
-1.349, 2.543e-4
-1.350, 2.599e-4
-1.351, 2.660e-4
-1.352, 2.727e-4
-1.353, 2.796e-4
-1.354, 2.858e-4
-1.355, 2.918e-4
-1.356, 2.988e-4
-1.357, 3.064e-4
-1.358, 3.142e-4
-1.359, 3.212e-4
-1.360, 3.278e-4
-1.361, 3.353e-4
-1.362, 3.439e-4
-1.363, 3.524e-4
-1.364, 3.604e-4
-1.365, 3.681e-4
-1.366, 3.768e-4
-1.367, 3.863e-4
-1.368, 3.956e-4
-1.369, 4.044e-4
-1.370, 4.133e-4
-1.371, 4.223e-4
-1.372, 4.326e-4
-1.373, 4.431e-4
-1.374, 4.530e-4
-1.375, 4.632e-4
-1.376, 4.736e-4
-1.377, 4.853e-4
-1.378, 4.969e-4
-1.379, 5.079e-4
-1.380, 5.195e-4
-1.381, 5.314e-4
-1.382, 5.446e-4
-1.383, 5.580e-4
-1.384, 5.704e-4
-1.385, 5.833e-4
-1.386, 5.965e-4
-1.387, 6.107e-4
-1.388, 6.252e-4
-1.389, 6.389e-4
-1.390, 6.526e-4
-1.391, 6.670e-4
-1.392, 6.822e-4
-1.393, 6.976e-4
-1.394, 7.123e-4
-1.395, 7.267e-4
-1.396, 7.415e-4
-1.397, 7.579e-4
-1.398, 7.745e-4
-1.399, 7.904e-4
-1.400, 8.054e-4
-1.401, 8.216e-4
-1.402, 8.387e-4
-1.403, 8.552e-4
-1.404, 8.717e-4
-1.405, 8.876e-4
-1.406, 9.043e-4
-1.407, 9.222e-4
-1.408, 9.401e-4
-1.409, 9.572e-4
-1.410, 9.746e-4
-1.411, 9.929e-4
-1.412, 1.011e-3
-1.413, 1.030e-3
-1.414, 1.047e-3
-1.415, 1.066e-3
-1.416, 1.085e-3
-1.417, 1.104e-3
-1.418, 1.124e-3
-1.419, 1.144e-3
-1.420, 1.163e-3
-1.421, 1.183e-3
-1.422, 1.202e-3
-1.423, 1.222e-3
-1.424, 1.242e-3
-1.425, 1.263e-3
-1.426, 1.284e-3
-1.427, 1.307e-3
-1.428, 1.329e-3
-1.429, 1.351e-3
-1.430, 1.373e-3
-1.431, 1.395e-3
-1.432, 1.417e-3
-1.433, 1.440e-3
-1.434, 1.464e-3
-1.435, 1.486e-3
-1.436, 1.510e-3
-1.437, 1.532e-3
-1.438, 1.558e-3
-1.439, 1.583e-3
-1.440, 1.606e-3
-1.441, 1.631e-3
-1.442, 1.657e-3
-1.443, 1.682e-3
-1.444, 1.707e-3
-1.445, 1.731e-3
-1.446, 1.756e-3
-1.447, 1.784e-3
-1.448, 1.811e-3
-1.449, 1.837e-3
-1.450, 1.863e-3
-1.451, 1.890e-3
-1.452, 1.919e-3
-1.453, 1.945e-3
-1.454, 1.973e-3
-1.455, 2.000e-3
-1.456, 2.028e-3
-1.457, 2.057e-3
-1.458, 2.086e-3
-1.459, 2.117e-3
-1.460, 2.148e-3
-1.461, 2.177e-3
-1.462, 2.206e-3
-1.463, 2.235e-3
-1.464, 2.257e-3
-1.465, 2.289e-3
-1.466, 2.320e-3
-1.467, 2.352e-3
-1.468, 2.384e-3
-1.469, 2.415e-3
-1.470, 2.446e-3
-1.471, 2.480e-3
-1.472, 2.513e-3
-1.473, 2.549e-3
-1.474, 2.583e-3
-1.475, 2.616e-3
-1.476, 2.651e-3
-1.477, 2.685e-3
-1.478, 2.722e-3
-1.479, 2.755e-3
-1.480, 2.790e-3
-1.481, 2.825e-3
-1.482, 2.861e-3
-1.483, 2.900e-3
-1.484, 2.936e-3
-1.485, 2.971e-3
-1.486, 3.007e-3
-1.487, 3.045e-3
-1.488, 3.083e-3
-1.489, 3.119e-3
-1.490, 3.152e-3
-1.491, 3.186e-3
-1.492, 3.224e-3
-1.493, 3.263e-3
-1.494, 3.302e-3
-1.495, 3.339e-3
-1.496, 3.387e-3
-1.497, 3.429e-3
-1.498, 3.468e-3
-1.499, 3.507e-3
-1.500, 3.547e-3
-1.501, 3.588e-3
-1.502, 3.630e-3
-1.503, 3.670e-3
-1.504, 3.713e-3
-1.505, 3.753e-3
-1.506, 3.795e-3
-1.507, 3.841e-3
-1.508, 3.883e-3
-1.509, 3.926e-3
-1.510, 3.974e-3
-1.511, 4.025e-3
-1.512, 4.083e-3
-1.513, 4.124e-3
-1.514, 4.167e-3
-1.515, 4.212e-3
-1.516, 4.259e-3
-1.517, 4.306e-3
-1.518, 4.352e-3
-1.519, 4.399e-3
-1.520, 4.444e-3
-1.521, 4.487e-3
-1.522, 4.532e-3
-1.523, 4.583e-3
-1.524, 4.632e-3
-1.525, 4.684e-3
-1.526, 4.736e-3
-1.527, 4.783e-3
-1.528, 4.829e-3
-1.529, 4.876e-3
-1.530, 4.924e-3
-1.531, 4.974e-3
-1.532, 5.024e-3
-1.533, 5.072e-3
-1.534, 5.121e-3
-1.535, 5.167e-3
-1.536, 5.212e-3
-1.537, 5.259e-3
-1.538, 5.327e-3
-1.539, 5.385e-3
-1.540, 5.428e-3
-1.541, 5.477e-3
-1.542, 5.545e-3
-1.543, 5.611e-3
-1.544, 5.671e-3
-1.545, 5.721e-3
-1.546, 5.774e-3
-1.547, 5.827e-3
-1.548, 5.881e-3
-1.549, 5.923e-3
-1.550, 5.972e-3
-1.551, 6.028e-3
-1.552, 6.077e-3
-1.553, 6.140e-3
-1.554, 6.218e-3
-1.555, 6.278e-3
-1.556, 6.332e-3
-1.557, 6.390e-3
-1.558, 6.444e-3
-1.559, 6.504e-3
-1.560, 6.574e-3
-1.561, 6.637e-3
-1.562, 6.692e-3
-1.563, 6.748e-3
-1.564, 6.807e-3
-1.565, 6.877e-3
-1.566, 6.939e-3
-1.567, 6.992e-3
-1.568, 7.043e-3
-1.569, 7.097e-3
-1.570, 7.148e-3
-1.571, 7.201e-3
-1.572, 7.254e-3
-1.573, 7.317e-3
-1.574, 7.378e-3
-1.575, 7.442e-3
-1.576, 7.497e-3
-1.577, 7.540e-3
-1.578, 7.597e-3
-1.579, 7.664e-3
-1.580, 7.738e-3
-1.581, 7.794e-3
-1.582, 7.856e-3
-1.583, 7.915e-3
-1.584, 7.972e-3
-1.585, 8.041e-3
-1.586, 8.100e-3
-1.587, 8.156e-3
-1.588, 8.204e-3
-1.589, 8.247e-3
-1.590, 8.315e-3
-1.591, 8.382e-3
-1.592, 8.442e-3
-1.593, 8.505e-3
-1.594, 8.574e-3
-1.595, 8.651e-3
-1.596, 8.726e-3
-1.597, 8.796e-3
-1.598, 8.881e-3
-1.599, 8.943e-3
-1.600, 8.946e-3
-1.599, 8.854e-3
-1.598, 8.785e-3
-1.597, 8.714e-3
-1.596, 8.637e-3
-1.595, 8.568e-3
-1.594, 8.509e-3
-1.593, 8.435e-3
-1.592, 8.368e-3
-1.591, 8.296e-3
-1.590, 8.219e-3
-1.589, 8.147e-3
-1.588, 8.069e-3
-1.587, 8.012e-3
-1.586, 8.001e-3
-1.585, 7.908e-3
-1.584, 7.844e-3
-1.583, 7.756e-3
-1.582, 7.670e-3
-1.581, 7.603e-3
-1.580, 7.537e-3
-1.579, 7.462e-3
-1.578, 7.401e-3
-1.577, 7.335e-3
-1.576, 7.298e-3
-1.575, 7.256e-3
-1.574, 7.193e-3
-1.573, 7.136e-3
-1.572, 7.124e-3
-1.571, 7.092e-3
-1.570, 7.049e-3
-1.569, 7.000e-3
-1.568, 6.943e-3
-1.567, 6.854e-3
-1.566, 6.779e-3
-1.565, 6.720e-3
-1.564, 6.652e-3
-1.563, 6.594e-3
-1.562, 6.528e-3
-1.561, 6.476e-3
-1.560, 6.411e-3
-1.559, 6.339e-3
-1.558, 6.283e-3
-1.557, 6.212e-3
-1.556, 6.168e-3
-1.555, 6.096e-3
-1.554, 6.028e-3
-1.553, 5.969e-3
-1.552, 5.912e-3
-1.551, 5.856e-3
-1.550, 5.812e-3
-1.549, 5.758e-3
-1.548, 5.695e-3
-1.547, 5.644e-3
-1.546, 5.594e-3
-1.545, 5.538e-3
-1.544, 5.476e-3
-1.543, 5.421e-3
-1.542, 5.375e-3
-1.541, 5.317e-3
-1.540, 5.260e-3
-1.539, 5.193e-3
-1.538, 5.136e-3
-1.537, 5.069e-3
-1.536, 5.024e-3
-1.535, 4.963e-3
-1.534, 4.938e-3
-1.533, 4.908e-3
-1.532, 4.865e-3
-1.531, 4.814e-3
-1.530, 4.764e-3
-1.529, 4.722e-3
-1.528, 4.684e-3
-1.527, 4.657e-3
-1.526, 4.612e-3
-1.525, 4.572e-3
-1.524, 4.523e-3
-1.523, 4.478e-3
-1.522, 4.428e-3
-1.521, 4.382e-3
-1.520, 4.334e-3
-1.519, 4.284e-3
-1.518, 4.239e-3
-1.517, 4.195e-3
-1.516, 4.149e-3
-1.515, 4.103e-3
-1.514, 4.058e-3
-1.513, 4.010e-3
-1.512, 3.965e-3
-1.511, 3.921e-3
-1.510, 3.870e-3
-1.509, 3.825e-3
-1.508, 3.780e-3
-1.507, 3.735e-3
-1.506, 3.693e-3
-1.505, 3.652e-3
-1.504, 3.606e-3
-1.503, 3.565e-3
-1.502, 3.526e-3
-1.501, 3.484e-3
-1.500, 3.440e-3
-1.499, 3.394e-3
-1.498, 3.346e-3
-1.497, 3.298e-3
-1.496, 3.256e-3
-1.495, 3.214e-3
-1.494, 3.167e-3
-1.493, 3.130e-3
-1.492, 3.089e-3
-1.491, 3.050e-3
-1.490, 3.012e-3
-1.489, 2.973e-3
-1.488, 2.933e-3
-1.487, 2.894e-3
-1.486, 2.855e-3
-1.485, 2.819e-3
-1.484, 2.783e-3
-1.483, 2.750e-3
-1.482, 2.717e-3
-1.481, 2.682e-3
-1.480, 2.646e-3
-1.479, 2.608e-3
-1.478, 2.569e-3
-1.477, 2.537e-3
-1.476, 2.507e-3
-1.475, 2.477e-3
-1.474, 2.442e-3
-1.473, 2.408e-3
-1.472, 2.372e-3
-1.471, 2.339e-3
-1.470, 2.310e-3
-1.469, 2.281e-3
-1.468, 2.251e-3
-1.467, 2.219e-3
-1.466, 2.187e-3
-1.465, 2.156e-3
-1.464, 2.122e-3
-1.463, 2.094e-3
-1.462, 2.061e-3
-1.461, 2.033e-3
-1.460, 2.002e-3
-1.459, 1.973e-3
-1.458, 1.943e-3
-1.457, 1.912e-3
-1.456, 1.883e-3
-1.455, 1.853e-3
-1.454, 1.826e-3
-1.453, 1.797e-3
-1.452, 1.771e-3
-1.451, 1.743e-3
-1.450, 1.716e-3
-1.449, 1.688e-3
-1.448, 1.660e-3
-1.447, 1.634e-3
-1.446, 1.607e-3
-1.445, 1.582e-3
-1.444, 1.557e-3
-1.443, 1.528e-3
-1.442, 1.506e-3
-1.441, 1.483e-3
-1.440, 1.455e-3
-1.439, 1.431e-3
-1.438, 1.407e-3
-1.437, 1.385e-3
-1.436, 1.362e-3
-1.435, 1.339e-3
-1.434, 1.316e-3
-1.433, 1.294e-3
-1.432, 1.272e-3
-1.431, 1.250e-3
-1.430, 1.228e-3
-1.429, 1.206e-3
-1.428, 1.187e-3
-1.427, 1.166e-3
-1.426, 1.146e-3
-1.425, 1.125e-3
-1.424, 1.104e-3
-1.423, 1.085e-3
-1.422, 1.065e-3
-1.421, 1.046e-3
-1.420, 1.027e-3
-1.419, 1.008e-3
-1.418, 9.902e-4
-1.417, 9.722e-4
-1.416, 9.541e-4
-1.415, 9.374e-4
-1.414, 9.181e-4
-1.413, 9.017e-4
-1.412, 8.846e-4
-1.411, 8.682e-4
-1.410, 8.517e-4
-1.409, 8.343e-4
-1.408, 8.177e-4
-1.407, 8.021e-4
-1.406, 7.868e-4
-1.405, 7.712e-4
-1.404, 7.549e-4
-1.403, 7.395e-4
-1.402, 7.260e-4
-1.401, 7.114e-4
-1.400, 6.964e-4
-1.399, 6.816e-4
-1.398, 6.685e-4
-1.397, 6.554e-4
-1.396, 6.423e-4
-1.395, 6.284e-4
-1.394, 6.157e-4
-1.393, 6.032e-4
-1.392, 5.914e-4
-1.391, 5.796e-4
-1.390, 5.666e-4
-1.389, 5.540e-4
-1.388, 5.424e-4
-1.387, 5.311e-4
-1.386, 5.200e-4
-1.385, 5.080e-4
-1.384, 4.968e-4
-1.383, 4.860e-4
-1.382, 4.761e-4
-1.381, 4.657e-4
-1.380, 4.556e-4
-1.379, 4.443e-4
-1.378, 4.351e-4
-1.377, 4.254e-4
-1.376, 4.165e-4
-1.375, 4.066e-4
-1.374, 3.967e-4
-1.373, 3.885e-4
-1.372, 3.796e-4
-1.371, 3.710e-4
-1.370, 3.618e-4
-1.369, 3.526e-4
-1.368, 3.446e-4
-1.367, 3.374e-4
-1.366, 3.291e-4
-1.365, 3.209e-4
-1.364, 3.124e-4
-1.363, 3.049e-4
-1.362, 2.984e-4
-1.361, 2.910e-4
-1.360, 2.835e-4
-1.359, 2.759e-4
-1.358, 2.692e-4
-1.357, 2.632e-4
-1.356, 2.565e-4
-1.355, 2.495e-4
-1.354, 2.429e-4
-1.353, 2.366e-4
-1.352, 2.314e-4
-1.351, 2.256e-4
-1.350, 2.191e-4
-1.349, 2.133e-4
-1.348, 2.078e-4
-1.347, 2.028e-4
-1.346, 1.975e-4
-1.345, 1.914e-4
-1.344, 1.859e-4
-1.343, 1.810e-4
-1.342, 1.765e-4
-1.341, 1.719e-4
-1.340, 1.667e-4
-1.339, 1.614e-4
-1.338, 1.570e-4
-1.337, 1.529e-4
-1.336, 1.489e-4
-1.335, 1.440e-4
-1.334, 1.392e-4
-1.333, 1.353e-4
-1.332, 1.319e-4
-1.331, 1.279e-4
-1.330, 1.236e-4
-1.329, 1.194e-4
-1.328, 1.161e-4
-1.327, 1.130e-4
-1.326, 1.096e-4
-1.325, 1.057e-4
-1.324, 1.019e-4
-1.323, 9.874e-5
-1.322, 9.632e-5
-1.321, 9.322e-5
-1.320, 8.969e-5
-1.319, 8.613e-5
-1.318, 8.318e-5
-1.317, 8.129e-5
-1.316, 7.843e-5
-1.315, 7.526e-5
-1.314, 7.213e-5
-1.313, 6.962e-5
-1.312, 6.790e-5
-1.311, 6.559e-5
-1.310, 6.253e-5
-1.309, 5.999e-5
-1.308, 5.769e-5
-1.307, 5.613e-5
-1.306, 5.404e-5
-1.305, 5.132e-5
-1.304, 4.885e-5
-1.303, 4.709e-5
-1.302, 4.559e-5
-1.301, 4.386e-5
-1.300, 4.144e-5
-1.299, 3.895e-5
-1.298, 3.749e-5
-1.297, 3.616e-5
-1.296, 3.481e-5
-1.295, 3.255e-5
-1.294, 3.036e-5
-1.293, 2.905e-5
-1.292, 2.803e-5
-1.291, 2.655e-5
-1.290, 2.474e-5
-1.289, 2.252e-5
-1.288, 2.150e-5
-1.287, 2.073e-5
-1.286, 1.937e-5
-1.285, 1.785e-5
-1.284, 1.592e-5
-1.283, 1.474e-5
-1.282, 1.432e-5
-1.281, 1.330e-5
-1.280, 1.161e-5
-1.279, 1.004e-5
-1.278, 9.144e-6
-1.277, 8.907e-6
-1.276, 7.812e-6
-1.275, 6.421e-6
-1.274, 5.040e-6
-1.273, 4.102e-6
-1.272, 4.083e-6
-1.271, 3.352e-6
-1.270, 1.843e-6
-1.269, 7.182e-7
-1.268, 7.695e-8
-1.267, -1.993e-7
-1.266, -6.630e-7
-1.265, -2.123e-6
-1.264, -3.060e-6
-1.263, -3.682e-6
-1.262, -3.771e-6
-1.261, -4.136e-6
-1.260, -5.379e-6
-1.259, -6.464e-6
-1.258, -6.819e-6
-1.257, -6.918e-6
-1.256, -7.263e-6
-1.255, -8.358e-6
-1.254, -9.562e-6
-1.253, -9.740e-6
-1.252, -9.680e-6
-1.251, -1.006e-5
-1.250, -1.093e-5
-1.249, -1.202e-5
-1.248, -1.204e-5
-1.247, -1.195e-5
-1.246, -1.240e-5
-1.245, -1.303e-5
-1.244, -1.411e-5
-1.243, -1.437e-5
-1.242, -1.392e-5
-1.241, -1.441e-5
-1.240, -1.512e-5
-1.239, -1.597e-5
-1.238, -1.628e-5
-1.237, -1.561e-5
-1.236, -1.589e-5
-1.235, -1.693e-5
-1.234, -1.759e-5
-1.233, -1.775e-5
-1.232, -1.743e-5
-1.231, -1.740e-5
-1.230, -1.837e-5
-1.229, -1.942e-5
-1.228, -1.923e-5
-1.227, -1.888e-5
-1.226, -1.887e-5
-1.225, -1.963e-5
-1.224, -2.029e-5
-1.223, -2.028e-5
-1.222, -2.008e-5
-1.221, -1.981e-5
-1.220, -2.068e-5
-1.219, -2.125e-5
-1.218, -2.132e-5
-1.217, -2.101e-5
-1.216, -2.096e-5
-1.215, -2.161e-5
-1.214, -2.241e-5
-1.213, -2.216e-5
-1.212, -2.189e-5
-1.211, -2.180e-5
-1.210, -2.244e-5
-1.209, -2.313e-5
-1.208, -2.307e-5
-1.207, -2.252e-5
-1.206, -2.271e-5
-1.205, -2.308e-5
-1.204, -2.384e-5
-1.203, -2.387e-5
-1.202, -2.333e-5
-1.201, -2.340e-5
-1.200, -2.384e-5
-1.199, -2.439e-5
-1.198, -2.450e-5
-1.197, -2.373e-5
-1.196, -2.375e-5
-1.195, -2.461e-5
-1.194, -2.496e-5
-1.193, -2.510e-5
-1.192, -2.446e-5
-1.191, -2.456e-5
-1.190, -2.516e-5
-1.189, -2.558e-5
-1.188, -2.554e-5
-1.187, -2.518e-5
-1.186, -2.491e-5
-1.185, -2.558e-5
-1.184, -2.596e-5
-1.183, -2.609e-5
-1.182, -2.559e-5
-1.181, -2.531e-5
-1.180, -2.586e-5
-1.179, -2.669e-5
-1.178, -2.668e-5
-1.177, -2.619e-5
-1.176, -2.597e-5
-1.175, -2.644e-5
-1.174, -2.705e-5
-1.173, -2.685e-5
-1.172, -2.644e-5
-1.171, -2.642e-5
-1.170, -2.682e-5
-1.169, -2.766e-5
-1.168, -2.731e-5
-1.167, -2.676e-5
-1.166, -2.670e-5
-1.165, -2.729e-5
-1.164, -2.786e-5
-1.163, -2.785e-5
-1.162, -2.717e-5
-1.161, -2.728e-5
-1.160, -2.769e-5
-1.159, -2.825e-5
-1.158, -2.836e-5
-1.157, -2.757e-5
-1.156, -2.757e-5
-1.155, -2.825e-5
-1.154, -2.853e-5
-1.153, -2.878e-5
-1.152, -2.807e-5
-1.151, -2.795e-5
-1.150, -2.869e-5
-1.149, -2.909e-5
-1.148, -2.903e-5
-1.147, -2.852e-5
-1.146, -2.839e-5
-1.145, -2.897e-5
-1.144, -2.944e-5
-1.143, -2.939e-5
-1.142, -2.902e-5
-1.141, -2.872e-5
-1.140, -2.927e-5
-1.139, -2.993e-5
-1.138, -2.992e-5
-1.137, -2.935e-5
-1.136, -2.908e-5
-1.135, -2.969e-5
-1.134, -3.035e-5
-1.133, -3.030e-5
-1.132, -2.974e-5
-1.131, -2.973e-5
-1.130, -3.012e-5
-1.129, -3.090e-5
-1.128, -3.066e-5
-1.127, -3.010e-5
-1.126, -3.026e-5
-1.125, -3.052e-5
-1.124, -3.129e-5
-1.123, -3.128e-5
-1.122, -3.062e-5
-1.121, -3.055e-5
-1.120, -3.102e-5
-1.119, -3.174e-5
-1.118, -3.165e-5
-1.117, -3.107e-5
-1.116, -3.094e-5
-1.115, -3.149e-5
-1.114, -3.223e-5
-1.113, -3.221e-5
-1.112, -3.144e-5
-1.111, -3.142e-5
-1.110, -3.210e-5
-1.109, -3.263e-5
-1.108, -3.267e-5
-1.107, -3.221e-5
-1.106, -3.202e-5
-1.105, -3.271e-5
-1.104, -3.306e-5
-1.103, -3.322e-5
-1.102, -3.270e-5
-1.101, -3.255e-5
-1.100, -3.310e-5
-1.099, -3.394e-5
-1.098, -3.368e-5
-1.097, -3.339e-5
-1.096, -3.311e-5
-1.095, -3.363e-5
-1.094, -3.451e-5
-1.093, -3.437e-5
-1.092, -3.385e-5
-1.091, -3.383e-5
-1.090, -3.440e-5
-1.089, -3.511e-5
-1.088, -3.510e-5
-1.087, -3.446e-5
-1.086, -3.451e-5
-1.085, -3.508e-5
-1.084, -3.577e-5
-1.083, -3.580e-5
-1.082, -3.514e-5
-1.081, -3.532e-5
-1.080, -3.583e-5
-1.079, -3.647e-5
-1.078, -3.674e-5
-1.077, -3.604e-5
-1.076, -3.614e-5
-1.075, -3.704e-5
-1.074, -3.746e-5
-1.073, -3.760e-5
-1.072, -3.688e-5
-1.071, -3.698e-5
-1.070, -3.763e-5
-1.069, -3.825e-5
-1.068, -3.837e-5
-1.067, -3.790e-5
-1.066, -3.780e-5
-1.065, -3.872e-5
-1.064, -3.918e-5
-1.063, -3.935e-5
-1.062, -3.898e-5
-1.061, -3.888e-5
-1.060, -3.970e-5
-1.059, -4.039e-5
-1.058, -4.053e-5
-1.057, -4.008e-5
-1.056, -4.002e-5
-1.055, -4.074e-5
-1.054, -4.163e-5
-1.053, -4.167e-5
-1.052, -4.124e-5
-1.051, -4.142e-5
-1.050, -4.209e-5
-1.049, -4.307e-5
-1.048, -4.304e-5
-1.047, -4.264e-5
-1.046, -4.283e-5
-1.045, -4.341e-5
-1.044, -4.439e-5
-1.043, -4.462e-5
-1.042, -4.400e-5
-1.041, -4.438e-5
-1.040, -4.508e-5
-1.039, -4.598e-5
-1.038, -4.622e-5
-1.037, -4.587e-5
-1.036, -4.609e-5
-1.035, -4.684e-5
-1.034, -4.770e-5
-1.033, -4.819e-5
-1.032, -4.763e-5
-1.031, -4.790e-5
-1.030, -4.887e-5
-1.029, -4.966e-5
-1.028, -5.004e-5
-1.027, -4.986e-5
-1.026, -4.994e-5
-1.025, -5.101e-5
-1.024, -5.223e-5
-1.023, -5.242e-5
-1.022, -5.224e-5
-1.021, -5.239e-5
-1.020, -5.330e-5
-1.019, -5.446e-5
-1.018, -5.481e-5
-1.017, -5.481e-5
-1.016, -5.500e-5
-1.015, -5.598e-5
-1.014, -5.721e-5
-1.013, -5.758e-5
-1.012, -5.747e-5
-1.011, -5.793e-5
-1.010, -5.895e-5
-1.009, -6.034e-5
-1.008, -6.052e-5
-1.007, -6.053e-5
-1.006, -6.113e-5
-1.005, -6.209e-5
-1.004, -6.340e-5
-1.003, -6.384e-5
-1.002, -6.386e-5
-1.001, -6.456e-5
