Potential V vs RHE, Current mA cm-2
0.013299999999999867,-0.4384190318281749
0.012299999999999978,-1.3543031273607997
0.011299999999999866,-1.92117794521672
0.010299999999999976,-2.3569090255751513
0.009299999999999864,-2.7501987669376318
0.008299999999999974,-3.0119203574126634
0.007299999999999862,-3.273641947887695
0.006299999999999972,-3.4915074880669104
0.00529999999999986,-3.6655169779503103
0.0042999999999999705,-3.840941179133574
0.0032999999999998586,-3.971094618721158
0.0022999999999999687,-4.0588067193127895
0.0012999999999998568,-4.146518819904423
0.00029999999999996696,-4.1889601589003735
-0.000700000000000145,-4.276672259492005
-0.0017000000000000348,-4.276672259492005
-0.0027000000000001467,-4.364384360083638
-0.0037000000000000366,-4.406825699079589
-0.0047000000000001485,-4.450681749375406
-0.005700000000000038,-4.494537799671222
-0.00670000000000015,-4.582249900262854
-0.00770000000000004,-4.626105950558669
-0.008700000000000152,-4.668547289554621
-0.009700000000000042,-4.712403339850438
-0.010700000000000154,-4.756259390146253
-0.011700000000000044,-4.756259390146253
-0.012700000000000156,-4.756259390146253
-0.013700000000000045,-4.756259390146253
-0.014700000000000157,-4.800115440442069
-0.015700000000000047,-4.800115440442069
-0.01670000000000016,-4.800115440442069
-0.01770000000000005,-4.800115440442069
-0.01870000000000016,-4.843971490737885
-0.01970000000000005,-4.887827541033701
-0.020700000000000163,-4.9302688800296535
-0.021700000000000053,-4.974124930325469
-0.022700000000000164,-4.974124930325469
-0.023700000000000054,-4.974124930325469
-0.024700000000000166,-4.974124930325469
-0.025700000000000056,-4.974124930325469
-0.026700000000000168,-4.974124930325469
-0.027700000000000058,-4.974124930325469
-0.02870000000000017,-4.974124930325469
-0.02970000000000006,-4.974124930325469
-0.03070000000000017,-4.974124930325469
-0.03170000000000006,-5.017980980621284
-0.03270000000000017,-5.017980980621284
-0.03370000000000006,-5.0618370309171015
-0.034700000000000175,-5.105693081212917
-0.035700000000000065,-5.105693081212917
-0.03670000000000018,-5.149549131508733
-0.03770000000000007,-5.149549131508733
-0.03870000000000018,-5.149549131508733
-0.03970000000000007,-5.105693081212917
-0.04070000000000018,-5.105693081212917
-0.04170000000000007,-5.0618370309171015
-0.04270000000000018,-5.0618370309171015
-0.04370000000000007,-5.105693081212917
-0.044700000000000184,-5.105693081212917
-0.045700000000000074,-5.105693081212917
-0.046700000000000186,-5.149549131508733
-0.047700000000000076,-5.149549131508733
-0.04870000000000019,-5.191990470504685
-0.04970000000000008,-5.235846520800501
-0.05070000000000019,-5.235846520800501
-0.05170000000000008,-5.235846520800501
-0.05270000000000019,-5.191990470504685
-0.05370000000000008,-5.191990470504685
-0.05470000000000019,-5.191990470504685
-0.05570000000000008,-5.149549131508733
-0.056700000000000195,-5.149549131508733
-0.057700000000000085,-5.149549131508733
-0.058700000000000196,-5.149549131508733
-0.059700000000000086,-5.235846520800501
-0.0607000000000002,-5.235846520800501
-0.06170000000000009,-5.279702571096316
-0.0627000000000002,-5.279702571096316
-0.06370000000000009,-5.279702571096316
-0.0647000000000002,-5.279702571096316
-0.06570000000000009,-5.279702571096316
-0.0667000000000002,-5.235846520800501
-0.0677000000000001,-5.235846520800501
-0.0687000000000002,-5.235846520800501
-0.0697000000000001,-5.191990470504685
-0.07070000000000021,-5.235846520800501
-0.0717000000000001,-5.235846520800501
-0.07270000000000021,-5.235846520800501
-0.0737000000000001,-5.279702571096316
-0.07470000000000021,-5.279702571096316
-0.0757000000000001,-5.323558621392133
-0.07670000000000021,-5.323558621392133
-0.0777000000000001,-5.323558621392133
-0.07870000000000021,-5.323558621392133
-0.0797000000000001,-5.279702571096316
-0.08070000000000022,-5.279702571096316
-0.0817000000000001,-5.279702571096316
-0.08270000000000022,-5.235846520800501
-0.08370000000000011,-5.235846520800501
-0.08470000000000022,-5.279702571096316
-0.08570000000000011,-5.279702571096316
-0.08670000000000022,-5.323558621392133
-0.08770000000000011,-5.323558621392133
-0.08870000000000022,-5.367414671687949
-0.08970000000000011,-5.367414671687949
-0.09070000000000022,-5.367414671687949
-0.09170000000000011,-5.323558621392133
-0.09270000000000023,-5.323558621392133
-0.09370000000000012,-5.323558621392133
-0.09470000000000023,-5.279702571096316
-0.09570000000000012,-5.279702571096316
-0.09670000000000023,-5.279702571096316
-0.09770000000000012,-5.279702571096316
-0.09870000000000023,-5.279702571096316
-0.09970000000000012,-5.323558621392133
-0.10070000000000023,-5.367414671687949
-0.10170000000000012,-5.411270721983764
-0.10270000000000024,-5.411270721983764
-0.10370000000000013,-5.411270721983764
-0.10470000000000024,-5.367414671687949
-0.10570000000000013,-5.367414671687949
-0.10670000000000024,-5.367414671687949
-0.10770000000000013,-5.367414671687949
-0.10870000000000024,-5.323558621392133
-0.10970000000000013,-5.323558621392133
-0.11070000000000024,-5.323558621392133
-0.11170000000000013,-5.323558621392133
-0.11270000000000002,-5.323558621392133
-0.11370000000000013,-5.367414671687949
-0.11470000000000002,-5.367414671687949
-0.11570000000000014,-5.411270721983764
-0.11670000000000003,-5.411270721983764
-0.11770000000000014,-5.411270721983764
-0.11870000000000003,-5.411270721983764
-0.11970000000000014,-5.367414671687949
-0.12070000000000003,-5.367414671687949
-0.12170000000000014,-5.367414671687949
-0.12270000000000003,-5.367414671687949
-0.12370000000000014,-5.367414671687949
-0.12470000000000003,-5.367414671687949
-0.12570000000000014,-5.367414671687949
-0.12670000000000003,-5.411270721983764
-0.12770000000000015,-5.411270721983764
-0.12870000000000004,-5.453712060979717
-0.12970000000000015,-5.453712060979717
-0.13070000000000004,-5.453712060979717
-0.13170000000000015,-5.453712060979717
-0.13270000000000004,-5.411270721983764
-0.13370000000000015,-5.411270721983764
-0.13470000000000004,-5.411270721983764
-0.13570000000000015,-5.367414671687949
-0.13670000000000004,-5.367414671687949
-0.13770000000000016,-5.367414671687949
-0.13870000000000005,-5.367414671687949
-0.13970000000000016,-5.411270721983764
-0.14070000000000005,-5.411270721983764
-0.14170000000000016,-5.453712060979717
-0.14270000000000005,-5.453712060979717
-0.14370000000000016,-5.453712060979717
-0.14470000000000005,-5.453712060979717
-0.14570000000000016,-5.453712060979717
-0.14670000000000005,-5.411270721983764
-0.14770000000000016,-5.453712060979717
-0.14870000000000005,-5.367414671687949
-0.14970000000000017,-5.367414671687949
-0.15070000000000006,-5.411270721983764
-0.15170000000000017,-5.411270721983764
-0.15270000000000006,-5.411270721983764
-0.15370000000000017,-5.453712060979717
-0.15470000000000006,-5.453712060979717
-0.15570000000000017,-5.497568111275533
-0.15670000000000006,-5.497568111275533
-0.15770000000000017,-5.497568111275533
-0.15870000000000006,-5.497568111275533
-0.15970000000000018,-5.497568111275533
-0.16070000000000007,-5.453712060979717
-0.16170000000000018,-5.411270721983764
-0.16270000000000007,-5.453712060979717
-0.16370000000000018,-5.453712060979717
-0.16470000000000007,-5.453712060979717
-0.16570000000000018,-5.453712060979717
-0.16670000000000007,-5.497568111275533
-0.16770000000000018,-5.5414241615713475
-0.16870000000000007,-5.5414241615713475
-0.16970000000000018,-5.5414241615713475
-0.17070000000000007,-5.5414241615713475
-0.17170000000000019,-5.5414241615713475
-0.17270000000000008,-5.5414241615713475
-0.1737000000000002,-5.497568111275533
-0.17470000000000008,-5.497568111275533
-0.1757000000000002,-5.453712060979717
-0.17670000000000008,-5.497568111275533
-0.1777000000000002,-5.497568111275533
-0.17870000000000008,-5.497568111275533
-0.1797000000000002,-5.5414241615713475
-0.18070000000000008,-5.5414241615713475
-0.1817000000000002,-5.585280211867165
-0.18270000000000008,-5.585280211867165
-0.1837000000000002,-5.629136262162981
-0.1847000000000001,-5.585280211867165
-0.1857000000000002,-5.585280211867165
-0.1867000000000001,-5.585280211867165
-0.1877000000000002,-5.585280211867165
-0.1887000000000001,-5.5414241615713475
-0.1897000000000002,-5.5414241615713475
-0.1907000000000001,-5.5414241615713475
-0.1917000000000001,-5.5414241615713475
-0.19269999999999998,-5.585280211867165
-0.1937000000000001,-5.629136262162981
-0.19469999999999998,-5.629136262162981
-0.1957000000000001,-5.672992312458796
-0.19669999999999999,-5.672992312458796
-0.1977000000000001,-5.672992312458796
-0.1987,-5.672992312458796
-0.1997000000000001,-5.629136262162981
-0.2007,-5.629136262162981
-0.2017000000000001,-5.629136262162981
-0.2027,-5.629136262162981
-0.2037000000000001,-5.629136262162981
-0.2047,-5.629136262162981
-0.2057000000000001,-5.672992312458796
-0.2067,-5.672992312458796
-0.2077000000000001,-5.715433651454749
-0.2087,-5.715433651454749
-0.2097000000000001,-5.759289701750564
-0.2107,-5.759289701750564
-0.2117000000000001,-5.759289701750564
-0.2127,-5.715433651454749
-0.2137000000000001,-5.715433651454749
-0.2147,-5.715433651454749
-0.2157000000000001,-5.715433651454749
-0.2167,-5.715433651454749
-0.21770000000000012,-5.715433651454749
-0.2187,-5.715433651454749
-0.21970000000000012,-5.759289701750564
-0.2207,-5.80314575204638
-0.22170000000000012,-5.80314575204638
-0.2227,-5.847001802342197
-0.22370000000000012,-5.847001802342197
-0.2247,-5.847001802342197
-0.22570000000000012,-5.847001802342197
-0.2267,-5.847001802342197
-0.22770000000000012,-5.80314575204638
-0.22870000000000001,-5.80314575204638
-0.22970000000000013,-5.80314575204638
-0.23070000000000002,-5.80314575204638
-0.23170000000000013,-5.847001802342197
-0.23270000000000002,-5.847001802342197
-0.23370000000000013,-5.890857852638012
-0.23470000000000002,-5.9347139029338285
-0.23570000000000013,-5.977155241929781
-0.23670000000000002,-5.9347139029338285
-0.2376999999999999,-5.977155241929781
-0.23870000000000002,-5.977155241929781
-0.2396999999999999,-5.9347139029338285
-0.24070000000000003,-5.9347139029338285
-0.24169999999999991,-5.9347139029338285
-0.24270000000000003,-5.9347139029338285
-0.24369999999999992,-5.977155241929781
-0.24470000000000003,-5.977155241929781
-0.24569999999999992,-5.977155241929781
-0.24670000000000003,-6.021011292225596
-0.24769999999999992,-6.064867342521412
-0.24870000000000003,-6.108723392817228
-0.24969999999999992,-6.108723392817228
-0.25070000000000003,-6.152579443113044
-0.2516999999999999,-6.152579443113044
-0.25270000000000004,-6.108723392817228
-0.2536999999999999,-6.108723392817228
-0.25470000000000004,-6.108723392817228
-0.2556999999999999,-6.108723392817228
-0.25670000000000004,-6.108723392817228
-0.25769999999999993,-6.152579443113044
-0.25870000000000004,-6.152579443113044
-0.25969999999999993,-6.196435493408861
-0.26070000000000004,-6.238876832404812
-0.26169999999999993,-6.282732882700628
-0.26270000000000004,-6.282732882700628
-0.26369999999999993,-6.326588932996443
-0.26470000000000005,-6.326588932996443
-0.26569999999999994,-6.326588932996443
-0.26670000000000005,-6.326588932996443
-0.26769999999999994,-6.326588932996443
-0.26870000000000005,-6.326588932996443
-0.26969999999999994,-6.326588932996443
-0.27070000000000005,-6.37044498329226
-0.27169999999999994,-6.414301033588076
-0.27270000000000005,-6.414301033588076
-0.27369999999999994,-6.458157083883892
-0.27470000000000006,-6.500598422879844
-0.27569999999999995,-6.54445447317566
-0.27670000000000006,-6.588310523471475
-0.27769999999999995,-6.588310523471475
-0.27870000000000006,-6.588310523471475
-0.27969999999999995,-6.588310523471475
-0.28070000000000006,-6.588310523471475
-0.28169999999999995,-6.632166573767292
-0.28270000000000006,-6.632166573767292
-0.28369999999999995,-6.632166573767292
-0.28470000000000006,-6.6760226240631075
-0.28569999999999995,-6.719878674358924
-0.28670000000000007,-6.762320013354876
-0.28769999999999996,-6.806176063650692
-0.28870000000000007,-6.893888164242324
-0.28969999999999996,-6.893888164242324
-0.29070000000000007,-6.93774421453814
-0.29169999999999996,-6.93774421453814
-0.29270000000000007,-6.981600264833956
-0.29369999999999996,-6.981600264833956
-0.2947000000000001,-6.981600264833956
-0.29569999999999996,-6.981600264833956
-0.2967000000000001,-7.024041603829907
-0.29769999999999996,-7.067897654125724
-0.2987000000000001,-7.111753704421539
-0.29969999999999997,-7.199465805013171
-0.3007000000000001,-7.243321855308987
-0.30169999999999997,-7.28576319430494
-0.3027000000000001,-7.329619244600755
-0.30369999999999997,-7.37347529489657
-0.3047000000000001,-7.4173313451923875
-0.30569999999999997,-7.4173313451923875
-0.3067000000000001,-7.461187395488204
-0.3077,-7.461187395488204
-0.3087000000000001,-7.50504344578402
-0.3097,-7.50504344578402
-0.3107000000000001,-7.591340835075788
-0.3117,-7.635196885371603
-0.3127000000000001,-7.679052935667419
-0.3137,-7.809206375255003
-0.3147000000000001,-7.853062425550818
-0.3157,-7.896918475846635
-0.3167000000000001,-7.940774526142452
-0.3177,-7.984630576438266
-0.3187000000000001,-8.027071915434218
-0.3197,-8.070927965730034
-0.3207000000000001,-8.11478401602585
-0.3217,-8.11478401602585
-0.3227000000000001,-8.158640066321666
-0.3237,-8.246352166913299
-0.3247000000000001,-8.288793505909249
-0.3257,-8.376505606500881
-0.3267000000000001,-8.464217707092514
-0.3277,-8.55051509638428
-0.3287000000000001,-8.638227196975913
-0.3297,-8.725939297567548
-0.3307000000000001,-8.769795347863363
-0.3317,-8.812236686859313
-0.3327000000000001,-8.85609273715513
-0.3337,-8.943804837746763
-0.3347000000000001,-8.987660888042578
-0.3357,-9.031516938338395
-0.3367000000000001,-9.11781432763016
-0.3377,-9.205526428221793
-0.3387000000000001,-9.24938247851761
-0.3397,-9.379535918105192
-0.3407000000000001,-9.467248018696827
-0.3417,-9.59740145828441
-0.3427000000000001,-9.641257508580225
-0.3437,-9.772825659467674
-0.3447000000000001,-9.85912304875944
-0.3457,-9.902979099055257
-0.3467000000000001,-9.946835149351072
-0.3477,-10.034547249942705
-0.3487000000000001,-10.120844639234473
-0.3497,-10.208556739826104
-0.3507000000000001,-10.296268840417738
-0.3517,-10.42642228000532
-0.3527000000000001,-10.514134380596953
-0.3537,-10.644287820184536
-0.3547000000000001,-10.775855971071984
-0.3557,-10.906009410659568
-0.35670000000000013,-10.993721511251199
-0.3577,-11.081433611842833
-0.35870000000000013,-11.211587051430415
-0.3597,-11.299299152022046
-0.36070000000000013,-11.385596541313816
-0.3617,-11.473308641905447
-0.3626999999999999,-11.604876792792895
-0.3637,-11.73503023238048
-0.3646999999999999,-11.86659838326793
-0.3657,-11.996751822855511
-0.3666999999999999,-12.12831997374296
-0.3677,-12.302329463626359
-0.3686999999999999,-12.432482903213943
-0.36970000000000003,-12.56405105410139
-0.3706999999999999,-12.694204493688973
-0.37170000000000003,-12.825772644576423
-0.3726999999999999,-12.913484745168056
-0.37370000000000003,-13.087494235051453
-0.3746999999999999,-13.175206335643086
-0.37570000000000003,-13.30535977523067
-0.3766999999999999,-13.47936926511407
-0.37770000000000004,-13.567081365705702
-0.3786999999999999,-13.741090855589102
-0.37970000000000004,-13.960371107068182
-0.3806999999999999,-14.13438059695158
-0.38170000000000004,-14.30273124163552
-0.38269999999999993,-14.444202371622024
-0.38370000000000004,-14.61396772760583
-0.38469999999999993,-14.741291744593681
-0.38570000000000004,-14.925204213576137
-0.38669999999999993,-15.05252823056399
-0.38770000000000004,-15.222293586547794
-0.38869999999999993,-15.349617603535648
-0.38970000000000005,-15.533530072518102
-0.39069999999999994,-15.70329542850191
-0.39170000000000005,-15.87306078448571
-0.39269999999999994,-16.099414592464115
-0.39370000000000005,-16.311621287443874
-0.39469999999999994,-16.53797509542228
-0.39570000000000005,-16.750181790402035
-0.39669999999999994,-16.919947146385837
-0.39770000000000005,-17.103859615368293
-0.39869999999999994,-17.2736249713521
-0.39970000000000006,-17.4433903273359
-0.40069999999999995,-17.627302796318357
-0.40170000000000006,-17.839509491298113
-0.40269999999999995,-18.009274847281915
-0.40370000000000006,-18.23562865526032
-0.40469999999999995,-18.44783535024008
-0.40570000000000006,-18.674189158218486
-0.40669999999999995,-18.92883719219419
-0.40770000000000006,-19.197632339168546
-0.40869999999999995,-19.409839034148305
-0.40970000000000006,-19.678634181122664
-0.41069999999999995,-19.890840876102416
-0.41170000000000007,-20.10304757108217
-0.41269999999999996,-20.329401379060574
-0.41370000000000007,-20.541608074040333
-0.41469999999999996,-20.810403221014692
-0.41570000000000007,-21.022609915994444
-0.41669999999999996,-21.248963723972853
-0.41770000000000007,-21.54605309694451
-0.41869999999999996,-21.772406904922917
-0.4197000000000001,-22.069496277894572
-0.42069999999999996,-22.38073276386488
-0.4217000000000001,-22.63538079784059
-0.42269999999999996,-22.904175944814945
-0.4237000000000001,-23.2012653177866
-0.42469999999999997,-23.47006046476096
-0.4257000000000001,-23.724708498736668
-0.42669999999999997,-23.951062306715073
-0.4277000000000001,-24.24815167968673
-0.42869999999999997,-24.516946826661083
-0.4297000000000001,-24.771594860636792
-0.43069999999999997,-25.0828313466071
-0.4317000000000001,-25.39406783257741
-0.4327,-25.73359854454502
-0.4337000000000001,-26.044835030515326
-0.4347,-26.38436574248293
-0.4357000000000001,-26.738043567449193
-0.4367,-27.091721392415455
-0.4377000000000001,-27.38881076538711
-0.4387,-27.700047251357418
-0.4397000000000001,-28.05372507632368
-0.4407,-28.308373110299385
-0.4417000000000001,-28.662050935265643
-0.4427,-29.001581647233255
-0.4437000000000001,-29.31281813320356
-0.4447,-29.708937297165768
-0.4457000000000001,-30.04846800913338
-0.4467,-30.444587173095588
-0.4477000000000001,-30.8407063370578
-0.4487,-31.19438416202406
-0.4497000000000001,-31.57635621298762
-0.4507,-32.01491671594578
-0.4517000000000001,-32.368594540912035
-0.4527,-32.70812525287965
-0.4537000000000001,-33.10424441684186
-0.4547,-33.50036358080407
-0.4557000000000001,-33.85404140577033
-0.4567,-34.278454795729836
-0.4577000000000001,-34.67457395969205
-0.4587,-35.11313446265021
-0.4597000000000001,-35.55169496560837
-0.4607,-35.99025546856653
-0.4617000000000001,-36.47125731052064
-0.4627,-36.8532293614842
-0.4637000000000001,-37.334231203438314
-0.4647,-37.77279170639648
-0.4657000000000001,-38.211352209354644
-0.4667,-38.6499127123128
-0.4677000000000001,-39.08847321527096
-0.4687,-39.51288660523048
-0.4697000000000001,-39.95144710818864
-0.4707,-40.3900076111468
-0.4717000000000001,-40.91345079209687
-0.4727,-41.39445263405098
-0.4737000000000001,-41.87545447600508
-0.4747,-42.3564563179592
-0.4757000000000001,-42.87989949890926
-0.4767,-43.36090134086337
-0.4777000000000001,-43.84190318281749
-0.4787,-44.3229050247716
-0.4797000000000001,-44.80390686672572
-0.4807,-45.27076159568118
-0.48170000000000013,-45.75176343763528
-0.4827,-46.27520661858535
-0.48370000000000013,-46.79864979953541
-0.4847,-47.27965164148953
-0.48570000000000013,-47.84553616143554
-0.4867,-48.36897934238561
-0.4876999999999999,-48.93486386233162
-0.4887,-49.557336834272235
-0.4896999999999999,-50.0807800152223
-0.4907,-50.64666453516831
-0.4916999999999999,-51.17010771611838
-0.4927,-51.73599223606439
-0.4936999999999999,-52.25943541701445
-0.49470000000000003,-52.82531993696047
-0.4956999999999999,-53.39120445690648
-0.49670000000000003,-53.9570889768525
-0.4976999999999999,-54.52297349679851
-0.49870000000000003,-55.13129935574048
-0.4996999999999999,-55.73962521468245
-0.5007,-56.36209818662306
-0.5016999999999999,-56.97042404556503
-0.5027,-57.57874990450699
-0.5036999999999999,-58.18707576344896
-0.5047,-58.79540162239092
-0.5056999999999999,-59.36128614233694
-0.5067,-59.92717066228296
-0.5076999999999999,-60.54964363422357
-0.5087,-61.11552815416958
-0.5096999999999999,-61.72385401311155
-0.5107,-62.28973853305756
-0.5116999999999999,-62.89806439199953
