Dec. 24, 2024   20:50:18
Cyclic Voltammetry
File: c:/users/guazh/data/banditlqround7_x0exp136_r20/2024-12-24-exp731\exp731-2024-12-24t20_37_57-h2koh\exp731_cv_50mvs_efin_-1600mv.bin
Data Source:  Experiment
Instrument Model:  CHI760E
Header: CV ran at 50 mVs
Note: 

Init E (V) = -1
High E (V) = -1
Low E (V) = -1.6
Final E (V) = -1
Init P/N = N
Scan Rate (V/s) = 0.05
Segment = 7
Sample Interval (V) = 0.001
Quiet Time (sec) = 60
Sensitivity (A/V) = 0.001
Comp R (ohm) = 1.2

Results:

Channel 1:
Segment 1:

Segment 2:
Ep = -1.065V
ip = -2.686e-8A
Ah = -8.031e-7C

Segment 3:

Segment 4:

Segment 5:

Segment 6:

Segment 7:

Potential/V, Current/A

-1.000, 7.823e-6
-1.001, 9.849e-6
-1.002, 1.038e-5
-1.003, 1.105e-5
-1.004, 1.199e-5
-1.005, 1.221e-5
-1.006, 1.174e-5
-1.007, 1.179e-5
-1.008, 1.227e-5
-1.009, 1.295e-5
-1.010, 1.310e-5
-1.011, 1.257e-5
-1.012, 1.241e-5
-1.013, 1.293e-5
-1.014, 1.352e-5
-1.015, 1.369e-5
-1.016, 1.306e-5
-1.017, 1.284e-5
-1.018, 1.344e-5
-1.019, 1.398e-5
-1.020, 1.408e-5
-1.021, 1.353e-5
-1.022, 1.332e-5
-1.023, 1.385e-5
-1.024, 1.443e-5
-1.025, 1.442e-5
-1.026, 1.396e-5
-1.027, 1.364e-5
-1.028, 1.410e-5
-1.029, 1.478e-5
-1.030, 1.481e-5
-1.031, 1.433e-5
-1.032, 1.402e-5
-1.033, 1.447e-5
-1.034, 1.518e-5
-1.035, 1.511e-5
-1.036, 1.457e-5
-1.037, 1.447e-5
-1.038, 1.482e-5
-1.039, 1.551e-5
-1.040, 1.547e-5
-1.041, 1.493e-5
-1.042, 1.481e-5
-1.043, 1.521e-5
-1.044, 1.588e-5
-1.045, 1.585e-5
-1.046, 1.537e-5
-1.047, 1.519e-5
-1.048, 1.563e-5
-1.049, 1.616e-5
-1.050, 1.623e-5
-1.051, 1.581e-5
-1.052, 1.554e-5
-1.053, 1.604e-5
-1.054, 1.662e-5
-1.055, 1.678e-5
-1.056, 1.613e-5
-1.057, 1.595e-5
-1.058, 1.644e-5
-1.059, 1.702e-5
-1.060, 1.707e-5
-1.061, 1.672e-5
-1.062, 1.641e-5
-1.063, 1.684e-5
-1.064, 1.741e-5
-1.065, 1.752e-5
-1.066, 1.718e-5
-1.067, 1.683e-5
-1.068, 1.722e-5
-1.069, 1.793e-5
-1.070, 1.798e-5
-1.071, 1.760e-5
-1.072, 1.723e-5
-1.073, 1.764e-5
-1.074, 1.840e-5
-1.075, 1.848e-5
-1.076, 1.803e-5
-1.077, 1.771e-5
-1.078, 1.809e-5
-1.079, 1.891e-5
-1.080, 1.879e-5
-1.081, 1.839e-5
-1.082, 1.825e-5
-1.083, 1.859e-5
-1.084, 1.923e-5
-1.085, 1.931e-5
-1.086, 1.885e-5
-1.087, 1.868e-5
-1.088, 1.908e-5
-1.089, 1.964e-5
-1.090, 1.987e-5
-1.091, 1.926e-5
-1.092, 1.908e-5
-1.093, 1.958e-5
-1.094, 2.016e-5
-1.095, 2.031e-5
-1.096, 1.988e-5
-1.097, 1.960e-5
-1.098, 1.999e-5
-1.099, 2.064e-5
-1.100, 2.073e-5
-1.101, 2.036e-5
-1.102, 2.001e-5
-1.103, 2.051e-5
-1.104, 2.107e-5
-1.105, 2.125e-5
-1.106, 2.086e-5
-1.107, 2.048e-5
-1.108, 2.085e-5
-1.109, 2.162e-5
-1.110, 2.167e-5
-1.111, 2.134e-5
-1.112, 2.090e-5
-1.113, 2.136e-5
-1.114, 2.211e-5
-1.115, 2.209e-5
-1.116, 2.174e-5
-1.117, 2.143e-5
-1.118, 2.188e-5
-1.119, 2.257e-5
-1.120, 2.259e-5
-1.121, 2.219e-5
-1.122, 2.203e-5
-1.123, 2.224e-5
-1.124, 2.297e-5
-1.125, 2.311e-5
-1.126, 2.262e-5
-1.127, 2.246e-5
-1.128, 2.273e-5
-1.129, 2.339e-5
-1.130, 2.361e-5
-1.131, 2.308e-5
-1.132, 2.286e-5
-1.133, 2.320e-5
-1.134, 2.390e-5
-1.135, 2.413e-5
-1.136, 2.347e-5
-1.137, 2.328e-5
-1.138, 2.373e-5
-1.139, 2.424e-5
-1.140, 2.455e-5
-1.141, 2.400e-5
-1.142, 2.370e-5
-1.143, 2.411e-5
-1.144, 2.475e-5
-1.145, 2.491e-5
-1.146, 2.452e-5
-1.147, 2.411e-5
-1.148, 2.452e-5
-1.149, 2.518e-5
-1.150, 2.538e-5
-1.151, 2.497e-5
-1.152, 2.457e-5
-1.153, 2.491e-5
-1.154, 2.567e-5
-1.155, 2.581e-5
-1.156, 2.531e-5
-1.157, 2.508e-5
-1.158, 2.537e-5
-1.159, 2.608e-5
-1.160, 2.616e-5
-1.161, 2.576e-5
-1.162, 2.555e-5
-1.163, 2.577e-5
-1.164, 2.645e-5
-1.165, 2.674e-5
-1.166, 2.617e-5
-1.167, 2.592e-5
-1.168, 2.613e-5
-1.169, 2.679e-5
-1.170, 2.712e-5
-1.171, 2.654e-5
-1.172, 2.636e-5
-1.173, 2.653e-5
-1.174, 2.725e-5
-1.175, 2.762e-5
-1.176, 2.696e-5
-1.177, 2.675e-5
-1.178, 2.709e-5
-1.179, 2.766e-5
-1.180, 2.791e-5
-1.181, 2.741e-5
-1.182, 2.710e-5
-1.183, 2.749e-5
-1.184, 2.798e-5
-1.185, 2.839e-5
-1.186, 2.782e-5
-1.187, 2.750e-5
-1.188, 2.786e-5
-1.189, 2.853e-5
-1.190, 2.871e-5
-1.191, 2.836e-5
-1.192, 2.787e-5
-1.193, 2.815e-5
-1.194, 2.899e-5
-1.195, 2.918e-5
-1.196, 2.868e-5
-1.197, 2.843e-5
-1.198, 2.862e-5
-1.199, 2.942e-5
-1.200, 2.962e-5
-1.201, 2.901e-5
-1.202, 2.886e-5
-1.203, 2.906e-5
-1.204, 2.978e-5
-1.205, 3.011e-5
-1.206, 2.959e-5
-1.207, 2.925e-5
-1.208, 2.957e-5
-1.209, 3.013e-5
-1.210, 3.063e-5
-1.211, 3.003e-5
-1.212, 2.970e-5
-1.213, 3.000e-5
-1.214, 3.065e-5
-1.215, 3.112e-5
-1.216, 3.055e-5
-1.217, 3.016e-5
-1.218, 3.056e-5
-1.219, 3.110e-5
-1.220, 3.166e-5
-1.221, 3.112e-5
-1.222, 3.073e-5
-1.223, 3.114e-5
-1.224, 3.163e-5
-1.225, 3.215e-5
-1.226, 3.170e-5
-1.227, 3.134e-5
-1.228, 3.184e-5
-1.229, 3.239e-5
-1.230, 3.279e-5
-1.231, 3.245e-5
-1.232, 3.192e-5
-1.233, 3.233e-5
-1.234, 3.305e-5
-1.235, 3.347e-5
-1.236, 3.308e-5
-1.237, 3.275e-5
-1.238, 3.300e-5
-1.239, 3.380e-5
-1.240, 3.423e-5
-1.241, 3.381e-5
-1.242, 3.363e-5
-1.243, 3.387e-5
-1.244, 3.458e-5
-1.245, 3.516e-5
-1.246, 3.474e-5
-1.247, 3.450e-5
-1.248, 3.482e-5
-1.249, 3.553e-5
-1.250, 3.617e-5
-1.251, 3.584e-5
-1.252, 3.557e-5
-1.253, 3.595e-5
-1.254, 3.672e-5
-1.255, 3.747e-5
-1.256, 3.698e-5
-1.257, 3.673e-5
-1.258, 3.732e-5
-1.259, 3.803e-5
-1.260, 3.871e-5
-1.261, 3.845e-5
-1.262, 3.827e-5
-1.263, 3.879e-5
-1.264, 3.953e-5
-1.265, 4.014e-5
-1.266, 4.012e-5
-1.267, 3.976e-5
-1.268, 4.027e-5
-1.269, 4.119e-5
-1.270, 4.189e-5
-1.271, 4.175e-5
-1.272, 4.148e-5
-1.273, 4.196e-5
-1.274, 4.301e-5
-1.275, 4.363e-5
-1.276, 4.358e-5
-1.277, 4.330e-5
-1.278, 4.383e-5
-1.279, 4.477e-5
-1.280, 4.551e-5
-1.281, 4.529e-5
-1.282, 4.516e-5
-1.283, 4.549e-5
-1.284, 4.635e-5
-1.285, 4.707e-5
-1.286, 4.695e-5
-1.287, 4.678e-5
-1.288, 4.705e-5
-1.289, 4.795e-5
-1.290, 4.862e-5
-1.291, 4.847e-5
-1.292, 4.822e-5
-1.293, 4.863e-5
-1.294, 4.948e-5
-1.295, 5.010e-5
-1.296, 4.990e-5
-1.297, 4.962e-5
-1.298, 5.004e-5
-1.299, 5.085e-5
-1.300, 5.156e-5
-1.301, 5.130e-5
-1.302, 5.103e-5
-1.303, 5.156e-5
-1.304, 5.229e-5
-1.305, 5.293e-5
-1.306, 5.293e-5
-1.307, 5.261e-5
-1.308, 5.301e-5
-1.309, 5.393e-5
-1.310, 5.461e-5
-1.311, 5.462e-5
-1.312, 5.436e-5
-1.313, 5.479e-5
-1.314, 5.590e-5
-1.315, 5.656e-5
-1.316, 5.661e-5
-1.317, 5.646e-5
-1.318, 5.697e-5
-1.319, 5.812e-5
-1.320, 5.899e-5
-1.321, 5.906e-5
-1.322, 5.910e-5
-1.323, 5.967e-5
-1.324, 6.085e-5
-1.325, 6.189e-5
-1.326, 6.201e-5
-1.327, 6.216e-5
-1.328, 6.283e-5
-1.329, 6.416e-5
-1.330, 6.534e-5
-1.331, 6.558e-5
-1.332, 6.591e-5
-1.333, 6.690e-5
-1.334, 6.822e-5
-1.335, 6.954e-5
-1.336, 7.005e-5
-1.337, 7.039e-5
-1.338, 7.163e-5
-1.339, 7.324e-5
-1.340, 7.472e-5
-1.341, 7.546e-5
-1.342, 7.607e-5
-1.343, 7.749e-5
-1.344, 7.931e-5
-1.345, 8.103e-5
-1.346, 8.217e-5
-1.347, 8.297e-5
-1.348, 8.468e-5
-1.349, 8.680e-5
-1.350, 8.895e-5
-1.351, 9.041e-5
-1.352, 9.154e-5
-1.353, 9.353e-5
-1.354, 9.622e-5
-1.355, 9.867e-5
-1.356, 1.005e-4
-1.357, 1.022e-4
-1.358, 1.047e-4
-1.359, 1.078e-4
-1.360, 1.108e-4
-1.361, 1.133e-4
-1.362, 1.156e-4
-1.363, 1.186e-4
-1.364, 1.224e-4
-1.365, 1.262e-4
-1.366, 1.293e-4
-1.367, 1.324e-4
-1.368, 1.362e-4
-1.369, 1.408e-4
-1.370, 1.457e-4
-1.371, 1.497e-4
-1.372, 1.537e-4
-1.373, 1.587e-4
-1.374, 1.644e-4
-1.375, 1.704e-4
-1.376, 1.756e-4
-1.377, 1.808e-4
-1.378, 1.872e-4
-1.379, 1.941e-4
-1.380, 2.015e-4
-1.381, 2.083e-4
-1.382, 2.154e-4
-1.383, 2.233e-4
-1.384, 2.319e-4
-1.385, 2.411e-4
-1.386, 2.498e-4
-1.387, 2.583e-4
-1.388, 2.682e-4
-1.389, 2.789e-4
-1.390, 2.902e-4
-1.391, 3.010e-4
-1.392, 3.117e-4
-1.393, 3.239e-4
-1.394, 3.371e-4
-1.395, 3.509e-4
-1.396, 3.643e-4
-1.397, 3.778e-4
-1.398, 3.924e-4
-1.399, 4.084e-4
-1.400, 4.247e-4
-1.401, 4.409e-4
-1.402, 4.573e-4
-1.403, 4.749e-4
-1.404, 4.938e-4
-1.405, 5.133e-4
-1.406, 5.328e-4
-1.407, 5.524e-4
-1.408, 5.732e-4
-1.409, 5.951e-4
-1.410, 6.179e-4
-1.411, 6.407e-4
-1.412, 6.638e-4
-1.413, 6.879e-4
-1.414, 7.134e-4
-1.415, 7.399e-4
-1.416, 7.660e-4
-1.417, 7.929e-4
-1.418, 8.209e-4
-1.419, 8.502e-4
-1.420, 8.802e-4
-1.421, 9.100e-4
-1.422, 9.393e-4
-1.423, 9.707e-4
-1.424, 1.003e-3
-1.425, 1.037e-3
-1.426, 1.071e-3
-1.427, 1.105e-3
-1.428, 1.141e-3
-1.429, 1.177e-3
-1.430, 1.214e-3
-1.431, 1.252e-3
-1.432, 1.290e-3
-1.433, 1.329e-3
-1.434, 1.370e-3
-1.435, 1.411e-3
-1.436, 1.453e-3
-1.437, 1.495e-3
-1.438, 1.538e-3
-1.439, 1.582e-3
-1.440, 1.627e-3
-1.441, 1.673e-3
-1.442, 1.718e-3
-1.443, 1.765e-3
-1.444, 1.813e-3
-1.445, 1.861e-3
-1.446, 1.911e-3
-1.447, 1.961e-3
-1.448, 2.011e-3
-1.449, 2.064e-3
-1.450, 2.117e-3
-1.451, 2.171e-3
-1.452, 2.224e-3
-1.453, 2.280e-3
-1.454, 2.334e-3
-1.455, 2.388e-3
-1.456, 2.441e-3
-1.457, 2.493e-3
-1.458, 2.548e-3
-1.459, 2.607e-3
-1.460, 2.671e-3
-1.461, 2.737e-3
-1.462, 2.799e-3
-1.463, 2.859e-3
-1.464, 2.917e-3
-1.465, 2.977e-3
-1.466, 3.038e-3
-1.467, 3.098e-3
-1.468, 3.162e-3
-1.469, 3.228e-3
-1.470, 3.295e-3
-1.471, 3.363e-3
-1.472, 3.430e-3
-1.473, 3.496e-3
-1.474, 3.563e-3
-1.475, 3.631e-3
-1.476, 3.700e-3
-1.477, 3.770e-3
-1.478, 3.840e-3
-1.479, 3.912e-3
-1.480, 3.986e-3
-1.481, 4.060e-3
-1.482, 4.132e-3
-1.483, 4.205e-3
-1.484, 4.279e-3
-1.485, 4.356e-3
-1.486, 4.433e-3
-1.487, 4.507e-3
-1.488, 4.583e-3
-1.489, 4.660e-3
-1.490, 4.738e-3
-1.491, 4.814e-3
-1.492, 4.891e-3
-1.493, 4.967e-3
-1.494, 5.048e-3
-1.495, 5.129e-3
-1.496, 5.207e-3
-1.497, 5.285e-3
-1.498, 5.363e-3
-1.499, 5.445e-3
-1.500, 5.527e-3
-1.501, 5.610e-3
-1.502, 5.695e-3
-1.503, 5.776e-3
-1.504, 5.857e-3
-1.505, 5.940e-3
-1.506, 6.029e-3
-1.507, 6.109e-3
-1.508, 6.189e-3
-1.509, 6.273e-3
-1.510, 6.358e-3
-1.511, 6.441e-3
-1.512, 6.530e-3
-1.513, 6.617e-3
-1.514, 6.693e-3
-1.515, 6.773e-3
-1.516, 6.865e-3
-1.517, 6.957e-3
-1.518, 7.035e-3
-1.519, 7.111e-3
-1.520, 7.186e-3
-1.521, 7.261e-3
-1.522, 7.334e-3
-1.523, 7.409e-3
-1.524, 7.491e-3
-1.525, 7.569e-3
-1.526, 7.644e-3
-1.527, 7.721e-3
-1.528, 7.794e-3
-1.529, 7.866e-3
-1.530, 7.939e-3
-1.531, 8.009e-3
-1.532, 8.079e-3
-1.533, 8.149e-3
-1.534, 8.224e-3
-1.535, 8.299e-3
-1.536, 8.378e-3
-1.537, 8.449e-3
-1.538, 8.522e-3
-1.539, 8.594e-3
-1.540, 8.655e-3
-1.541, 8.728e-3
-1.542, 8.801e-3
-1.543, 8.876e-3
-1.544, 8.934e-3
-1.545, 9.012e-3
-1.546, 9.082e-3
-1.547, 9.153e-3
-1.548, 9.212e-3
-1.549, 9.276e-3
-1.550, 9.354e-3
-1.551, 9.437e-3
-1.552, 9.502e-3
-1.553, 9.586e-3
-1.554, 9.652e-3
-1.555, 9.707e-3
-1.556, 9.757e-3
-1.557, 9.806e-3
-1.558, 9.866e-3
-1.559, 9.921e-3
-1.560, 9.982e-3
-1.561, 1.005e-2
-1.562, 1.010e-2
-1.563, 1.011e-2
-1.564, 1.011e-2
-1.565, 1.011e-2
-1.566, 1.011e-2
-1.567, 1.011e-2
-1.568, 1.011e-2
-1.569, 1.011e-2
-1.570, 1.011e-2
-1.571, 1.011e-2
-1.572, 1.011e-2
-1.573, 1.011e-2
-1.574, 1.011e-2
-1.575, 1.011e-2
-1.576, 1.011e-2
-1.577, 1.011e-2
-1.578, 1.011e-2
-1.579, 1.011e-2
-1.580, 1.011e-2
-1.581, 1.011e-2
-1.582, 1.011e-2
-1.583, 1.011e-2
-1.584, 1.011e-2
-1.585, 1.011e-2
-1.586, 1.011e-2
-1.587, 1.011e-2
-1.588, 1.011e-2
-1.589, 1.011e-2
-1.590, 1.011e-2
-1.591, 1.011e-2
-1.592, 1.011e-2
-1.593, 1.011e-2
-1.594, 1.011e-2
-1.595, 1.011e-2
-1.596, 1.011e-2
-1.597, 1.011e-2
-1.598, 1.011e-2
-1.599, 1.011e-2
-1.600, 1.011e-2
-1.599, 1.011e-2
-1.598, 1.011e-2
-1.597, 1.011e-2
-1.596, 1.011e-2
-1.595, 1.011e-2
-1.594, 1.011e-2
-1.593, 1.011e-2
-1.592, 1.011e-2
-1.591, 1.011e-2
-1.590, 1.011e-2
-1.589, 1.011e-2
-1.588, 1.011e-2
-1.587, 1.011e-2
-1.586, 1.011e-2
-1.585, 1.011e-2
-1.584, 1.011e-2
-1.583, 1.011e-2
-1.582, 1.011e-2
-1.581, 1.011e-2
-1.580, 1.011e-2
-1.579, 1.011e-2
-1.578, 1.011e-2
-1.577, 1.005e-2
-1.576, 9.936e-3
-1.575, 9.864e-3
-1.574, 9.836e-3
-1.573, 9.746e-3
-1.572, 9.651e-3
-1.571, 9.562e-3
-1.570, 9.468e-3
-1.569, 9.371e-3
-1.568, 9.275e-3
-1.567, 9.153e-3
-1.566, 9.049e-3
-1.565, 8.986e-3
-1.564, 8.886e-3
-1.563, 8.806e-3
-1.562, 8.717e-3
-1.561, 8.653e-3
-1.560, 8.582e-3
-1.559, 8.493e-3
-1.558, 8.406e-3
-1.557, 8.297e-3
-1.556, 8.221e-3
-1.555, 8.118e-3
-1.554, 8.015e-3
-1.553, 7.935e-3
-1.552, 7.871e-3
-1.551, 7.749e-3
-1.550, 7.675e-3
-1.549, 7.633e-3
-1.548, 7.536e-3
-1.547, 7.454e-3
-1.546, 7.372e-3
-1.545, 7.306e-3
-1.544, 7.222e-3
-1.543, 7.201e-3
-1.542, 7.104e-3
-1.541, 7.049e-3
-1.540, 7.006e-3
-1.539, 6.917e-3
-1.538, 6.873e-3
-1.537, 6.780e-3
-1.536, 6.695e-3
-1.535, 6.604e-3
-1.534, 6.518e-3
-1.533, 6.435e-3
-1.532, 6.354e-3
-1.531, 6.276e-3
-1.530, 6.206e-3
-1.529, 6.143e-3
-1.528, 6.131e-3
-1.527, 6.075e-3
-1.526, 5.998e-3
-1.525, 5.930e-3
-1.524, 5.907e-3
-1.523, 5.838e-3
-1.522, 5.763e-3
-1.521, 5.694e-3
-1.520, 5.629e-3
-1.519, 5.586e-3
-1.518, 5.517e-3
-1.517, 5.467e-3
-1.516, 5.390e-3
-1.515, 5.329e-3
-1.514, 5.273e-3
-1.513, 5.207e-3
-1.512, 5.140e-3
-1.511, 5.066e-3
-1.510, 4.998e-3
-1.509, 4.934e-3
-1.508, 4.861e-3
-1.507, 4.797e-3
-1.506, 4.732e-3
-1.505, 4.666e-3
-1.504, 4.602e-3
-1.503, 4.541e-3
-1.502, 4.477e-3
-1.501, 4.417e-3
-1.500, 4.361e-3
-1.499, 4.300e-3
-1.498, 4.241e-3
-1.497, 4.197e-3
-1.496, 4.146e-3
-1.495, 4.089e-3
-1.494, 4.035e-3
-1.493, 3.980e-3
-1.492, 3.928e-3
-1.491, 3.871e-3
-1.490, 3.819e-3
-1.489, 3.767e-3
-1.488, 3.715e-3
-1.487, 3.661e-3
-1.486, 3.606e-3
-1.485, 3.552e-3
-1.484, 3.501e-3
-1.483, 3.448e-3
-1.482, 3.392e-3
-1.481, 3.373e-3
-1.480, 3.325e-3
-1.479, 3.274e-3
-1.478, 3.216e-3
-1.477, 3.157e-3
-1.476, 3.107e-3
-1.475, 3.053e-3
-1.474, 2.999e-3
-1.473, 2.953e-3
-1.472, 2.918e-3
-1.471, 2.874e-3
-1.470, 2.826e-3
-1.469, 2.780e-3
-1.468, 2.753e-3
-1.467, 2.705e-3
-1.466, 2.648e-3
-1.465, 2.592e-3
-1.464, 2.552e-3
-1.463, 2.523e-3
-1.462, 2.498e-3
-1.461, 2.463e-3
-1.460, 2.425e-3
-1.459, 2.385e-3
-1.458, 2.343e-3
-1.457, 2.301e-3
-1.456, 2.258e-3
-1.455, 2.218e-3
-1.454, 2.186e-3
-1.453, 2.146e-3
-1.452, 2.106e-3
-1.451, 2.068e-3
-1.450, 2.032e-3
-1.449, 1.995e-3
-1.448, 1.957e-3
-1.447, 1.920e-3
-1.446, 1.883e-3
-1.445, 1.862e-3
-1.444, 1.820e-3
-1.443, 1.785e-3
-1.442, 1.752e-3
-1.441, 1.718e-3
-1.440, 1.684e-3
-1.439, 1.651e-3
-1.438, 1.619e-3
-1.437, 1.586e-3
-1.436, 1.555e-3
-1.435, 1.524e-3
-1.434, 1.493e-3
-1.433, 1.466e-3
-1.432, 1.435e-3
-1.431, 1.406e-3
-1.430, 1.377e-3
-1.429, 1.350e-3
-1.428, 1.321e-3
-1.427, 1.294e-3
-1.426, 1.266e-3
-1.425, 1.240e-3
-1.424, 1.214e-3
-1.423, 1.188e-3
-1.422, 1.163e-3
-1.421, 1.137e-3
-1.420, 1.113e-3
-1.419, 1.089e-3
-1.418, 1.065e-3
-1.417, 1.041e-3
-1.416, 1.019e-3
-1.415, 9.974e-4
-1.414, 9.756e-4
-1.413, 9.526e-4
-1.412, 9.303e-4
-1.411, 9.086e-4
-1.410, 8.905e-4
-1.409, 8.688e-4
-1.408, 8.489e-4
-1.407, 8.287e-4
-1.406, 8.090e-4
-1.405, 7.897e-4
-1.404, 7.712e-4
-1.403, 7.525e-4
-1.402, 7.338e-4
-1.401, 7.160e-4
-1.400, 6.986e-4
-1.399, 6.819e-4
-1.398, 6.650e-4
-1.397, 6.481e-4
-1.396, 6.320e-4
-1.395, 6.164e-4
-1.394, 6.020e-4
-1.393, 5.863e-4
-1.392, 5.709e-4
-1.391, 5.562e-4
-1.390, 5.419e-4
-1.389, 5.285e-4
-1.388, 5.144e-4
-1.387, 5.009e-4
-1.386, 4.877e-4
-1.385, 4.777e-4
-1.384, 4.672e-4
-1.383, 4.555e-4
-1.382, 4.434e-4
-1.381, 4.319e-4
-1.380, 4.210e-4
-1.379, 4.100e-4
-1.378, 3.989e-4
-1.377, 3.876e-4
-1.376, 3.771e-4
-1.375, 3.671e-4
-1.374, 3.571e-4
-1.373, 3.473e-4
-1.372, 3.371e-4
-1.371, 3.275e-4
-1.370, 3.186e-4
-1.369, 3.098e-4
-1.368, 3.008e-4
-1.367, 2.915e-4
-1.366, 2.830e-4
-1.365, 2.752e-4
-1.364, 2.674e-4
-1.363, 2.593e-4
-1.362, 2.513e-4
-1.361, 2.432e-4
-1.360, 2.362e-4
-1.359, 2.294e-4
-1.358, 2.220e-4
-1.357, 2.148e-4
-1.356, 2.079e-4
-1.355, 2.017e-4
-1.354, 1.955e-4
-1.353, 1.891e-4
-1.352, 1.825e-4
-1.351, 1.766e-4
-1.350, 1.716e-4
-1.349, 1.665e-4
-1.348, 1.609e-4
-1.347, 1.551e-4
-1.346, 1.496e-4
-1.345, 1.449e-4
-1.344, 1.405e-4
-1.343, 1.355e-4
-1.342, 1.304e-4
-1.341, 1.258e-4
-1.340, 1.219e-4
-1.339, 1.181e-4
-1.338, 1.140e-4
-1.337, 1.094e-4
-1.336, 1.053e-4
-1.335, 1.020e-4
-1.334, 9.882e-5
-1.333, 9.521e-5
-1.332, 9.123e-5
-1.331, 8.750e-5
-1.330, 8.472e-5
-1.329, 8.199e-5
-1.328, 7.881e-5
-1.327, 7.535e-5
-1.326, 7.209e-5
-1.325, 6.979e-5
-1.324, 6.751e-5
-1.323, 6.479e-5
-1.322, 6.159e-5
-1.321, 5.868e-5
-1.320, 5.702e-5
-1.319, 5.487e-5
-1.318, 5.252e-5
-1.317, 4.993e-5
-1.316, 4.765e-5
-1.315, 4.577e-5
-1.314, 4.421e-5
-1.313, 4.196e-5
-1.312, 3.946e-5
-1.311, 3.723e-5
-1.310, 3.573e-5
-1.309, 3.455e-5
-1.308, 3.267e-5
-1.307, 3.038e-5
-1.306, 2.841e-5
-1.305, 2.710e-5
-1.304, 2.620e-5
-1.303, 2.462e-5
-1.302, 2.241e-5
-1.301, 2.072e-5
-1.300, 1.981e-5
-1.299, 1.893e-5
-1.298, 1.771e-5
-1.297, 1.578e-5
-1.296, 1.442e-5
-1.295, 1.348e-5
-1.294, 1.277e-5
-1.293, 1.169e-5
-1.292, 1.019e-5
-1.291, 8.891e-6
-1.290, 8.208e-6
-1.289, 7.382e-6
-1.288, 6.366e-6
-1.287, 4.915e-6
-1.286, 3.568e-6
-1.285, 3.196e-6
-1.284, 2.883e-6
-1.283, 2.021e-6
-1.282, 6.342e-7
-1.281, -5.497e-7
-1.280, -1.088e-6
-1.279, -1.012e-6
-1.278, -1.860e-6
-1.277, -3.008e-6
-1.276, -4.163e-6
-1.275, -4.571e-6
-1.274, -4.502e-6
-1.273, -5.198e-6
-1.272, -6.224e-6
-1.271, -7.261e-6
-1.270, -7.456e-6
-1.269, -7.268e-6
-1.268, -7.540e-6
-1.267, -8.619e-6
-1.266, -9.503e-6
-1.265, -9.864e-6
-1.264, -9.796e-6
-1.263, -1.023e-5
-1.262, -1.149e-5
-1.261, -1.228e-5
-1.260, -1.234e-5
-1.259, -1.212e-5
-1.258, -1.232e-5
-1.257, -1.330e-5
-1.256, -1.393e-5
-1.255, -1.405e-5
-1.254, -1.393e-5
-1.253, -1.417e-5
-1.252, -1.511e-5
-1.251, -1.603e-5
-1.250, -1.569e-5
-1.249, -1.549e-5
-1.248, -1.575e-5
-1.247, -1.664e-5
-1.246, -1.716e-5
-1.245, -1.709e-5
-1.244, -1.682e-5
-1.243, -1.708e-5
-1.242, -1.790e-5
-1.241, -1.891e-5
-1.240, -1.875e-5
-1.239, -1.835e-5
-1.238, -1.862e-5
-1.237, -1.921e-5
-1.236, -1.979e-5
-1.235, -1.981e-5
-1.234, -1.937e-5
-1.233, -1.954e-5
-1.232, -2.013e-5
-1.231, -2.080e-5
-1.230, -2.079e-5
-1.229, -2.063e-5
-1.228, -2.044e-5
-1.227, -2.108e-5
-1.226, -2.169e-5
-1.225, -2.159e-5
-1.224, -2.098e-5
-1.223, -2.108e-5
-1.222, -2.176e-5
-1.221, -2.237e-5
-1.220, -2.225e-5
-1.219, -2.181e-5
-1.218, -2.172e-5
-1.217, -2.242e-5
-1.216, -2.300e-5
-1.215, -2.280e-5
-1.214, -2.242e-5
-1.213, -2.227e-5
-1.212, -2.292e-5
-1.211, -2.365e-5
-1.210, -2.338e-5
-1.209, -2.300e-5
-1.208, -2.268e-5
-1.207, -2.343e-5
-1.206, -2.416e-5
-1.205, -2.390e-5
-1.204, -2.339e-5
-1.203, -2.335e-5
-1.202, -2.381e-5
-1.201, -2.461e-5
-1.200, -2.443e-5
-1.199, -2.387e-5
-1.198, -2.391e-5
-1.197, -2.440e-5
-1.196, -2.503e-5
-1.195, -2.501e-5
-1.194, -2.440e-5
-1.193, -2.432e-5
-1.192, -2.493e-5
-1.191, -2.548e-5
-1.190, -2.556e-5
-1.189, -2.477e-5
-1.188, -2.468e-5
-1.187, -2.541e-5
-1.186, -2.588e-5
-1.185, -2.594e-5
-1.184, -2.524e-5
-1.183, -2.520e-5
-1.182, -2.585e-5
-1.181, -2.627e-5
-1.180, -2.640e-5
-1.179, -2.584e-5
-1.178, -2.572e-5
-1.177, -2.644e-5
-1.176, -2.689e-5
-1.175, -2.688e-5
-1.174, -2.644e-5
-1.173, -2.597e-5
-1.172, -2.700e-5
-1.171, -2.800e-5
-1.170, -2.796e-5
-1.169, -2.745e-5
-1.168, -2.703e-5
-1.167, -2.771e-5
-1.166, -2.837e-5
-1.165, -2.812e-5
-1.164, -2.780e-5
-1.163, -2.750e-5
-1.162, -2.794e-5
-1.161, -2.872e-5
-1.160, -2.854e-5
-1.159, -2.809e-5
-1.158, -2.779e-5
-1.157, -2.836e-5
-1.156, -2.903e-5
-1.155, -2.907e-5
-1.154, -2.839e-5
-1.153, -2.827e-5
-1.152, -2.870e-5
-1.151, -2.947e-5
-1.150, -2.949e-5
-1.149, -2.893e-5
-1.148, -2.853e-5
-1.147, -2.923e-5
-1.146, -2.988e-5
-1.145, -2.997e-5
-1.144, -2.935e-5
-1.143, -2.898e-5
-1.142, -2.970e-5
-1.141, -3.017e-5
-1.140, -3.019e-5
-1.139, -3.000e-5
-1.138, -2.945e-5
-1.137, -3.015e-5
-1.136, -3.078e-5
-1.135, -3.063e-5
-1.134, -3.015e-5
-1.133, -2.975e-5
-1.132, -3.031e-5
-1.131, -3.136e-5
-1.130, -3.127e-5
-1.129, -3.088e-5
-1.128, -3.035e-5
-1.127, -3.089e-5
-1.126, -3.170e-5
-1.125, -3.161e-5
-1.124, -3.119e-5
-1.123, -3.097e-5
-1.122, -3.139e-5
-1.121, -3.213e-5
-1.120, -3.214e-5
-1.119, -3.169e-5
-1.118, -3.139e-5
-1.117, -3.179e-5
-1.116, -3.249e-5
-1.115, -3.271e-5
-1.114, -3.215e-5
-1.113, -3.179e-5
-1.112, -3.229e-5
-1.111, -3.298e-5
-1.110, -3.321e-5
-1.109, -3.250e-5
-1.108, -3.223e-5
-1.107, -3.270e-5
-1.106, -3.339e-5
-1.105, -3.352e-5
-1.104, -3.293e-5
-1.103, -3.261e-5
-1.102, -3.310e-5
-1.101, -3.378e-5
-1.100, -3.385e-5
-1.099, -3.347e-5
-1.098, -3.290e-5
-1.097, -3.336e-5
-1.096, -3.407e-5
-1.095, -3.414e-5
-1.094, -3.373e-5
-1.093, -3.324e-5
-1.092, -3.358e-5
-1.091, -3.443e-5
-1.090, -3.447e-5
-1.089, -3.404e-5
-1.088, -3.350e-5
-1.087, -3.383e-5
-1.086, -3.475e-5
-1.085, -3.470e-5
-1.084, -3.422e-5
-1.083, -3.385e-5
-1.082, -3.404e-5
-1.081, -3.494e-5
-1.080, -3.489e-5
-1.079, -3.436e-5
-1.078, -3.405e-5
-1.077, -3.419e-5
-1.076, -3.511e-5
-1.075, -3.515e-5
-1.074, -3.466e-5
-1.073, -3.412e-5
-1.072, -3.438e-5
-1.071, -3.506e-5
-1.070, -3.524e-5
-1.069, -3.469e-5
-1.068, -3.417e-5
-1.067, -3.453e-5
-1.066, -3.515e-5
-1.065, -3.539e-5
-1.064, -3.471e-5
-1.063, -3.419e-5
-1.062, -3.461e-5
-1.061, -3.516e-5
-1.060, -3.525e-5
-1.059, -3.483e-5
-1.058, -3.414e-5
-1.057, -3.444e-5
-1.056, -3.520e-5
-1.055, -3.525e-5
-1.054, -3.487e-5
-1.053, -3.413e-5
-1.052, -3.438e-5
-1.051, -3.517e-5
-1.050, -3.527e-5
-1.049, -3.481e-5
-1.048, -3.408e-5
-1.047, -3.433e-5
-1.046, -3.519e-5
-1.045, -3.512e-5
-1.044, -3.459e-5
-1.043, -3.418e-5
-1.042, -3.423e-5
-1.041, -3.507e-5
-1.040, -3.506e-5
-1.039, -3.452e-5
-1.038, -3.406e-5
-1.037, -3.415e-5
-1.036, -3.483e-5
-1.035, -3.513e-5
-1.034, -3.443e-5
-1.033, -3.400e-5
-1.032, -3.409e-5
-1.031, -3.478e-5
-1.030, -3.504e-5
-1.029, -3.442e-5
-1.028, -3.382e-5
-1.027, -3.413e-5
-1.026, -3.470e-5
-1.025, -3.504e-5
-1.024, -3.447e-5
-1.023, -3.393e-5
-1.022, -3.420e-5
-1.021, -3.463e-5
-1.020, -3.503e-5
-1.019, -3.455e-5
-1.018, -3.398e-5
-1.017, -3.418e-5
-1.016, -3.472e-5
-1.015, -3.508e-5
-1.014, -3.477e-5
-1.013, -3.402e-5
-1.012, -3.421e-5
-1.011, -3.505e-5
-1.010, -3.522e-5
-1.009, -3.487e-5
-1.008, -3.432e-5
-1.007, -3.440e-5
-1.006, -3.527e-5
-1.005, -3.550e-5
-1.004, -3.501e-5
-1.003, -3.475e-5
-1.002, -3.471e-5
-1.001, -3.563e-5
-1.000, -1.721e-5
-1.001, -8.827e-6
-1.002, -5.348e-6
-1.003, -3.459e-6
-1.004, -2.373e-6
-1.005, -1.350e-6
-1.006, 2.662e-7
-1.007, 1.928e-6
-1.008, 2.650e-6
-1.009, 2.713e-6
-1.010, 3.297e-6
-1.011, 4.335e-6
-1.012, 5.532e-6
-1.013, 5.835e-6
-1.014, 5.725e-6
-1.015, 5.988e-6
-1.016, 6.757e-6
-1.017, 7.690e-6
-1.018, 8.081e-6
-1.019, 7.815e-6
-1.020, 7.808e-6
-1.021, 8.559e-6
-1.022, 9.404e-6
-1.023, 9.663e-6
-1.024, 9.324e-6
-1.025, 9.266e-6
-1.026, 9.989e-6
-1.027, 1.070e-5
-1.028, 1.084e-5
-1.029, 1.047e-5
-1.030, 1.036e-5
-1.031, 1.105e-5
-1.032, 1.169e-5
-1.033, 1.178e-5
-1.034, 1.153e-5
-1.035, 1.128e-5
-1.036, 1.190e-5
-1.037, 1.264e-5
-1.038, 1.276e-5
-1.039, 1.243e-5
-1.040, 1.202e-5
-1.041, 1.259e-5
-1.042, 1.339e-5
-1.043, 1.344e-5
-1.044, 1.301e-5
-1.045, 1.286e-5
-1.046, 1.330e-5
-1.047, 1.411e-5
-1.048, 1.418e-5
-1.049, 1.364e-5
-1.050, 1.361e-5
-1.051, 1.392e-5
-1.052, 1.471e-5
-1.053, 1.480e-5
-1.054, 1.426e-5
-1.055, 1.420e-5
-1.056, 1.447e-5
-1.057, 1.525e-5
-1.058, 1.547e-5
-1.059, 1.488e-5
-1.060, 1.463e-5
-1.061, 1.514e-5
-1.062, 1.579e-5
-1.063, 1.595e-5
-1.064, 1.546e-5
-1.065, 1.518e-5
-1.066, 1.566e-5
-1.067, 1.628e-5
-1.068, 1.650e-5
-1.069, 1.593e-5
-1.070, 1.566e-5
-1.071, 1.621e-5
-1.072, 1.675e-5
-1.073, 1.686e-5
-1.074, 1.663e-5
-1.075, 1.633e-5
-1.076, 1.661e-5
-1.077, 1.733e-5
-1.078, 1.749e-5
-1.079, 1.703e-5
-1.080, 1.654e-5
-1.081, 1.702e-5
-1.082, 1.771e-5
-1.083, 1.776e-5
-1.084, 1.744e-5
-1.085, 1.713e-5
-1.086, 1.747e-5
-1.087, 1.815e-5
-1.088, 1.817e-5
-1.089, 1.789e-5
-1.090, 1.757e-5
-1.091, 1.783e-5
-1.092, 1.856e-5
-1.093, 1.877e-5
-1.094, 1.819e-5
-1.095, 1.797e-5
-1.096, 1.829e-5
-1.097, 1.893e-5
-1.098, 1.918e-5
-1.099, 1.860e-5
-1.100, 1.834e-5
-1.101, 1.862e-5
-1.102, 1.924e-5
-1.103, 1.955e-5
-1.104, 1.891e-5
-1.105, 1.857e-5
-1.106, 1.902e-5
-1.107, 1.955e-5
-1.108, 1.978e-5
-1.109, 1.933e-5
-1.110, 1.893e-5
-1.111, 1.927e-5
-1.112, 1.978e-5
-1.113, 2.003e-5
-1.114, 1.963e-5
-1.115, 1.922e-5
-1.116, 1.959e-5
-1.117, 2.017e-5
-1.118, 2.042e-5
-1.119, 1.999e-5
-1.120, 1.953e-5
-1.121, 1.969e-5
-1.122, 2.035e-5
-1.123, 2.060e-5
-1.124, 2.014e-5
-1.125, 1.973e-5
-1.126, 1.995e-5
-1.127, 2.065e-5
-1.128, 2.081e-5
-1.129, 2.034e-5
-1.130, 1.994e-5
-1.131, 2.010e-5
-1.132, 2.072e-5
-1.133, 2.111e-5
-1.134, 2.052e-5
-1.135, 2.024e-5
-1.136, 2.027e-5
-1.137, 2.093e-5
-1.138, 2.132e-5
-1.139, 2.070e-5
-1.140, 2.036e-5
-1.141, 2.059e-5
-1.142, 2.105e-5
-1.143, 2.147e-5
-1.144, 2.093e-5
-1.145, 2.046e-5
-1.146, 2.074e-5
-1.147, 2.128e-5
-1.148, 2.152e-5
-1.149, 2.117e-5
-1.150, 2.063e-5
-1.151, 2.094e-5
-1.152, 2.141e-5
-1.153, 2.172e-5
-1.154, 2.134e-5
-1.155, 2.084e-5
-1.156, 2.102e-5
-1.157, 2.165e-5
-1.158, 2.195e-5
-1.159, 2.151e-5
-1.160, 2.099e-5
-1.161, 2.120e-5
-1.162, 2.182e-5
-1.163, 2.206e-5
-1.164, 2.165e-5
-1.165, 2.122e-5
-1.166, 2.134e-5
-1.167, 2.194e-5
-1.168, 2.233e-5
-1.169, 2.184e-5
-1.170, 2.138e-5
-1.171, 2.152e-5
-1.172, 2.209e-5
-1.173, 2.247e-5
-1.174, 2.198e-5
-1.175, 2.163e-5
-1.176, 2.168e-5
-1.177, 2.232e-5
-1.178, 2.272e-5
-1.179, 2.219e-5
-1.180, 2.179e-5
-1.181, 2.186e-5
-1.182, 2.246e-5
-1.183, 2.289e-5
-1.184, 2.239e-5
-1.185, 2.196e-5
-1.186, 2.214e-5
-1.187, 2.256e-5
-1.188, 2.304e-5
-1.189, 2.268e-5
-1.190, 2.215e-5
-1.191, 2.232e-5
-1.192, 2.283e-5
-1.193, 2.320e-5
-1.194, 2.296e-5
-1.195, 2.240e-5
-1.196, 2.256e-5
-1.197, 2.311e-5
-1.198, 2.348e-5
-1.199, 2.326e-5
-1.200, 2.262e-5
-1.201, 2.276e-5
-1.202, 2.340e-5
-1.203, 2.376e-5
-1.204, 2.349e-5
-1.205, 2.306e-5
-1.206, 2.298e-5
-1.207, 2.369e-5
-1.208, 2.400e-5
-1.209, 2.374e-5
-1.210, 2.324e-5
-1.211, 2.339e-5
-1.212, 2.391e-5
-1.213, 2.441e-5
-1.214, 2.415e-5
-1.215, 2.378e-5
-1.216, 2.375e-5
-1.217, 2.422e-5
-1.218, 2.475e-5
-1.219, 2.445e-5
-1.220, 2.398e-5
-1.221, 2.408e-5
-1.222, 2.462e-5
-1.223, 2.522e-5
-1.224, 2.485e-5
-1.225, 2.431e-5
-1.226, 2.460e-5
-1.227, 2.494e-5
-1.228, 2.569e-5
-1.229, 2.547e-5
-1.230, 2.481e-5
-1.231, 2.498e-5
-1.232, 2.541e-5
-1.233, 2.601e-5
-1.234, 2.589e-5
-1.235, 2.539e-5
-1.236, 2.551e-5
-1.237, 2.629e-5
-1.238, 2.669e-5
-1.239, 2.670e-5
-1.240, 2.617e-5
-1.241, 2.633e-5
-1.242, 2.698e-5
-1.243, 2.735e-5
-1.244, 2.721e-5
-1.245, 2.671e-5
-1.246, 2.674e-5
-1.247, 2.746e-5
-1.248, 2.801e-5
-1.249, 2.782e-5
-1.250, 2.748e-5
-1.251, 2.749e-5
-1.252, 2.828e-5
-1.253, 2.876e-5
-1.254, 2.873e-5
-1.255, 2.839e-5
-1.256, 2.833e-5
-1.257, 2.912e-5
-1.258, 2.980e-5
-1.259, 2.977e-5
-1.260, 2.934e-5
-1.261, 2.948e-5
-1.262, 3.020e-5
-1.263, 3.099e-5
-1.264, 3.092e-5
-1.265, 3.057e-5
-1.266, 3.080e-5
-1.267, 3.151e-5
-1.268, 3.228e-5
-1.269, 3.233e-5
-1.270, 3.192e-5
-1.271, 3.223e-5
-1.272, 3.300e-5
-1.273, 3.373e-5
-1.274, 3.385e-5
-1.275, 3.350e-5
-1.276, 3.359e-5
-1.277, 3.461e-5
-1.278, 3.529e-5
-1.279, 3.550e-5
-1.280, 3.525e-5
-1.281, 3.531e-5
-1.282, 3.629e-5
-1.283, 3.696e-5
-1.284, 3.723e-5
-1.285, 3.689e-5
-1.286, 3.708e-5
-1.287, 3.799e-5
-1.288, 3.869e-5
-1.289, 3.893e-5
-1.290, 3.870e-5
-1.291, 3.874e-5
-1.292, 3.970e-5
-1.293, 4.060e-5
-1.294, 4.074e-5
-1.295, 4.055e-5
-1.296, 4.065e-5
-1.297, 4.159e-5
-1.298, 4.257e-5
-1.299, 4.275e-5
-1.300, 4.258e-5
-1.301, 4.278e-5
-1.302, 4.382e-5
-1.303, 4.479e-5
-1.304, 4.508e-5
-1.305, 4.493e-5
-1.306, 4.520e-5
-1.307, 4.629e-5
-1.308, 4.727e-5
-1.309, 4.773e-5
-1.310, 4.777e-5
-1.311, 4.811e-5
-1.312, 4.912e-5
-1.313, 5.029e-5
-1.314, 5.089e-5
-1.315, 5.094e-5
-1.316, 5.131e-5
-1.317, 5.259e-5
-1.318, 5.389e-5
-1.319, 5.462e-5
-1.320, 5.480e-5
-1.321, 5.527e-5
-1.322, 5.680e-5
-1.323, 5.812e-5
-1.324, 5.899e-5
-1.325, 5.943e-5
-1.326, 6.016e-5
-1.327, 6.167e-5
-1.328, 6.321e-5
-1.329, 6.430e-5
-1.330, 6.495e-5
-1.331, 6.575e-5
-1.332, 6.748e-5
-1.333, 6.941e-5
-1.334, 7.057e-5
-1.335, 7.154e-5
-1.336, 7.248e-5
-1.337, 7.455e-5
-1.338, 7.674e-5
-1.339, 7.812e-5
-1.340, 7.923e-5
-1.341, 8.075e-5
-1.342, 8.281e-5
-1.343, 8.529e-5
-1.344, 8.712e-5
-1.345, 8.849e-5
-1.346, 9.036e-5
-1.347, 9.273e-5
-1.348, 9.568e-5
-1.349, 9.782e-5
-1.350, 9.957e-5
-1.351, 1.019e-4
-1.352, 1.047e-4
-1.353, 1.079e-4
-1.354, 1.106e-4
-1.355, 1.128e-4
-1.356, 1.155e-4
-1.357, 1.188e-4
-1.358, 1.226e-4
-1.359, 1.259e-4
-1.360, 1.286e-4
-1.361, 1.317e-4
-1.362, 1.359e-4
-1.363, 1.401e-4
-1.364, 1.440e-4
-1.365, 1.476e-4
-1.366, 1.513e-4
-1.367, 1.561e-4
-1.368, 1.611e-4
-1.369, 1.658e-4
-1.370, 1.702e-4
-1.371, 1.748e-4
-1.372, 1.804e-4
-1.373, 1.863e-4
-1.374, 1.918e-4
-1.375, 1.972e-4
-1.376, 2.027e-4
-1.377, 2.090e-4
-1.378, 2.162e-4
-1.379, 2.228e-4
-1.380, 2.293e-4
-1.381, 2.360e-4
-1.382, 2.437e-4
-1.383, 2.520e-4
-1.384, 2.597e-4
-1.385, 2.675e-4
-1.386, 2.756e-4
-1.387, 2.844e-4
-1.388, 2.941e-4
-1.389, 3.034e-4
-1.390, 3.127e-4
-1.391, 3.223e-4
-1.392, 3.328e-4
-1.393, 3.442e-4
-1.394, 3.552e-4
-1.395, 3.660e-4
-1.396, 3.774e-4
-1.397, 3.899e-4
-1.398, 4.029e-4
-1.399, 4.160e-4
-1.400, 4.288e-4
-1.401, 4.420e-4
-1.402, 4.565e-4
-1.403, 4.716e-4
-1.404, 4.868e-4
-1.405, 5.019e-4
-1.406, 5.175e-4
-1.407, 5.343e-4
-1.408, 5.518e-4
-1.409, 5.694e-4
-1.410, 5.868e-4
-1.411, 6.048e-4
-1.412, 6.240e-4
-1.413, 6.441e-4
-1.414, 6.644e-4
-1.415, 6.848e-4
-1.416, 7.058e-4
-1.417, 7.278e-4
-1.418, 7.508e-4
-1.419, 7.740e-4
-1.420, 7.973e-4
-1.421, 8.212e-4
-1.422, 8.462e-4
-1.423, 8.722e-4
-1.424, 8.984e-4
-1.425, 9.249e-4
-1.426, 9.523e-4
-1.427, 9.806e-4
-1.428, 1.010e-3
-1.429, 1.039e-3
-1.430, 1.069e-3
-1.431, 1.100e-3
-1.432, 1.131e-3
-1.433, 1.164e-3
-1.434, 1.198e-3
-1.435, 1.232e-3
-1.436, 1.266e-3
-1.437, 1.300e-3
-1.438, 1.336e-3
-1.439, 1.373e-3
-1.440, 1.410e-3
-1.441, 1.447e-3
-1.442, 1.486e-3
-1.443, 1.526e-3
-1.444, 1.567e-3
-1.445, 1.608e-3
-1.446, 1.649e-3
-1.447, 1.691e-3
-1.448, 1.734e-3
-1.449, 1.778e-3
-1.450, 1.823e-3
-1.451, 1.867e-3
-1.452, 1.913e-3
-1.453, 1.961e-3
-1.454, 2.009e-3
-1.455, 2.057e-3
-1.456, 2.105e-3
-1.457, 2.155e-3
-1.458, 2.207e-3
-1.459, 2.258e-3
-1.460, 2.310e-3
-1.461, 2.360e-3
-1.462, 2.411e-3
-1.463, 2.463e-3
-1.464, 2.517e-3
-1.465, 2.572e-3
-1.466, 2.628e-3
-1.467, 2.686e-3
-1.468, 2.744e-3
-1.469, 2.803e-3
-1.470, 2.862e-3
-1.471, 2.919e-3
-1.472, 2.982e-3
-1.473, 3.045e-3
-1.474, 3.110e-3
-1.475, 3.172e-3
-1.476, 3.233e-3
-1.477, 3.294e-3
-1.478, 3.355e-3
-1.479, 3.419e-3
-1.480, 3.485e-3
-1.481, 3.553e-3
-1.482, 3.619e-3
-1.483, 3.687e-3
-1.484, 3.756e-3
-1.485, 3.824e-3
-1.486, 3.892e-3
-1.487, 3.960e-3
-1.488, 4.030e-3
-1.489, 4.101e-3
-1.490, 4.173e-3
-1.491, 4.246e-3
-1.492, 4.322e-3
-1.493, 4.397e-3
-1.494, 4.471e-3
-1.495, 4.543e-3
-1.496, 4.615e-3
-1.497, 4.690e-3
-1.498, 4.768e-3
-1.499, 4.845e-3
-1.500, 4.923e-3
-1.501, 5.002e-3
-1.502, 5.080e-3
-1.503, 5.156e-3
-1.504, 5.231e-3
-1.505, 5.308e-3
-1.506, 5.386e-3
-1.507, 5.463e-3
-1.508, 5.545e-3
-1.509, 5.626e-3
-1.510, 5.704e-3
-1.511, 5.785e-3
-1.512, 5.865e-3
-1.513, 5.946e-3
-1.514, 6.028e-3
-1.515, 6.114e-3
-1.516, 6.204e-3
-1.517, 6.280e-3
-1.518, 6.356e-3
-1.519, 6.440e-3
-1.520, 6.527e-3
-1.521, 6.616e-3
-1.522, 6.697e-3
-1.523, 6.778e-3
-1.524, 6.867e-3
-1.525, 6.942e-3
-1.526, 7.025e-3
-1.527, 7.105e-3
-1.528, 7.188e-3
-1.529, 7.276e-3
-1.530, 7.357e-3
-1.531, 7.432e-3
-1.532, 7.510e-3
-1.533, 7.584e-3
-1.534, 7.670e-3
-1.535, 7.745e-3
-1.536, 7.822e-3
-1.537, 7.898e-3
-1.538, 7.974e-3
-1.539, 8.046e-3
-1.540, 8.120e-3
-1.541, 8.197e-3
-1.542, 8.269e-3
-1.543, 8.347e-3
-1.544, 8.424e-3
-1.545, 8.493e-3
-1.546, 8.562e-3
-1.547, 8.638e-3
-1.548, 8.710e-3
-1.549, 8.783e-3
-1.550, 8.852e-3
-1.551, 8.927e-3
-1.552, 8.998e-3
-1.553, 9.065e-3
-1.554, 9.143e-3
-1.555, 9.211e-3
-1.556, 9.288e-3
-1.557, 9.387e-3
-1.558, 9.463e-3
-1.559, 9.543e-3
-1.560, 9.610e-3
-1.561, 9.684e-3
-1.562, 9.763e-3
-1.563, 9.839e-3
-1.564, 9.919e-3
-1.565, 1.001e-2
-1.566, 1.010e-2
-1.567, 1.011e-2
-1.568, 1.011e-2
-1.569, 1.011e-2
-1.570, 1.011e-2
-1.571, 1.011e-2
-1.572, 1.011e-2
-1.573, 1.011e-2
-1.574, 1.011e-2
-1.575, 1.011e-2
-1.576, 1.011e-2
-1.577, 1.011e-2
-1.578, 1.011e-2
-1.579, 1.011e-2
-1.580, 1.011e-2
-1.581, 1.011e-2
-1.582, 1.011e-2
-1.583, 1.011e-2
-1.584, 1.011e-2
-1.585, 1.011e-2
-1.586, 1.011e-2
-1.587, 1.011e-2
-1.588, 1.011e-2
-1.589, 1.011e-2
-1.590, 1.011e-2
-1.591, 1.011e-2
-1.592, 1.011e-2
-1.593, 1.011e-2
-1.594, 1.011e-2
-1.595, 1.011e-2
-1.596, 1.011e-2
-1.597, 1.011e-2
-1.598, 1.011e-2
-1.599, 1.011e-2
-1.600, 1.011e-2
-1.599, 1.011e-2
-1.598, 1.011e-2
-1.597, 1.011e-2
-1.596, 1.011e-2
-1.595, 1.011e-2
-1.594, 1.011e-2
-1.593, 1.011e-2
-1.592, 1.011e-2
-1.591, 1.011e-2
-1.590, 1.011e-2
-1.589, 1.011e-2
-1.588, 1.011e-2
-1.587, 1.011e-2
-1.586, 1.011e-2
-1.585, 1.011e-2
-1.584, 1.011e-2
-1.583, 1.011e-2
-1.582, 1.011e-2
-1.581, 1.011e-2
-1.580, 1.011e-2
-1.579, 1.003e-2
-1.578, 9.909e-3
-1.577, 9.830e-3
-1.576, 9.736e-3
-1.575, 9.627e-3
-1.574, 9.519e-3
-1.573, 9.426e-3
-1.572, 9.357e-3
-1.571, 9.287e-3
-1.570, 9.153e-3
-1.569, 9.036e-3
-1.568, 8.963e-3
-1.567, 8.928e-3
-1.566, 8.895e-3
-1.565, 8.815e-3
-1.564, 8.751e-3
-1.563, 8.648e-3
-1.562, 8.524e-3
-1.561, 8.432e-3
-1.560, 8.357e-3
-1.559, 8.279e-3
-1.558, 8.176e-3
-1.557, 8.090e-3
-1.556, 8.021e-3
-1.555, 7.948e-3
-1.554, 7.864e-3
-1.553, 7.798e-3
-1.552, 7.709e-3
-1.551, 7.623e-3
-1.550, 7.544e-3
-1.549, 7.481e-3
-1.548, 7.409e-3
-1.547, 7.335e-3
-1.546, 7.245e-3
-1.545, 7.196e-3
-1.544, 7.099e-3
-1.543, 7.003e-3
-1.542, 6.911e-3
-1.541, 6.828e-3
-1.540, 6.750e-3
-1.539, 6.680e-3
-1.538, 6.588e-3
-1.537, 6.519e-3
-1.536, 6.444e-3
-1.535, 6.387e-3
-1.534, 6.315e-3
-1.533, 6.231e-3
-1.532, 6.150e-3
-1.531, 6.076e-3
-1.530, 6.005e-3
-1.529, 5.966e-3
-1.528, 5.887e-3
-1.527, 5.819e-3
-1.526, 5.771e-3
-1.525, 5.713e-3
-1.524, 5.647e-3
-1.523, 5.588e-3
-1.522, 5.514e-3
-1.521, 5.433e-3
-1.520, 5.365e-3
-1.519, 5.299e-3
-1.518, 5.233e-3
-1.517, 5.169e-3
-1.516, 5.103e-3
-1.515, 5.035e-3
-1.514, 4.971e-3
-1.513, 4.906e-3
-1.512, 4.892e-3
-1.511, 4.812e-3
-1.510, 4.737e-3
-1.509, 4.668e-3
-1.508, 4.606e-3
-1.507, 4.541e-3
-1.506, 4.476e-3
-1.505, 4.415e-3
-1.504, 4.353e-3
-1.503, 4.298e-3
-1.502, 4.237e-3
-1.501, 4.176e-3
-1.500, 4.119e-3
-1.499, 4.061e-3
-1.498, 4.005e-3
-1.497, 3.952e-3
-1.496, 3.899e-3
-1.495, 3.846e-3
-1.494, 3.789e-3
-1.493, 3.732e-3
-1.492, 3.672e-3
-1.491, 3.615e-3
-1.490, 3.570e-3
-1.489, 3.531e-3
-1.488, 3.476e-3
-1.487, 3.422e-3
-1.486, 3.369e-3
-1.485, 3.326e-3
-1.484, 3.279e-3
-1.483, 3.230e-3
-1.482, 3.227e-3
-1.481, 3.152e-3
-1.480, 3.079e-3
-1.479, 3.033e-3
-1.478, 2.982e-3
-1.477, 2.933e-3
-1.476, 2.885e-3
-1.475, 2.840e-3
-1.474, 2.794e-3
-1.473, 2.756e-3
-1.472, 2.710e-3
-1.471, 2.667e-3
-1.470, 2.620e-3
-1.469, 2.576e-3
-1.468, 2.533e-3
-1.467, 2.489e-3
-1.466, 2.447e-3
-1.465, 2.405e-3
-1.464, 2.368e-3
-1.463, 2.325e-3
-1.462, 2.285e-3
-1.461, 2.243e-3
-1.460, 2.203e-3
-1.459, 2.165e-3
-1.458, 2.128e-3
-1.457, 2.092e-3
-1.456, 2.056e-3
-1.455, 2.018e-3
-1.454, 1.980e-3
-1.453, 1.942e-3
-1.452, 1.904e-3
-1.451, 1.867e-3
-1.450, 1.834e-3
-1.449, 1.800e-3
-1.448, 1.768e-3
-1.447, 1.739e-3
-1.446, 1.712e-3
-1.445, 1.679e-3
-1.444, 1.646e-3
-1.443, 1.616e-3
-1.442, 1.587e-3
-1.441, 1.559e-3
-1.440, 1.530e-3
-1.439, 1.500e-3
-1.438, 1.470e-3
-1.437, 1.443e-3
-1.436, 1.416e-3
-1.435, 1.387e-3
-1.434, 1.358e-3
-1.433, 1.330e-3
-1.432, 1.303e-3
-1.431, 1.276e-3
-1.430, 1.250e-3
-1.429, 1.223e-3
-1.428, 1.197e-3
-1.427, 1.172e-3
-1.426, 1.148e-3
-1.425, 1.124e-3
-1.424, 1.099e-3
-1.423, 1.075e-3
-1.422, 1.051e-3
-1.421, 1.029e-3
-1.420, 1.006e-3
-1.419, 9.834e-4
-1.418, 9.621e-4
-1.417, 9.408e-4
-1.416, 9.194e-4
-1.415, 8.986e-4
-1.414, 8.781e-4
-1.413, 8.577e-4
-1.412, 8.378e-4
-1.411, 8.186e-4
-1.410, 7.995e-4
-1.409, 7.804e-4
-1.408, 7.618e-4
-1.407, 7.440e-4
-1.406, 7.266e-4
-1.405, 7.095e-4
-1.404, 6.918e-4
-1.403, 6.748e-4
-1.402, 6.584e-4
-1.401, 6.427e-4
-1.400, 6.272e-4
-1.399, 6.113e-4
-1.398, 5.958e-4
-1.397, 5.813e-4
-1.396, 5.673e-4
-1.395, 5.534e-4
-1.394, 5.392e-4
-1.393, 5.253e-4
-1.392, 5.119e-4
-1.391, 4.991e-4
-1.390, 4.861e-4
-1.389, 4.734e-4
-1.388, 4.608e-4
-1.387, 4.486e-4
-1.386, 4.371e-4
-1.385, 4.257e-4
-1.384, 4.141e-4
-1.383, 4.026e-4
-1.382, 3.919e-4
-1.381, 3.818e-4
-1.380, 3.717e-4
-1.379, 3.612e-4
-1.378, 3.512e-4
-1.377, 3.416e-4
-1.376, 3.326e-4
-1.375, 3.234e-4
-1.374, 3.138e-4
-1.373, 3.047e-4
-1.372, 2.964e-4
-1.371, 2.883e-4
-1.370, 2.803e-4
-1.369, 2.718e-4
-1.368, 2.637e-4
-1.367, 2.563e-4
-1.366, 2.491e-4
-1.365, 2.422e-4
-1.364, 2.347e-4
-1.363, 2.273e-4
-1.362, 2.209e-4
-1.361, 2.148e-4
-1.360, 2.086e-4
-1.359, 2.021e-4
-1.358, 1.955e-4
-1.357, 1.898e-4
-1.356, 1.844e-4
-1.355, 1.789e-4
-1.354, 1.730e-4
-1.353, 1.672e-4
-1.352, 1.622e-4
-1.351, 1.575e-4
-1.350, 1.527e-4
-1.349, 1.473e-4
-1.348, 1.422e-4
-1.347, 1.376e-4
-1.346, 1.342e-4
-1.345, 1.296e-4
-1.344, 1.250e-4
-1.343, 1.204e-4
-1.342, 1.164e-4
-1.341, 1.131e-4
-1.340, 1.094e-4
-1.339, 1.053e-4
-1.338, 1.014e-4
-1.337, 9.785e-5
-1.336, 9.498e-5
-1.335, 9.184e-5
-1.334, 8.818e-5
-1.333, 8.456e-5
-1.332, 8.159e-5
-1.331, 7.913e-5
-1.330, 7.661e-5
-1.329, 7.342e-5
-1.328, 7.053e-5
-1.327, 6.785e-5
-1.326, 6.585e-5
-1.325, 6.359e-5
-1.324, 6.054e-5
-1.323, 5.744e-5
-1.322, 5.529e-5
-1.321, 5.350e-5
-1.320, 5.195e-5
-1.319, 4.933e-5
-1.318, 4.656e-5
-1.317, 4.448e-5
-1.316, 4.318e-5
-1.315, 4.143e-5
-1.314, 3.946e-5
-1.313, 3.710e-5
-1.312, 3.538e-5
-1.311, 3.414e-5
-1.310, 3.270e-5
-1.309, 3.082e-5
-1.308, 2.873e-5
-1.307, 2.748e-5
-1.306, 2.654e-5
-1.305, 2.518e-5
-1.304, 2.348e-5
-1.303, 2.169e-5
-1.302, 2.037e-5
-1.301, 1.956e-5
-1.300, 1.869e-5
-1.299, 1.713e-5
-1.298, 1.570e-5
-1.297, 1.434e-5
-1.296, 1.373e-5
-1.295, 1.302e-5
-1.294, 1.142e-5
-1.293, 9.974e-6
-1.292, 9.146e-6
-1.291, 8.789e-6
-1.290, 8.362e-6
-1.289, 6.745e-6
-1.288, 5.922e-6
-1.287, 4.870e-6
-1.286, 4.472e-6
-1.285, 4.121e-6
-1.284, 2.987e-6
-1.283, 1.637e-6
-1.282, 8.710e-7
-1.281, 5.227e-7
-1.280, 1.054e-7
-1.279, -8.368e-7
-1.278, -2.135e-6
-1.277, -2.638e-6
-1.276, -2.835e-6
-1.275, -3.019e-6
-1.274, -3.896e-6
-1.273, -5.198e-6
-1.272, -5.707e-6
-1.271, -5.662e-6
-1.270, -5.950e-6
-1.269, -6.526e-6
-1.268, -7.750e-6
-1.267, -8.393e-6
-1.266, -8.204e-6
-1.265, -8.318e-6
-1.264, -9.098e-6
-1.263, -1.003e-5
-1.262, -1.068e-5
-1.261, -1.047e-5
-1.260, -1.046e-5
-1.259, -1.132e-5
-1.258, -1.212e-5
-1.257, -1.268e-5
-1.256, -1.247e-5
-1.255, -1.225e-5
-1.254, -1.298e-5
-1.253, -1.380e-5
-1.252, -1.427e-5
-1.251, -1.431e-5
-1.250, -1.397e-5
-1.249, -1.470e-5
-1.248, -1.566e-5
-1.247, -1.582e-5
-1.246, -1.576e-5
-1.245, -1.541e-5
-1.244, -1.592e-5
-1.243, -1.703e-5
-1.242, -1.725e-5
-1.241, -1.693e-5
-1.240, -1.656e-5
-1.239, -1.724e-5
-1.238, -1.831e-5
-1.237, -1.843e-5
-1.236, -1.813e-5
-1.235, -1.803e-5
-1.234, -1.814e-5
-1.233, -1.909e-5
-1.232, -1.934e-5
-1.231, -1.908e-5
-1.230, -1.888e-5
-1.229, -1.959e-5
-1.228, -2.014e-5
-1.227, -2.040e-5
-1.226, -1.998e-5
-1.225, -1.969e-5
-1.224, -2.002e-5
-1.223, -2.079e-5
-1.222, -2.108e-5
-1.221, -2.073e-5
-1.220, -2.042e-5
-1.219, -2.088e-5
-1.218, -2.162e-5
-1.217, -2.181e-5
-1.216, -2.137e-5
-1.215, -2.106e-5
-1.214, -2.154e-5
-1.213, -2.217e-5
-1.212, -2.244e-5
-1.211, -2.218e-5
-1.210, -2.169e-5
-1.209, -2.220e-5
-1.208, -2.281e-5
-1.207, -2.298e-5
-1.206, -2.273e-5
-1.205, -2.219e-5
-1.204, -2.254e-5
-1.203, -2.332e-5
-1.202, -2.348e-5
-1.201, -2.326e-5
-1.200, -2.278e-5
-1.199, -2.313e-5
-1.198, -2.396e-5
-1.197, -2.397e-5
-1.196, -2.349e-5
-1.195, -2.307e-5
-1.194, -2.321e-5
-1.193, -2.417e-5
-1.192, -2.438e-5
-1.191, -2.404e-5
-1.190, -2.369e-5
-1.189, -2.374e-5
-1.188, -2.441e-5
-1.187, -2.484e-5
-1.186, -2.451e-5
-1.185, -2.411e-5
-1.184, -2.416e-5
-1.183, -2.484e-5
-1.182, -2.515e-5
-1.181, -2.470e-5
-1.180, -2.444e-5
-1.179, -2.475e-5
-1.178, -2.560e-5
-1.177, -2.591e-5
-1.176, -2.527e-5
-1.175, -2.493e-5
-1.174, -2.525e-5
-1.173, -2.583e-5
-1.172, -2.613e-5
-1.171, -2.578e-5
-1.170, -2.534e-5
-1.169, -2.570e-5
-1.168, -2.623e-5
-1.167, -2.674e-5
-1.166, -2.635e-5
-1.165, -2.580e-5
-1.164, -2.605e-5
-1.163, -2.685e-5
-1.162, -2.717e-5
-1.161, -2.681e-5
-1.160, -2.625e-5
-1.159, -2.644e-5
-1.158, -2.731e-5
-1.157, -2.763e-5
-1.156, -2.722e-5
-1.155, -2.685e-5
-1.154, -2.693e-5
-1.153, -2.772e-5
-1.152, -2.806e-5
-1.151, -2.770e-5
-1.150, -2.725e-5
-1.149, -2.748e-5
-1.148, -2.818e-5
-1.147, -2.853e-5
-1.146, -2.810e-5
-1.145, -2.775e-5
-1.144, -2.784e-5
-1.143, -2.856e-5
-1.142, -2.908e-5
-1.141, -2.862e-5
-1.140, -2.813e-5
-1.139, -2.831e-5
-1.138, -2.905e-5
-1.137, -2.962e-5
-1.136, -2.906e-5
-1.135, -2.866e-5
-1.134, -2.884e-5
-1.133, -2.933e-5
-1.132, -2.977e-5
-1.131, -2.941e-5
-1.130, -2.901e-5
-1.129, -2.924e-5
-1.128, -2.985e-5
-1.127, -3.032e-5
-1.126, -2.989e-5
-1.125, -2.938e-5
-1.124, -2.953e-5
-1.123, -3.032e-5
-1.122, -3.072e-5
-1.121, -3.051e-5
-1.120, -2.981e-5
-1.119, -2.987e-5
-1.118, -3.069e-5
-1.117, -3.105e-5
-1.116, -3.080e-5
-1.115, -3.039e-5
-1.114, -3.050e-5
-1.113, -3.121e-5
-1.112, -3.158e-5
-1.111, -3.116e-5
-1.110, -3.075e-5
-1.109, -3.070e-5
-1.108, -3.139e-5
-1.107, -3.198e-5
-1.106, -3.159e-5
-1.105, -3.115e-5
-1.104, -3.116e-5
-1.103, -3.182e-5
-1.102, -3.243e-5
-1.101, -3.201e-5
-1.100, -3.137e-5
-1.099, -3.151e-5
-1.098, -3.212e-5
-1.097, -3.265e-5
-1.096, -3.225e-5
-1.095, -3.181e-5
-1.094, -3.189e-5
-1.093, -3.245e-5
-1.092, -3.293e-5
-1.091, -3.276e-5
-1.090, -3.207e-5
-1.089, -3.218e-5
-1.088, -3.273e-5
-1.087, -3.322e-5
-1.086, -3.300e-5
-1.085, -3.236e-5
-1.084, -3.238e-5
-1.083, -3.314e-5
-1.082, -3.344e-5
-1.081, -3.328e-5
-1.080, -3.275e-5
-1.079, -3.227e-5
-1.078, -3.348e-5
-1.077, -3.386e-5
-1.076, -3.354e-5
-1.075, -3.319e-5
-1.074, -3.306e-5
-1.073, -3.379e-5
-1.072, -3.419e-5
-1.071, -3.376e-5
-1.070, -3.332e-5
-1.069, -3.310e-5
-1.068, -3.371e-5
-1.067, -3.431e-5
-1.066, -3.387e-5
-1.065, -3.316e-5
-1.064, -3.304e-5
-1.063, -3.367e-5
-1.062, -3.430e-5
-1.061, -3.389e-5
-1.060, -3.321e-5
-1.059, -3.323e-5
-1.058, -3.372e-5
-1.057, -3.437e-5
-1.056, -3.392e-5
-1.055, -3.322e-5
-1.054, -3.337e-5
-1.053, -3.375e-5
-1.052, -3.427e-5
-1.051, -3.409e-5
-1.050, -3.339e-5
-1.049, -3.333e-5
-1.048, -3.383e-5
-1.047, -3.430e-5
-1.046, -3.410e-5
-1.045, -3.340e-5
-1.044, -3.326e-5
-1.043, -3.395e-5
-1.042, -3.436e-5
-1.041, -3.415e-5
-1.040, -3.340e-5
-1.039, -3.334e-5
-1.038, -3.396e-5
-1.037, -3.436e-5
-1.036, -3.426e-5
-1.035, -3.356e-5
-1.034, -3.338e-5
-1.033, -3.399e-5
-1.032, -3.439e-5
-1.031, -3.412e-5
-1.030, -3.361e-5
-1.029, -3.340e-5
-1.028, -3.408e-5
-1.027, -3.463e-5
-1.026, -3.431e-5
-1.025, -3.382e-5
-1.024, -3.361e-5
-1.023, -3.412e-5
-1.022, -3.481e-5
-1.021, -3.443e-5
-1.020, -3.388e-5
-1.019, -3.391e-5
-1.018, -3.434e-5
-1.017, -3.498e-5
-1.016, -3.465e-5
-1.015, -3.415e-5
-1.014, -3.412e-5
-1.013, -3.463e-5
-1.012, -3.517e-5
-1.011, -3.518e-5
-1.010, -3.454e-5
-1.009, -3.449e-5
-1.008, -3.503e-5
-1.007, -3.562e-5
-1.006, -3.562e-5
-1.005, -3.490e-5
-1.004, -3.471e-5
-1.003, -3.560e-5
-1.002, -3.603e-5
-1.001, -3.615e-5
-1.000, -1.648e-5
-1.001, -8.113e-6
-1.002, -5.777e-6
-1.003, -4.235e-6
-1.004, -2.299e-6
-1.005, -4.106e-7
-1.006, 9.045e-7
-1.007, 1.528e-6
-1.008, 1.863e-6
-1.009, 2.779e-6
-1.010, 4.176e-6
-1.011, 5.009e-6
-1.012, 5.128e-6
-1.013, 5.059e-6
-1.014, 5.683e-6
-1.015, 6.886e-6
-1.016, 7.382e-6
-1.017, 7.238e-6
-1.018, 7.249e-6
-1.019, 7.781e-6
-1.020, 8.716e-6
-1.021, 9.216e-6
-1.022, 8.944e-6
-1.023, 8.865e-6
-1.024, 9.258e-6
-1.025, 1.006e-5
-1.026, 1.066e-5
-1.027, 1.030e-5
-1.028, 9.938e-6
-1.029, 1.047e-5
-1.030, 1.121e-5
-1.031, 1.174e-5
-1.032, 1.128e-5
-1.033, 1.100e-5
-1.034, 1.148e-5
-1.035, 1.207e-5
-1.036, 1.268e-5
-1.037, 1.222e-5
-1.038, 1.181e-5
-1.039, 1.228e-5
-1.040, 1.287e-5
-1.041, 1.339e-5
-1.042, 1.307e-5
-1.043, 1.265e-5
-1.044, 1.292e-5
-1.045, 1.366e-5
-1.046, 1.407e-5
-1.047, 1.376e-5
-1.048, 1.333e-5
-1.049, 1.366e-5
-1.050, 1.439e-5
-1.051, 1.475e-5
-1.052, 1.438e-5
-1.053, 1.404e-5
-1.054, 1.419e-5
-1.055, 1.487e-5
-1.056, 1.542e-5
-1.057, 1.498e-5
-1.058, 1.472e-5
-1.059, 1.478e-5
-1.060, 1.553e-5
-1.061, 1.604e-5
-1.062, 1.558e-5
-1.063, 1.524e-5
-1.064, 1.538e-5
-1.065, 1.607e-5
-1.066, 1.656e-5
-1.067, 1.616e-5
-1.068, 1.576e-5
-1.069, 1.593e-5
-1.070, 1.658e-5
-1.071, 1.710e-5
-1.072, 1.666e-5
-1.073, 1.623e-5
-1.074, 1.644e-5
-1.075, 1.724e-5
-1.076, 1.759e-5
-1.077, 1.722e-5
-1.078, 1.672e-5
-1.079, 1.695e-5
-1.080, 1.744e-5
-1.081, 1.799e-5
-1.082, 1.773e-5
-1.083, 1.715e-5
-1.084, 1.734e-5
-1.085, 1.791e-5
-1.086, 1.842e-5
-1.087, 1.821e-5
-1.088, 1.763e-5
-1.089, 1.785e-5
-1.090, 1.849e-5
-1.091, 1.883e-5
-1.092, 1.854e-5
-1.093, 1.794e-5
-1.094, 1.801e-5
-1.095, 1.880e-5
-1.096, 1.915e-5
-1.097, 1.876e-5
-1.098, 1.846e-5
-1.099, 1.845e-5
-1.100, 1.905e-5
-1.101, 1.945e-5
-1.102, 1.915e-5
-1.103, 1.866e-5
-1.104, 1.869e-5
-1.105, 1.933e-5
-1.106, 1.988e-5
-1.107, 1.939e-5
-1.108, 1.893e-5
-1.109, 1.899e-5
-1.110, 1.965e-5
-1.111, 2.019e-5
-1.112, 1.974e-5
-1.113, 1.931e-5
-1.114, 1.933e-5
-1.115, 1.989e-5
-1.116, 2.035e-5
-1.117, 2.002e-5
-1.118, 1.942e-5
-1.119, 1.963e-5
-1.120, 2.004e-5
-1.121, 2.048e-5
-1.122, 2.030e-5
-1.123, 1.964e-5
-1.124, 1.971e-5
-1.125, 2.034e-5
-1.126, 2.071e-5
-1.127, 2.051e-5
-1.128, 1.986e-5
-1.129, 2.000e-5
-1.130, 2.051e-5
-1.131, 2.093e-5
-1.132, 2.063e-5
-1.133, 2.004e-5
-1.134, 2.013e-5
-1.135, 2.070e-5
-1.136, 2.112e-5
-1.137, 2.076e-5
-1.138, 2.035e-5
-1.139, 2.029e-5
-1.140, 2.081e-5
-1.141, 2.127e-5
-1.142, 2.095e-5
-1.143, 2.046e-5
-1.144, 2.036e-5
-1.145, 2.084e-5
-1.146, 2.148e-5
-1.147, 2.109e-5
-1.148, 2.055e-5
-1.149, 2.056e-5
-1.150, 2.103e-5
-1.151, 2.158e-5
-1.152, 2.126e-5
-1.153, 2.068e-5
-1.154, 2.075e-5
-1.155, 2.108e-5
-1.156, 2.165e-5
-1.157, 2.133e-5
-1.158, 2.071e-5
-1.159, 2.082e-5
-1.160, 2.121e-5
-1.161, 2.175e-5
-1.162, 2.151e-5
-1.163, 2.093e-5
-1.164, 2.093e-5
-1.165, 2.144e-5
-1.166, 2.186e-5
-1.167, 2.174e-5
-1.168, 2.099e-5
-1.169, 2.098e-5
-1.170, 2.160e-5
-1.171, 2.200e-5
-1.172, 2.178e-5
-1.173, 2.116e-5
-1.174, 2.114e-5
-1.175, 2.171e-5
-1.176, 2.212e-5
-1.177, 2.198e-5
-1.178, 2.147e-5
-1.179, 2.129e-5
-1.180, 2.188e-5
-1.181, 2.231e-5
-1.182, 2.216e-5
-1.183, 2.160e-5
-1.184, 2.143e-5
-1.185, 2.202e-5
-1.186, 2.251e-5
-1.187, 2.226e-5
-1.188, 2.177e-5
-1.189, 2.165e-5
-1.190, 2.220e-5
-1.191, 2.267e-5
-1.192, 2.240e-5
-1.193, 2.198e-5
-1.194, 2.192e-5
-1.195, 2.238e-5
-1.196, 2.300e-5
-1.197, 2.277e-5
-1.198, 2.213e-5
-1.199, 2.216e-5
-1.200, 2.256e-5
-1.201, 2.305e-5
-1.202, 2.298e-5
-1.203, 2.239e-5
-1.204, 2.229e-5
-1.205, 2.288e-5
-1.206, 2.333e-5
-1.207, 2.329e-5
-1.208, 2.270e-5
-1.209, 2.254e-5
-1.210, 2.314e-5
-1.211, 2.359e-5
-1.212, 2.354e-5
-1.213, 2.302e-5
-1.214, 2.286e-5
-1.215, 2.364e-5
-1.216, 2.413e-5
-1.217, 2.408e-5
-1.218, 2.363e-5
-1.219, 2.329e-5
-1.220, 2.378e-5
-1.221, 2.436e-5
-1.222, 2.427e-5
-1.223, 2.383e-5
-1.224, 2.354e-5
-1.225, 2.410e-5
-1.226, 2.481e-5
-1.227, 2.462e-5
-1.228, 2.433e-5
-1.229, 2.411e-5
-1.230, 2.455e-5
-1.231, 2.512e-5
-1.232, 2.510e-5
-1.233, 2.460e-5
-1.234, 2.447e-5
-1.235, 2.498e-5
-1.236, 2.563e-5
-1.237, 2.559e-5
-1.238, 2.509e-5
-1.239, 2.503e-5
-1.240, 2.552e-5
-1.241, 2.607e-5
-1.242, 2.628e-5
-1.243, 2.569e-5
-1.244, 2.556e-5
-1.245, 2.617e-5
-1.246, 2.676e-5
-1.247, 2.689e-5
-1.248, 2.641e-5
-1.249, 2.622e-5
-1.250, 2.695e-5
-1.251, 2.748e-5
-1.252, 2.765e-5
-1.253, 2.722e-5
-1.254, 2.714e-5
-1.255, 2.776e-5
-1.256, 2.837e-5
-1.257, 2.855e-5
-1.258, 2.826e-5
-1.259, 2.802e-5
-1.260, 2.870e-5
-1.261, 2.950e-5
-1.262, 2.958e-5
-1.263, 2.927e-5
-1.264, 2.921e-5
-1.265, 2.988e-5
-1.266, 3.067e-5
-1.267, 3.082e-5
-1.268, 3.057e-5
-1.269, 3.056e-5
-1.270, 3.111e-5
-1.271, 3.202e-5
-1.272, 3.223e-5
-1.273, 3.194e-5
-1.274, 3.195e-5
-1.275, 3.255e-5
-1.276, 3.346e-5
-1.277, 3.380e-5
-1.278, 3.349e-5
-1.279, 3.356e-5
-1.280, 3.433e-5
-1.281, 3.512e-5
-1.282, 3.541e-5
-1.283, 3.512e-5
-1.284, 3.525e-5
-1.285, 3.593e-5
-1.286, 3.682e-5
-1.287, 3.726e-5
-1.288, 3.694e-5
-1.289, 3.707e-5
-1.290, 3.779e-5
-1.291, 3.872e-5
-1.292, 3.914e-5
-1.293, 3.894e-5
-1.294, 3.906e-5
-1.295, 3.996e-5
-1.296, 4.084e-5
-1.297, 4.135e-5
-1.298, 4.130e-5
-1.299, 4.130e-5
-1.300, 4.218e-5
-1.301, 4.324e-5
-1.302, 4.373e-5
-1.303, 4.369e-5
-1.304, 4.391e-5
-1.305, 4.473e-5
-1.306, 4.600e-5
-1.307, 4.650e-5
-1.308, 4.666e-5
-1.309, 4.681e-5
-1.310, 4.782e-5
-1.311, 4.913e-5
-1.312, 4.970e-5
-1.313, 4.998e-5
-1.314, 5.044e-5
-1.315, 5.141e-5
-1.316, 5.291e-5
-1.317, 5.366e-5
-1.318, 5.400e-5
-1.319, 5.445e-5
-1.320, 5.565e-5
-1.321, 5.733e-5
-1.322, 5.842e-5
-1.323, 5.882e-5
-1.324, 5.955e-5
-1.325, 6.076e-5
-1.326, 6.243e-5
-1.327, 6.372e-5
-1.328, 6.415e-5
-1.329, 6.502e-5
-1.330, 6.659e-5
-1.331, 6.835e-5
-1.332, 6.977e-5
-1.333, 7.062e-5
-1.334, 7.161e-5
-1.335, 7.339e-5
-1.336, 7.536e-5
-1.337, 7.707e-5
-1.338, 7.828e-5
-1.339, 7.938e-5
-1.340, 8.139e-5
-1.341, 8.373e-5
-1.342, 8.561e-5
-1.343, 8.717e-5
-1.344, 8.849e-5
-1.345, 9.079e-5
-1.346, 9.362e-5
-1.347, 9.565e-5
-1.348, 9.747e-5
-1.349, 9.940e-5
-1.350, 1.020e-4
-1.351, 1.051e-4
-1.352, 1.076e-4
-1.353, 1.098e-4
-1.354, 1.122e-4
-1.355, 1.150e-4
-1.356, 1.186e-4
-1.357, 1.217e-4
-1.358, 1.242e-4
-1.359, 1.271e-4
-1.360, 1.304e-4
-1.361, 1.345e-4
-1.362, 1.382e-4
-1.363, 1.413e-4
-1.364, 1.446e-4
-1.365, 1.487e-4
-1.366, 1.533e-4
-1.367, 1.577e-4
-1.368, 1.614e-4
-1.369, 1.655e-4
-1.370, 1.705e-4
-1.371, 1.756e-4
-1.372, 1.807e-4
-1.373, 1.853e-4
-1.374, 1.900e-4
-1.375, 1.957e-4
-1.376, 2.017e-4
-1.377, 2.077e-4
-1.378, 2.133e-4
-1.379, 2.188e-4
-1.380, 2.254e-4
-1.381, 2.326e-4
-1.382, 2.396e-4
-1.383, 2.461e-4
-1.384, 2.529e-4
-1.385, 2.604e-4
-1.386, 2.687e-4
-1.387, 2.768e-4
-1.388, 2.845e-4
-1.389, 2.925e-4
-1.390, 3.012e-4
-1.391, 3.107e-4
-1.392, 3.204e-4
-1.393, 3.293e-4
-1.394, 3.390e-4
-1.395, 3.488e-4
-1.396, 3.600e-4
-1.397, 3.712e-4
-1.398, 3.817e-4
-1.399, 3.928e-4
-1.400, 4.045e-4
-1.401, 4.170e-4
-1.402, 4.298e-4
-1.403, 4.422e-4
-1.404, 4.552e-4
-1.405, 4.685e-4
-1.406, 4.830e-4
-1.407, 4.978e-4
-1.408, 5.120e-4
-1.409, 5.269e-4
-1.410, 5.426e-4
-1.411, 5.590e-4
-1.412, 5.759e-4
-1.413, 5.926e-4
-1.414, 6.094e-4
-1.415, 6.275e-4
-1.416, 6.461e-4
-1.417, 6.656e-4
-1.418, 6.845e-4
-1.419, 7.043e-4
-1.420, 7.255e-4
-1.421, 7.451e-4
-1.422, 7.662e-4
-1.423, 7.871e-4
-1.424, 8.095e-4
-1.425, 8.325e-4
-1.426, 8.562e-4
-1.427, 8.799e-4
-1.428, 9.041e-4
-1.429, 9.283e-4
-1.430, 9.539e-4
-1.431, 9.803e-4
-1.432, 1.007e-3
-1.433, 1.035e-3
-1.434, 1.062e-3
-1.435, 1.092e-3
-1.436, 1.121e-3
-1.437, 1.152e-3
-1.438, 1.182e-3
-1.439, 1.212e-3
-1.440, 1.243e-3
-1.441, 1.276e-3
-1.442, 1.309e-3
-1.443, 1.342e-3
-1.444, 1.376e-3
-1.445, 1.411e-3
-1.446, 1.446e-3
-1.447, 1.482e-3
-1.448, 1.518e-3
-1.449, 1.555e-3
-1.450, 1.593e-3
-1.451, 1.631e-3
-1.452, 1.670e-3
-1.453, 1.709e-3
-1.454, 1.749e-3
-1.455, 1.789e-3
-1.456, 1.832e-3
-1.457, 1.874e-3
-1.458, 1.915e-3
-1.459, 1.958e-3
-1.460, 2.001e-3
-1.461, 2.046e-3
-1.462, 2.091e-3
-1.463, 2.137e-3
-1.464, 2.183e-3
-1.465, 2.227e-3
-1.466, 2.276e-3
-1.467, 2.323e-3
-1.468, 2.371e-3
-1.469, 2.421e-3
-1.470, 2.469e-3
-1.471, 2.520e-3
-1.472, 2.571e-3
-1.473, 2.623e-3
-1.474, 2.674e-3
-1.475, 2.725e-3
-1.476, 2.778e-3
-1.477, 2.832e-3
-1.478, 2.886e-3
-1.479, 2.940e-3
-1.480, 2.993e-3
-1.481, 3.050e-3
-1.482, 3.106e-3
-1.483, 3.166e-3
-1.484, 3.223e-3
-1.485, 3.283e-3
-1.486, 3.348e-3
-1.487, 3.410e-3
-1.488, 3.474e-3
-1.489, 3.525e-3
-1.490, 3.575e-3
-1.491, 3.633e-3
-1.492, 3.697e-3
-1.493, 3.758e-3
-1.494, 3.823e-3
-1.495, 3.888e-3
-1.496, 3.952e-3
-1.497, 4.017e-3
-1.498, 4.078e-3
-1.499, 4.139e-3
-1.500, 4.200e-3
-1.501, 4.263e-3
-1.502, 4.332e-3
-1.503, 4.402e-3
-1.504, 4.470e-3
-1.505, 4.533e-3
-1.506, 4.612e-3
-1.507, 4.679e-3
-1.508, 4.735e-3
-1.509, 4.795e-3
-1.510, 4.858e-3
-1.511, 4.930e-3
-1.512, 5.000e-3
-1.513, 5.073e-3
-1.514, 5.148e-3
-1.515, 5.217e-3
-1.516, 5.287e-3
-1.517, 5.358e-3
-1.518, 5.419e-3
-1.519, 5.481e-3
-1.520, 5.548e-3
-1.521, 5.616e-3
-1.522, 5.691e-3
-1.523, 5.765e-3
-1.524, 5.836e-3
-1.525, 5.907e-3
-1.526, 5.984e-3
-1.527, 6.060e-3
-1.528, 6.126e-3
-1.529, 6.192e-3
-1.530, 6.264e-3
-1.531, 6.335e-3
-1.532, 6.417e-3
-1.533, 6.491e-3
-1.534, 6.564e-3
-1.535, 6.628e-3
-1.536, 6.690e-3
-1.537, 6.758e-3
-1.538, 6.824e-3
-1.539, 6.889e-3
-1.540, 6.955e-3
-1.541, 7.024e-3
-1.542, 7.094e-3
-1.543, 7.164e-3
-1.544, 7.241e-3
-1.545, 7.313e-3
-1.546, 7.390e-3
-1.547, 7.469e-3
-1.548, 7.537e-3
-1.549, 7.599e-3
-1.550, 7.662e-3
-1.551, 7.744e-3
-1.552, 7.812e-3
-1.553, 7.873e-3
-1.554, 7.944e-3
-1.555, 8.013e-3
-1.556, 8.078e-3
-1.557, 8.144e-3
-1.558, 8.206e-3
-1.559, 8.266e-3
-1.560, 8.322e-3
-1.561, 8.387e-3
-1.562, 8.442e-3
-1.563, 8.500e-3
-1.564, 8.568e-3
-1.565, 8.615e-3
-1.566, 8.672e-3
-1.567, 8.735e-3
-1.568, 8.803e-3
-1.569, 8.867e-3
-1.570, 8.935e-3
-1.571, 8.973e-3
-1.572, 9.037e-3
-1.573, 9.084e-3
-1.574, 9.162e-3
-1.575, 9.222e-3
-1.576, 9.245e-3
-1.577, 9.288e-3
-1.578, 9.339e-3
-1.579, 9.392e-3
-1.580, 9.445e-3
-1.581, 9.487e-3
-1.582, 9.532e-3
-1.583, 9.586e-3
-1.584, 9.667e-3
-1.585, 9.734e-3
-1.586, 9.789e-3
-1.587, 9.836e-3
-1.588, 9.920e-3
-1.589, 9.961e-3
-1.590, 1.002e-2
-1.591, 1.006e-2
-1.592, 1.010e-2
-1.593, 1.011e-2
-1.594, 1.011e-2
-1.595, 1.011e-2
-1.596, 1.011e-2
-1.597, 1.011e-2
-1.598, 1.011e-2
-1.599, 1.011e-2
-1.600, 1.011e-2
-1.599, 1.011e-2
-1.598, 1.011e-2
-1.597, 1.011e-2
-1.596, 1.011e-2
-1.595, 1.006e-2
-1.594, 9.950e-3
-1.593, 9.851e-3
-1.592, 9.772e-3
-1.591, 9.659e-3
-1.590, 9.558e-3
-1.589, 9.461e-3
-1.588, 9.356e-3
-1.587, 9.256e-3
-1.586, 9.162e-3
-1.585, 9.065e-3
-1.584, 9.000e-3
-1.583, 8.944e-3
-1.582, 8.851e-3
-1.581, 8.769e-3
-1.580, 8.644e-3
-1.579, 8.544e-3
-1.578, 8.459e-3
-1.577, 8.399e-3
-1.576, 8.391e-3
-1.575, 8.293e-3
-1.574, 8.189e-3
-1.573, 8.091e-3
-1.572, 8.009e-3
-1.571, 7.923e-3
-1.570, 7.830e-3
-1.569, 7.770e-3
-1.568, 7.712e-3
-1.567, 7.650e-3
-1.566, 7.568e-3
-1.565, 7.469e-3
-1.564, 7.383e-3
-1.563, 7.306e-3
-1.562, 7.224e-3
-1.561, 7.140e-3
-1.560, 7.099e-3
-1.559, 7.048e-3
-1.558, 6.976e-3
-1.557, 6.907e-3
-1.556, 6.879e-3
-1.555, 6.798e-3
-1.554, 6.714e-3
-1.553, 6.659e-3
-1.552, 6.609e-3
-1.551, 6.562e-3
-1.550, 6.480e-3
-1.549, 6.387e-3
-1.548, 6.321e-3
-1.547, 6.268e-3
-1.546, 6.204e-3
-1.545, 6.149e-3
-1.544, 6.070e-3
-1.543, 5.998e-3
-1.542, 5.928e-3
-1.541, 5.858e-3
-1.540, 5.797e-3
-1.539, 5.724e-3
-1.538, 5.662e-3
-1.537, 5.598e-3
-1.536, 5.554e-3
-1.535, 5.491e-3
-1.534, 5.420e-3
-1.533, 5.370e-3
-1.532, 5.304e-3
-1.531, 5.242e-3
-1.530, 5.365e-3
-1.529, 5.321e-3
-1.528, 5.234e-3
-1.527, 5.177e-3
-1.526, 5.124e-3
-1.525, 5.052e-3
-1.524, 4.993e-3
-1.523, 4.937e-3
-1.522, 4.870e-3
-1.521, 4.815e-3
-1.520, 4.748e-3
-1.519, 4.694e-3
-1.518, 4.640e-3
-1.517, 4.602e-3
-1.516, 4.540e-3
-1.515, 4.470e-3
-1.514, 4.414e-3
-1.513, 4.368e-3
-1.512, 4.308e-3
-1.511, 4.247e-3
-1.510, 4.191e-3
-1.509, 4.136e-3
-1.508, 4.080e-3
-1.507, 4.027e-3
-1.506, 3.972e-3
-1.505, 3.914e-3
-1.504, 3.864e-3
-1.503, 3.818e-3
-1.502, 3.763e-3
-1.501, 3.721e-3
-1.500, 3.665e-3
-1.499, 3.609e-3
-1.498, 3.563e-3
-1.497, 3.515e-3
-1.496, 3.472e-3
-1.495, 3.426e-3
-1.494, 3.370e-3
-1.493, 3.330e-3
-1.492, 3.287e-3
-1.491, 3.239e-3
-1.490, 3.179e-3
-1.489, 3.131e-3
-1.488, 3.086e-3
-1.487, 3.035e-3
-1.486, 2.993e-3
-1.485, 2.961e-3
-1.484, 2.928e-3
-1.483, 2.873e-3
-1.482, 2.821e-3
-1.481, 2.775e-3
-1.480, 2.734e-3
-1.479, 2.691e-3
-1.478, 2.648e-3
-1.477, 2.607e-3
-1.476, 2.567e-3
-1.475, 2.526e-3
-1.474, 2.490e-3
-1.473, 2.450e-3
-1.472, 2.414e-3
-1.471, 2.372e-3
-1.470, 2.342e-3
-1.469, 2.303e-3
-1.468, 2.269e-3
-1.467, 2.233e-3
-1.466, 2.205e-3
-1.465, 2.175e-3
-1.464, 2.133e-3
-1.463, 2.096e-3
-1.462, 2.067e-3
-1.461, 2.032e-3
-1.460, 2.001e-3
-1.459, 1.966e-3
-1.458, 1.932e-3
-1.457, 1.898e-3
-1.456, 1.866e-3
-1.455, 1.834e-3
-1.454, 1.812e-3
-1.453, 1.785e-3
-1.452, 1.754e-3
-1.451, 1.721e-3
-1.450, 1.687e-3
-1.449, 1.658e-3
-1.448, 1.625e-3
-1.447, 1.592e-3
-1.446, 1.561e-3
-1.445, 1.530e-3
-1.444, 1.501e-3
-1.443, 1.473e-3
-1.442, 1.444e-3
-1.441, 1.416e-3
-1.440, 1.387e-3
-1.439, 1.360e-3
-1.438, 1.333e-3
-1.437, 1.306e-3
-1.436, 1.282e-3
-1.435, 1.255e-3
-1.434, 1.229e-3
-1.433, 1.204e-3
-1.432, 1.179e-3
-1.431, 1.154e-3
-1.430, 1.129e-3
-1.429, 1.106e-3
-1.428, 1.083e-3
-1.427, 1.059e-3
-1.426, 1.036e-3
-1.425, 1.012e-3
-1.424, 9.901e-4
-1.423, 9.691e-4
-1.422, 9.480e-4
-1.421, 9.271e-4
-1.420, 9.064e-4
-1.419, 8.865e-4
-1.418, 8.670e-4
-1.417, 8.476e-4
-1.416, 8.290e-4
-1.415, 8.111e-4
-1.414, 7.919e-4
-1.413, 7.734e-4
-1.412, 7.557e-4
-1.411, 7.382e-4
-1.410, 7.204e-4
-1.409, 7.037e-4
-1.408, 6.875e-4
-1.407, 6.712e-4
-1.406, 6.552e-4
-1.405, 6.393e-4
-1.404, 6.240e-4
-1.403, 6.103e-4
-1.402, 5.951e-4
-1.401, 5.808e-4
-1.400, 5.662e-4
-1.399, 5.518e-4
-1.398, 5.390e-4
-1.397, 5.256e-4
-1.396, 5.119e-4
-1.395, 4.987e-4
-1.394, 4.866e-4
-1.393, 4.740e-4
-1.392, 4.623e-4
-1.391, 4.505e-4
-1.390, 4.386e-4
-1.389, 4.275e-4
-1.388, 4.164e-4
-1.387, 4.061e-4
-1.386, 3.951e-4
-1.385, 3.843e-4
-1.384, 3.743e-4
-1.383, 3.646e-4
-1.382, 3.551e-4
-1.381, 3.456e-4
-1.380, 3.358e-4
-1.379, 3.266e-4
-1.378, 3.180e-4
-1.377, 3.097e-4
-1.376, 3.012e-4
-1.375, 2.925e-4
-1.374, 2.845e-4
-1.373, 2.770e-4
-1.372, 2.696e-4
-1.371, 2.616e-4
-1.370, 2.541e-4
-1.369, 2.467e-4
-1.368, 2.398e-4
-1.367, 2.335e-4
-1.366, 2.263e-4
-1.365, 2.196e-4
-1.364, 2.133e-4
-1.363, 2.070e-4
-1.362, 2.014e-4
-1.361, 1.952e-4
-1.360, 1.905e-4
-1.359, 1.853e-4
-1.358, 1.813e-4
-1.357, 1.759e-4
-1.356, 1.699e-4
-1.355, 1.641e-4
-1.354, 1.590e-4
-1.353, 1.544e-4
-1.352, 1.499e-4
-1.351, 1.451e-4
-1.350, 1.397e-4
-1.349, 1.354e-4
-1.348, 1.314e-4
-1.347, 1.276e-4
-1.346, 1.235e-4
-1.345, 1.187e-4
-1.344, 1.149e-4
-1.343, 1.114e-4
-1.342, 1.081e-4
-1.341, 1.045e-4
-1.340, 1.002e-4
-1.339, 9.648e-5
-1.338, 9.346e-5
-1.337, 9.077e-5
-1.336, 8.764e-5
-1.335, 8.386e-5
-1.334, 8.037e-5
-1.333, 7.791e-5
-1.332, 7.567e-5
-1.331, 7.262e-5
-1.330, 6.929e-5
-1.329, 6.640e-5
-1.328, 6.458e-5
-1.327, 6.227e-5
-1.326, 5.987e-5
-1.325, 5.698e-5
-1.324, 5.447e-5
-1.323, 5.278e-5
-1.322, 5.106e-5
-1.321, 4.879e-5
-1.320, 4.637e-5
-1.319, 4.415e-5
-1.318, 4.253e-5
-1.317, 4.129e-5
-1.316, 3.915e-5
-1.315, 3.698e-5
-1.314, 3.497e-5
-1.313, 3.390e-5
-1.312, 3.242e-5
-1.311, 3.127e-5
-1.310, 2.923e-5
-1.309, 2.725e-5
-1.308, 2.596e-5
-1.307, 2.509e-5
-1.306, 2.358e-5
-1.305, 2.166e-5
-1.304, 2.002e-5
-1.303, 1.913e-5
-1.302, 1.847e-5
-1.301, 1.721e-5
-1.300, 1.546e-5
-1.299, 1.399e-5
-1.298, 1.337e-5
-1.297, 1.281e-5
-1.296, 1.176e-5
-1.295, 1.038e-5
-1.294, 8.718e-6
-1.293, 8.440e-6
-1.292, 8.081e-6
-1.291, 7.015e-6
-1.290, 5.695e-6
-1.289, 4.334e-6
-1.288, 4.248e-6
-1.287, 3.993e-6
-1.286, 2.896e-6
-1.285, 1.684e-6
-1.284, 6.075e-7
-1.283, 1.162e-7
-1.282, 1.044e-7
-1.281, -4.067e-7
-1.280, -1.784e-6
-1.279, -2.773e-6
-1.278, -3.160e-6
-1.277, -3.176e-6
-1.276, -3.825e-6
-1.275, -4.888e-6
-1.274, -5.680e-6
-1.273, -6.117e-6
-1.272, -5.838e-6
-1.271, -6.479e-6
-1.270, -7.591e-6
-1.269, -8.431e-6
-1.268, -8.557e-6
-1.267, -8.457e-6
-1.266, -8.818e-6
-1.265, -9.870e-6
-1.264, -1.054e-5
-1.263, -1.074e-5
-1.262, -1.053e-5
-1.261, -1.088e-5
-1.260, -1.161e-5
-1.259, -1.253e-5
-1.258, -1.242e-5
-1.257, -1.227e-5
-1.256, -1.239e-5
-1.255, -1.336e-5
-1.254, -1.419e-5
-1.253, -1.422e-5
-1.252, -1.385e-5
-1.251, -1.408e-5
-1.250, -1.487e-5
-1.249, -1.578e-5
-1.248, -1.564e-5
-1.247, -1.529e-5
-1.246, -1.560e-5
-1.245, -1.620e-5
-1.244, -1.685e-5
-1.243, -1.706e-5
-1.242, -1.658e-5
-1.241, -1.669e-5
-1.240, -1.727e-5
-1.239, -1.807e-5
-1.238, -1.818e-5
-1.237, -1.762e-5
-1.236, -1.763e-5
-1.235, -1.843e-5
-1.234, -1.908e-5
-1.233, -1.906e-5
-1.232, -1.859e-5
-1.231, -1.853e-5
-1.230, -1.922e-5
-1.229, -2.019e-5
-1.228, -1.993e-5
-1.227, -1.964e-5
-1.226, -1.946e-5
-1.225, -2.012e-5
-1.224, -2.070e-5
-1.223, -2.072e-5
-1.222, -2.030e-5
-1.221, -1.996e-5
-1.220, -2.068e-5
-1.219, -2.139e-5
-1.218, -2.132e-5
-1.217, -2.095e-5
-1.216, -2.068e-5
-1.215, -2.123e-5
-1.214, -2.191e-5
-1.213, -2.189e-5
-1.212, -2.140e-5
-1.211, -2.115e-5
-1.210, -2.175e-5
-1.209, -2.243e-5
-1.208, -2.232e-5
-1.207, -2.188e-5
-1.206, -2.182e-5
-1.205, -2.215e-5
-1.204, -2.280e-5
-1.203, -2.291e-5
-1.202, -2.241e-5
-1.201, -2.217e-5
-1.200, -2.261e-5
-1.199, -2.334e-5
-1.198, -2.337e-5
-1.197, -2.283e-5
-1.196, -2.253e-5
-1.195, -2.322e-5
-1.194, -2.373e-5
-1.193, -2.369e-5
-1.192, -2.304e-5
-1.191, -2.285e-5
-1.190, -2.348e-5
-1.189, -2.413e-5
-1.188, -2.406e-5
-1.187, -2.376e-5
-1.186, -2.339e-5
-1.185, -2.394e-5
-1.184, -2.457e-5
-1.183, -2.460e-5
-1.182, -2.427e-5
-1.181, -2.391e-5
-1.180, -2.432e-5
-1.179, -2.499e-5
-1.178, -2.520e-5
-1.177, -2.469e-5
-1.176, -2.433e-5
-1.175, -2.473e-5
-1.174, -2.548e-5
-1.173, -2.550e-5
-1.172, -2.503e-5
-1.171, -2.478e-5
-1.170, -2.509e-5
-1.169, -2.581e-5
-1.168, -2.587e-5
-1.167, -2.537e-5
-1.166, -2.513e-5
-1.165, -2.552e-5
-1.164, -2.619e-5
-1.163, -2.637e-5
-1.162, -2.576e-5
-1.161, -2.553e-5
-1.160, -2.586e-5
-1.159, -2.653e-5
-1.158, -2.691e-5
-1.157, -2.625e-5
-1.156, -2.592e-5
-1.155, -2.641e-5
-1.154, -2.697e-5
-1.153, -2.714e-5
-1.152, -2.665e-5
-1.151, -2.636e-5
-1.150, -2.655e-5
-1.149, -2.718e-5
-1.148, -2.743e-5
-1.147, -2.722e-5
-1.146, -2.670e-5
-1.145, -2.711e-5
-1.144, -2.777e-5
-1.143, -2.790e-5
-1.142, -2.762e-5
-1.141, -2.708e-5
-1.140, -2.756e-5
-1.139, -2.825e-5
-1.138, -2.835e-5
-1.137, -2.806e-5
-1.136, -2.753e-5
-1.135, -2.781e-5
-1.134, -2.865e-5
-1.133, -2.875e-5
-1.132, -2.835e-5
-1.131, -2.805e-5
-1.130, -2.820e-5
-1.129, -2.908e-5
-1.128, -2.905e-5
-1.127, -2.870e-5
-1.126, -2.847e-5
-1.125, -2.860e-5
-1.124, -2.940e-5
-1.123, -2.978e-5
-1.122, -2.927e-5
-1.121, -2.895e-5
-1.120, -2.913e-5
-1.119, -2.982e-5
-1.118, -3.021e-5
-1.117, -2.963e-5
-1.116, -2.929e-5
-1.115, -2.962e-5
-1.114, -3.015e-5
-1.113, -3.056e-5
-1.112, -3.008e-5
-1.111, -2.952e-5
-1.110, -2.983e-5
-1.109, -3.047e-5
-1.108, -3.085e-5
-1.107, -3.048e-5
-1.106, -2.990e-5
-1.105, -3.024e-5
-1.104, -3.082e-5
-1.103, -3.123e-5
-1.102, -3.084e-5
-1.101, -3.033e-5
-1.100, -3.047e-5
-1.099, -3.124e-5
-1.098, -3.151e-5
-1.097, -3.127e-5
-1.096, -3.061e-5
-1.095, -3.071e-5
-1.094, -3.157e-5
-1.093, -3.185e-5
-1.092, -3.141e-5
-1.091, -3.108e-5
-1.090, -3.108e-5
-1.089, -3.187e-5
-1.088, -3.214e-5
-1.087, -3.181e-5
-1.086, -3.132e-5
-1.085, -3.129e-5
-1.084, -3.206e-5
-1.083, -3.255e-5
-1.082, -3.203e-5
-1.081, -3.155e-5
-1.080, -3.164e-5
-1.079, -3.226e-5
-1.078, -3.280e-5
-1.077, -3.236e-5
-1.076, -3.194e-5
-1.075, -3.199e-5
-1.074, -3.245e-5
-1.073, -3.305e-5
-1.072, -3.258e-5
-1.071, -3.198e-5
-1.070, -3.216e-5
-1.069, -3.263e-5
-1.068, -3.317e-5
-1.067, -3.281e-5
-1.066, -3.213e-5
-1.065, -3.226e-5
-1.064, -3.277e-5
-1.063, -3.319e-5
-1.062, -3.298e-5
-1.061, -3.226e-5
-1.060, -3.233e-5
-1.059, -3.290e-5
-1.058, -3.337e-5
-1.057, -3.307e-5
-1.056, -3.244e-5
-1.055, -3.236e-5
-1.054, -3.312e-5
-1.053, -3.341e-5
-1.052, -3.311e-5
-1.051, -3.263e-5
-1.050, -3.250e-5
-1.049, -3.319e-5
-1.048, -3.355e-5
-1.047, -3.327e-5
-1.046, -3.273e-5
-1.045, -3.252e-5
-1.044, -3.313e-5
-1.043, -3.364e-5
-1.042, -3.334e-5
-1.041, -3.275e-5
-1.040, -3.270e-5
-1.039, -3.326e-5
-1.038, -3.379e-5
-1.037, -3.339e-5
-1.036, -3.277e-5
-1.035, -3.264e-5
-1.034, -3.308e-5
-1.033, -3.379e-5
-1.032, -3.356e-5
-1.031, -3.293e-5
-1.030, -3.301e-5
-1.029, -3.349e-5
-1.028, -3.402e-5
-1.027, -3.381e-5
-1.026, -3.313e-5
-1.025, -3.328e-5
-1.024, -3.373e-5
-1.023, -3.429e-5
-1.022, -3.406e-5
-1.021, -3.336e-5
-1.020, -3.336e-5
-1.019, -3.404e-5
-1.018, -3.451e-5
-1.017, -3.442e-5
-1.016, -3.379e-5
-1.015, -3.366e-5
-1.014, -3.437e-5
-1.013, -3.482e-5
-1.012, -3.469e-5
-1.011, -3.427e-5
-1.010, -3.414e-5
-1.009, -3.482e-5
-1.008, -3.529e-5
-1.007, -3.521e-5
-1.006, -3.479e-5
-1.005, -3.468e-5
-1.004, -3.533e-5
-1.003, -3.601e-5
-1.002, -3.582e-5
-1.001, -3.543e-5
