Aug. 5, 2024   18:34:39
Cyclic Voltammetry
File: c:/users/guazh/data/20240802_batch_500/2024-08-02-exp28\exp28-2024-08-05t18_11_24-h2koh\exp28_cv_sr_400mvs_efin_-1800mv.bin
Data Source:  Experiment
Instrument Model:  CHI760E
Header: CV ran at 400 mVs
Note: 

Init E (V) = -1
High E (V) = -1
Low E (V) = -1.8
Final E (V) = -1
Init P/N = N
Scan Rate (V/s) = 0.4
Segment = 3
Sample Interval (V) = 0.001
Quiet Time (sec) = 2
Sensitivity (A/V) = 0.01
Comp R (ohm) = 2.3

Results:

Channel 1:
Segment 1:

Segment 2:

Segment 3:

Potential/V, Current/A

-1.000, 3.239e-6
-1.001, 6.322e-6
-1.002, 9.405e-6
-1.003, 9.405e-6
-1.004, 1.249e-5
-1.005, 1.249e-5
-1.006, 9.405e-6
-1.007, 9.405e-6
-1.008, 1.249e-5
-1.009, 1.249e-5
-1.010, 1.249e-5
-1.011, 1.249e-5
-1.012, 1.249e-5
-1.013, 1.249e-5
-1.014, 1.249e-5
-1.015, 1.249e-5
-1.016, 1.249e-5
-1.017, 1.249e-5
-1.018, 1.249e-5
-1.019, 1.249e-5
-1.020, 1.249e-5
-1.021, 1.249e-5
-1.022, 1.249e-5
-1.023, 1.557e-5
-1.024, 1.557e-5
-1.025, 1.557e-5
-1.026, 1.249e-5
-1.027, 1.557e-5
-1.028, 1.249e-5
-1.029, 1.249e-5
-1.030, 1.557e-5
-1.031, 1.557e-5
-1.032, 1.557e-5
-1.033, 1.557e-5
-1.034, 1.557e-5
-1.035, 1.557e-5
-1.036, 1.557e-5
-1.037, 1.557e-5
-1.038, 1.557e-5
-1.039, 1.557e-5
-1.040, 1.557e-5
-1.041, 1.557e-5
-1.042, 1.557e-5
-1.043, 1.557e-5
-1.044, 1.557e-5
-1.045, 1.557e-5
-1.046, 1.557e-5
-1.047, 1.557e-5
-1.048, 1.557e-5
-1.049, 1.557e-5
-1.050, 1.557e-5
-1.051, 1.557e-5
-1.052, 1.557e-5
-1.053, 1.557e-5
-1.054, 1.557e-5
-1.055, 1.557e-5
-1.056, 1.557e-5
-1.057, 1.865e-5
-1.058, 1.557e-5
-1.059, 1.557e-5
-1.060, 1.557e-5
-1.061, 1.557e-5
-1.062, 1.557e-5
-1.063, 1.557e-5
-1.064, 1.865e-5
-1.065, 1.557e-5
-1.066, 1.557e-5
-1.067, 1.557e-5
-1.068, 1.557e-5
-1.069, 1.557e-5
-1.070, 1.557e-5
-1.071, 1.865e-5
-1.072, 1.557e-5
-1.073, 1.557e-5
-1.074, 1.557e-5
-1.075, 1.557e-5
-1.076, 1.865e-5
-1.077, 1.865e-5
-1.078, 1.865e-5
-1.079, 1.865e-5
-1.080, 1.865e-5
-1.081, 1.865e-5
-1.082, 1.557e-5
-1.083, 1.865e-5
-1.084, 1.865e-5
-1.085, 1.865e-5
-1.086, 1.865e-5
-1.087, 1.865e-5
-1.088, 1.865e-5
-1.089, 1.865e-5
-1.090, 1.865e-5
-1.091, 1.865e-5
-1.092, 1.865e-5
-1.093, 1.865e-5
-1.094, 1.865e-5
-1.095, 1.865e-5
-1.096, 1.865e-5
-1.097, 1.865e-5
-1.098, 1.865e-5
-1.099, 1.865e-5
-1.100, 1.865e-5
-1.101, 1.865e-5
-1.102, 1.865e-5
-1.103, 1.865e-5
-1.104, 1.865e-5
-1.105, 1.865e-5
-1.106, 1.865e-5
-1.107, 1.865e-5
-1.108, 1.865e-5
-1.109, 1.865e-5
-1.110, 1.865e-5
-1.111, 1.865e-5
-1.112, 1.865e-5
-1.113, 1.865e-5
-1.114, 1.865e-5
-1.115, 1.865e-5
-1.116, 1.865e-5
-1.117, 1.865e-5
-1.118, 1.865e-5
-1.119, 1.865e-5
-1.120, 1.865e-5
-1.121, 1.865e-5
-1.122, 1.865e-5
-1.123, 1.865e-5
-1.124, 1.865e-5
-1.125, 1.865e-5
-1.126, 1.865e-5
-1.127, 1.865e-5
-1.128, 1.865e-5
-1.129, 1.865e-5
-1.130, 1.865e-5
-1.131, 1.865e-5
-1.132, 1.865e-5
-1.133, 1.865e-5
-1.134, 1.865e-5
-1.135, 1.865e-5
-1.136, 1.865e-5
-1.137, 2.174e-5
-1.138, 1.865e-5
-1.139, 1.865e-5
-1.140, 1.865e-5
-1.141, 1.865e-5
-1.142, 1.865e-5
-1.143, 1.865e-5
-1.144, 2.174e-5
-1.145, 2.174e-5
-1.146, 1.865e-5
-1.147, 2.174e-5
-1.148, 1.865e-5
-1.149, 1.865e-5
-1.150, 2.174e-5
-1.151, 2.174e-5
-1.152, 1.865e-5
-1.153, 2.174e-5
-1.154, 1.865e-5
-1.155, 1.865e-5
-1.156, 1.865e-5
-1.157, 2.174e-5
-1.158, 2.174e-5
-1.159, 2.174e-5
-1.160, 1.865e-5
-1.161, 2.174e-5
-1.162, 1.865e-5
-1.163, 2.174e-5
-1.164, 2.174e-5
-1.165, 2.174e-5
-1.166, 2.174e-5
-1.167, 2.174e-5
-1.168, 2.174e-5
-1.169, 2.174e-5
-1.170, 2.174e-5
-1.171, 2.174e-5
-1.172, 2.174e-5
-1.173, 2.174e-5
-1.174, 2.174e-5
-1.175, 2.174e-5
-1.176, 2.174e-5
-1.177, 2.174e-5
-1.178, 2.174e-5
-1.179, 2.174e-5
-1.180, 2.174e-5
-1.181, 2.174e-5
-1.182, 2.174e-5
-1.183, 2.174e-5
-1.184, 2.174e-5
-1.185, 2.174e-5
-1.186, 2.174e-5
-1.187, 2.174e-5
-1.188, 2.174e-5
-1.189, 2.174e-5
-1.190, 2.174e-5
-1.191, 2.174e-5
-1.192, 2.174e-5
-1.193, 2.174e-5
-1.194, 2.174e-5
-1.195, 2.174e-5
-1.196, 2.174e-5
-1.197, 2.174e-5
-1.198, 2.482e-5
-1.199, 2.174e-5
-1.200, 2.174e-5
-1.201, 2.174e-5
-1.202, 2.174e-5
-1.203, 2.174e-5
-1.204, 2.482e-5
-1.205, 2.482e-5
-1.206, 2.482e-5
-1.207, 2.482e-5
-1.208, 2.174e-5
-1.209, 2.174e-5
-1.210, 2.482e-5
-1.211, 2.482e-5
-1.212, 2.482e-5
-1.213, 2.482e-5
-1.214, 2.482e-5
-1.215, 2.174e-5
-1.216, 2.482e-5
-1.217, 2.482e-5
-1.218, 2.482e-5
-1.219, 2.482e-5
-1.220, 2.482e-5
-1.221, 2.482e-5
-1.222, 2.482e-5
-1.223, 2.482e-5
-1.224, 2.482e-5
-1.225, 2.482e-5
-1.226, 2.482e-5
-1.227, 2.482e-5
-1.228, 2.482e-5
-1.229, 2.482e-5
-1.230, 2.790e-5
-1.231, 2.482e-5
-1.232, 2.482e-5
-1.233, 2.482e-5
-1.234, 2.482e-5
-1.235, 2.482e-5
-1.236, 2.790e-5
-1.237, 2.790e-5
-1.238, 2.790e-5
-1.239, 2.790e-5
-1.240, 2.790e-5
-1.241, 2.790e-5
-1.242, 2.790e-5
-1.243, 2.790e-5
-1.244, 2.790e-5
-1.245, 2.790e-5
-1.246, 2.790e-5
-1.247, 2.790e-5
-1.248, 2.790e-5
-1.249, 2.790e-5
-1.250, 3.099e-5
-1.251, 3.099e-5
-1.252, 3.099e-5
-1.253, 3.099e-5
-1.254, 3.099e-5
-1.255, 3.099e-5
-1.256, 3.099e-5
-1.257, 3.099e-5
-1.258, 3.099e-5
-1.259, 3.099e-5
-1.260, 3.099e-5
-1.261, 3.099e-5
-1.262, 3.099e-5
-1.263, 3.099e-5
-1.264, 3.407e-5
-1.265, 3.407e-5
-1.266, 3.407e-5
-1.267, 3.407e-5
-1.268, 3.407e-5
-1.269, 3.407e-5
-1.270, 3.407e-5
-1.271, 3.407e-5
-1.272, 3.407e-5
-1.273, 3.407e-5
-1.274, 3.407e-5
-1.275, 3.407e-5
-1.276, 3.407e-5
-1.277, 3.715e-5
-1.278, 3.715e-5
-1.279, 3.715e-5
-1.280, 3.715e-5
-1.281, 3.715e-5
-1.282, 3.715e-5
-1.283, 3.715e-5
-1.284, 4.024e-5
-1.285, 4.024e-5
-1.286, 4.024e-5
-1.287, 4.024e-5
-1.288, 4.024e-5
-1.289, 4.024e-5
-1.290, 4.332e-5
-1.291, 4.332e-5
-1.292, 4.332e-5
-1.293, 4.332e-5
-1.294, 4.332e-5
-1.295, 4.332e-5
-1.296, 4.332e-5
-1.297, 4.640e-5
-1.298, 4.640e-5
-1.299, 4.640e-5
-1.300, 4.640e-5
-1.301, 4.640e-5
-1.302, 4.640e-5
-1.303, 4.640e-5
-1.304, 4.949e-5
-1.305, 4.949e-5
-1.306, 4.949e-5
-1.307, 4.949e-5
-1.308, 4.949e-5
-1.309, 4.949e-5
-1.310, 5.257e-5
-1.311, 5.257e-5
-1.312, 5.257e-5
-1.313, 5.257e-5
-1.314, 5.257e-5
-1.315, 5.257e-5
-1.316, 5.565e-5
-1.317, 5.565e-5
-1.318, 5.873e-5
-1.319, 5.873e-5
-1.320, 5.873e-5
-1.321, 5.873e-5
-1.322, 5.873e-5
-1.323, 6.182e-5
-1.324, 6.182e-5
-1.325, 6.182e-5
-1.326, 6.182e-5
-1.327, 6.182e-5
-1.328, 6.182e-5
-1.329, 6.490e-5
-1.330, 6.490e-5
-1.331, 6.798e-5
-1.332, 6.798e-5
-1.333, 6.798e-5
-1.334, 6.798e-5
-1.335, 6.798e-5
-1.336, 7.107e-5
-1.337, 7.107e-5
-1.338, 7.107e-5
-1.339, 7.415e-5
-1.340, 7.415e-5
-1.341, 7.415e-5
-1.342, 7.415e-5
-1.343, 7.723e-5
-1.344, 7.723e-5
-1.345, 8.032e-5
-1.346, 8.032e-5
-1.347, 8.032e-5
-1.348, 8.032e-5
-1.349, 8.340e-5
-1.350, 8.340e-5
-1.351, 8.648e-5
-1.352, 8.648e-5
-1.353, 8.648e-5
-1.354, 8.648e-5
-1.355, 8.957e-5
-1.356, 8.957e-5
-1.357, 9.265e-5
-1.358, 9.265e-5
-1.359, 9.265e-5
-1.360, 9.573e-5
-1.361, 9.573e-5
-1.362, 9.573e-5
-1.363, 9.882e-5
-1.364, 1.019e-4
-1.365, 1.019e-4
-1.366, 1.019e-4
-1.367, 1.050e-4
-1.368, 1.050e-4
-1.369, 1.050e-4
-1.370, 1.081e-4
-1.371, 1.081e-4
-1.372, 1.111e-4
-1.373, 1.111e-4
-1.374, 1.142e-4
-1.375, 1.142e-4
-1.376, 1.142e-4
-1.377, 1.173e-4
-1.378, 1.204e-4
-1.379, 1.204e-4
-1.380, 1.235e-4
-1.381, 1.235e-4
-1.382, 1.235e-4
-1.383, 1.266e-4
-1.384, 1.296e-4
-1.385, 1.296e-4
-1.386, 1.296e-4
-1.387, 1.327e-4
-1.388, 1.327e-4
-1.389, 1.358e-4
-1.390, 1.389e-4
-1.391, 1.389e-4
-1.392, 1.420e-4
-1.393, 1.420e-4
-1.394, 1.420e-4
-1.395, 1.451e-4
-1.396, 1.481e-4
-1.397, 1.512e-4
-1.398, 1.512e-4
-1.399, 1.543e-4
-1.400, 1.543e-4
-1.401, 1.543e-4
-1.402, 1.574e-4
-1.403, 1.605e-4
-1.404, 1.636e-4
-1.405, 1.636e-4
-1.406, 1.666e-4
-1.407, 1.666e-4
-1.408, 1.666e-4
-1.409, 1.697e-4
-1.410, 1.728e-4
-1.411, 1.759e-4
-1.412, 1.759e-4
-1.413, 1.759e-4
-1.414, 1.790e-4
-1.415, 1.790e-4
-1.416, 1.821e-4
-1.417, 1.851e-4
-1.418, 1.851e-4
-1.419, 1.882e-4
-1.420, 1.882e-4
-1.421, 1.913e-4
-1.422, 1.944e-4
-1.423, 1.944e-4
-1.424, 1.975e-4
-1.425, 2.006e-4
-1.426, 2.006e-4
-1.427, 2.036e-4
-1.428, 2.036e-4
-1.429, 2.067e-4
-1.430, 2.067e-4
-1.431, 2.098e-4
-1.432, 2.129e-4
-1.433, 2.129e-4
-1.434, 2.160e-4
-1.435, 2.160e-4
-1.436, 2.191e-4
-1.437, 2.221e-4
-1.438, 2.221e-4
-1.439, 2.252e-4
-1.440, 2.252e-4
-1.441, 2.283e-4
-1.442, 2.283e-4
-1.443, 2.314e-4
-1.444, 2.345e-4
-1.445, 2.345e-4
-1.446, 2.376e-4
-1.447, 2.376e-4
-1.448, 2.406e-4
-1.449, 2.406e-4
-1.450, 2.437e-4
-1.451, 2.468e-4
-1.452, 2.468e-4
-1.453, 2.499e-4
-1.454, 2.499e-4
-1.455, 2.530e-4
-1.456, 2.530e-4
-1.457, 2.561e-4
-1.458, 2.591e-4
-1.459, 2.591e-4
-1.460, 2.622e-4
-1.461, 2.622e-4
-1.462, 2.653e-4
-1.463, 2.653e-4
-1.464, 2.715e-4
-1.465, 2.715e-4
-1.466, 2.715e-4
-1.467, 2.746e-4
-1.468, 2.776e-4
-1.469, 2.776e-4
-1.470, 2.807e-4
-1.471, 2.807e-4
-1.472, 2.838e-4
-1.473, 2.838e-4
-1.474, 2.869e-4
-1.475, 2.869e-4
-1.476, 2.900e-4
-1.477, 2.931e-4
-1.478, 2.931e-4
-1.479, 2.961e-4
-1.480, 2.961e-4
-1.481, 2.992e-4
-1.482, 2.992e-4
-1.483, 3.023e-4
-1.484, 3.054e-4
-1.485, 3.054e-4
-1.486, 3.085e-4
-1.487, 3.115e-4
-1.488, 3.115e-4
-1.489, 3.115e-4
-1.490, 3.146e-4
-1.491, 3.177e-4
-1.492, 3.208e-4
-1.493, 3.208e-4
-1.494, 3.239e-4
-1.495, 3.239e-4
-1.496, 3.270e-4
-1.497, 3.300e-4
-1.498, 3.331e-4
-1.499, 3.331e-4
-1.500, 3.362e-4
-1.501, 3.362e-4
-1.502, 3.362e-4
-1.503, 3.393e-4
-1.504, 3.424e-4
-1.505, 3.455e-4
-1.506, 3.455e-4
-1.507, 3.485e-4
-1.508, 3.485e-4
-1.509, 3.516e-4
-1.510, 3.516e-4
-1.511, 3.547e-4
-1.512, 3.578e-4
-1.513, 3.609e-4
-1.514, 3.609e-4
-1.515, 3.640e-4
-1.516, 3.640e-4
-1.517, 3.670e-4
-1.518, 3.701e-4
-1.519, 3.701e-4
-1.520, 3.732e-4
-1.521, 3.732e-4
-1.522, 3.763e-4
-1.523, 3.794e-4
-1.524, 3.825e-4
-1.525, 3.825e-4
-1.526, 3.855e-4
-1.527, 3.886e-4
-1.528, 3.886e-4
-1.529, 3.917e-4
-1.530, 3.917e-4
-1.531, 3.948e-4
-1.532, 3.948e-4
-1.533, 3.979e-4
-1.534, 4.010e-4
-1.535, 4.010e-4
-1.536, 4.040e-4
-1.537, 4.071e-4
-1.538, 4.102e-4
-1.539, 4.102e-4
-1.540, 4.133e-4
-1.541, 4.164e-4
-1.542, 4.164e-4
-1.543, 4.195e-4
-1.544, 4.225e-4
-1.545, 4.256e-4
-1.546, 4.256e-4
-1.547, 4.287e-4
-1.548, 4.318e-4
-1.549, 4.318e-4
-1.550, 4.349e-4
-1.551, 4.380e-4
-1.552, 4.410e-4
-1.553, 4.410e-4
-1.554, 4.441e-4
-1.555, 4.441e-4
-1.556, 4.503e-4
-1.557, 4.503e-4
-1.558, 4.534e-4
-1.559, 4.565e-4
-1.560, 4.565e-4
-1.561, 4.595e-4
-1.562, 4.626e-4
-1.563, 4.657e-4
-1.564, 4.688e-4
-1.565, 4.719e-4
-1.566, 4.750e-4
-1.567, 4.750e-4
-1.568, 4.780e-4
-1.569, 4.811e-4
-1.570, 4.842e-4
-1.571, 4.873e-4
-1.572, 4.904e-4
-1.573, 4.904e-4
-1.574, 4.935e-4
-1.575, 4.965e-4
-1.576, 4.996e-4
-1.577, 5.027e-4
-1.578, 5.058e-4
-1.579, 5.058e-4
-1.580, 5.089e-4
-1.581, 5.120e-4
-1.582, 5.150e-4
-1.583, 5.181e-4
-1.584, 5.243e-4
-1.585, 5.243e-4
-1.586, 5.274e-4
-1.587, 5.305e-4
-1.588, 5.335e-4
-1.589, 5.366e-4
-1.590, 5.397e-4
-1.591, 5.428e-4
-1.592, 5.459e-4
-1.593, 5.489e-4
-1.594, 5.520e-4
-1.595, 5.520e-4
-1.596, 5.582e-4
-1.597, 5.613e-4
-1.598, 5.644e-4
-1.599, 5.674e-4
-1.600, 5.705e-4
-1.601, 5.736e-4
-1.602, 5.767e-4
-1.603, 5.829e-4
-1.604, 5.859e-4
-1.605, 5.890e-4
-1.606, 5.921e-4
-1.607, 5.952e-4
-1.608, 5.983e-4
-1.609, 6.014e-4
-1.610, 6.075e-4
-1.611, 6.106e-4
-1.612, 6.137e-4
-1.613, 6.199e-4
-1.614, 6.229e-4
-1.615, 6.260e-4
-1.616, 6.291e-4
-1.617, 6.353e-4
-1.618, 6.384e-4
-1.619, 6.414e-4
-1.620, 6.476e-4
-1.621, 6.507e-4
-1.622, 6.538e-4
-1.623, 6.599e-4
-1.624, 6.630e-4
-1.625, 6.692e-4
-1.626, 6.723e-4
-1.627, 6.784e-4
-1.628, 6.846e-4
-1.629, 6.877e-4
-1.630, 6.939e-4
-1.631, 7.000e-4
-1.632, 7.031e-4
-1.633, 7.093e-4
-1.634, 7.154e-4
-1.635, 7.185e-4
-1.636, 7.247e-4
-1.637, 7.309e-4
-1.638, 7.370e-4
-1.639, 7.432e-4
-1.640, 7.494e-4
-1.641, 7.524e-4
-1.642, 7.586e-4
-1.643, 7.648e-4
-1.644, 7.709e-4
-1.645, 7.771e-4
-1.646, 7.833e-4
-1.647, 7.894e-4
-1.648, 7.956e-4
-1.649, 8.018e-4
-1.650, 8.048e-4
-1.651, 8.141e-4
-1.652, 8.233e-4
-1.653, 8.295e-4
-1.654, 8.357e-4
-1.655, 8.418e-4
-1.656, 8.511e-4
-1.657, 8.603e-4
-1.658, 8.665e-4
-1.659, 8.758e-4
-1.660, 8.788e-4
-1.661, 8.881e-4
-1.662, 8.973e-4
-1.663, 9.066e-4
-1.664, 9.128e-4
-1.665, 9.220e-4
-1.666, 9.313e-4
-1.667, 9.374e-4
-1.668, 9.467e-4
-1.669, 9.528e-4
-1.670, 9.621e-4
-1.671, 9.744e-4
-1.672, 9.837e-4
-1.673, 9.929e-4
-1.674, 1.002e-3
-1.675, 1.008e-3
-1.676, 1.021e-3
-1.677, 1.030e-3
-1.678, 1.039e-3
-1.679, 1.051e-3
-1.680, 1.061e-3
-1.681, 1.070e-3
-1.682, 1.079e-3
-1.683, 1.092e-3
-1.684, 1.104e-3
-1.685, 1.119e-3
-1.686, 1.129e-3
-1.687, 1.138e-3
-1.688, 1.147e-3
-1.689, 1.159e-3
-1.690, 1.175e-3
-1.691, 1.187e-3
-1.692, 1.199e-3
-1.693, 1.212e-3
-1.694, 1.224e-3
-1.695, 1.236e-3
-1.696, 1.249e-3
-1.697, 1.267e-3
-1.698, 1.280e-3
-1.699, 1.295e-3
-1.700, 1.310e-3
-1.701, 1.323e-3
-1.702, 1.335e-3
-1.703, 1.354e-3
-1.704, 1.369e-3
-1.705, 1.384e-3
-1.706, 1.400e-3
-1.707, 1.415e-3
-1.708, 1.431e-3
-1.709, 1.446e-3
-1.710, 1.465e-3
-1.711, 1.483e-3
-1.712, 1.499e-3
-1.713, 1.514e-3
-1.714, 1.532e-3
-1.715, 1.551e-3
-1.716, 1.569e-3
-1.717, 1.588e-3
-1.718, 1.606e-3
-1.719, 1.625e-3
-1.720, 1.643e-3
-1.721, 1.662e-3
-1.722, 1.684e-3
-1.723, 1.702e-3
-1.724, 1.724e-3
-1.725, 1.748e-3
-1.726, 1.770e-3
-1.727, 1.791e-3
-1.728, 1.813e-3
-1.729, 1.838e-3
-1.730, 1.859e-3
-1.731, 1.881e-3
-1.732, 1.906e-3
-1.733, 1.930e-3
-1.734, 1.955e-3
-1.735, 1.976e-3
-1.736, 2.001e-3
-1.737, 2.029e-3
-1.738, 2.050e-3
-1.739, 2.075e-3
-1.740, 2.103e-3
-1.741, 2.128e-3
-1.742, 2.152e-3
-1.743, 2.180e-3
-1.744, 2.208e-3
-1.745, 2.238e-3
-1.746, 2.266e-3
-1.747, 2.291e-3
-1.748, 2.316e-3
-1.749, 2.346e-3
-1.750, 2.377e-3
-1.751, 2.408e-3
-1.752, 2.439e-3
-1.753, 2.467e-3
-1.754, 2.491e-3
-1.755, 2.525e-3
-1.756, 2.556e-3
-1.757, 2.590e-3
-1.758, 2.624e-3
-1.759, 2.658e-3
-1.760, 2.692e-3
-1.761, 2.698e-3
-1.762, 2.723e-3
-1.763, 2.760e-3
-1.764, 2.800e-3
-1.765, 2.834e-3
-1.766, 2.871e-3
-1.767, 2.904e-3
-1.768, 2.941e-3
-1.769, 2.982e-3
-1.770, 3.012e-3
-1.771, 3.056e-3
-1.772, 3.096e-3
-1.773, 3.130e-3
-1.774, 3.170e-3
-1.775, 3.213e-3
-1.776, 3.253e-3
-1.777, 3.293e-3
-1.778, 3.339e-3
-1.779, 3.376e-3
-1.780, 3.419e-3
-1.781, 3.462e-3
-1.782, 3.503e-3
-1.783, 3.549e-3
-1.784, 3.589e-3
-1.785, 3.638e-3
-1.786, 3.681e-3
-1.787, 3.725e-3
-1.788, 3.762e-3
-1.789, 3.811e-3
-1.790, 3.869e-3
-1.791, 3.919e-3
-1.792, 3.968e-3
-1.793, 4.014e-3
-1.794, 4.070e-3
-1.795, 4.119e-3
-1.796, 4.172e-3
-1.797, 4.230e-3
-1.798, 4.298e-3
-1.799, 4.372e-3
-1.800, 4.409e-3
-1.799, 4.394e-3
-1.798, 4.366e-3
-1.797, 4.338e-3
-1.796, 4.310e-3
-1.795, 4.289e-3
-1.794, 4.258e-3
-1.793, 4.221e-3
-1.792, 4.181e-3
-1.791, 4.156e-3
-1.790, 4.110e-3
-1.789, 4.076e-3
-1.788, 4.045e-3
-1.787, 4.008e-3
-1.786, 3.965e-3
-1.785, 3.934e-3
-1.784, 3.894e-3
-1.783, 3.854e-3
-1.782, 3.826e-3
-1.781, 3.789e-3
-1.780, 3.749e-3
-1.779, 3.715e-3
-1.778, 3.669e-3
-1.777, 3.644e-3
-1.776, 3.614e-3
-1.775, 3.580e-3
-1.774, 3.540e-3
-1.773, 3.506e-3
-1.772, 3.462e-3
-1.771, 3.432e-3
-1.770, 3.401e-3
-1.769, 3.373e-3
-1.768, 3.339e-3
-1.767, 3.299e-3
-1.766, 3.262e-3
-1.765, 3.228e-3
-1.764, 3.191e-3
-1.763, 3.151e-3
-1.762, 3.117e-3
-1.761, 3.083e-3
-1.760, 3.046e-3
-1.759, 3.009e-3
-1.758, 2.975e-3
-1.757, 2.945e-3
-1.756, 2.914e-3
-1.755, 2.886e-3
-1.754, 2.849e-3
-1.753, 2.812e-3
-1.752, 2.778e-3
-1.751, 2.741e-3
-1.750, 2.707e-3
-1.749, 2.676e-3
-1.748, 2.645e-3
-1.747, 2.615e-3
-1.746, 2.587e-3
-1.745, 2.556e-3
-1.744, 2.522e-3
-1.743, 2.494e-3
-1.742, 2.470e-3
-1.741, 2.445e-3
-1.740, 2.411e-3
-1.739, 2.380e-3
-1.738, 2.353e-3
-1.737, 2.328e-3
-1.736, 2.300e-3
-1.735, 2.269e-3
-1.734, 2.242e-3
-1.733, 2.214e-3
-1.732, 2.183e-3
-1.731, 2.161e-3
-1.730, 2.137e-3
-1.729, 2.112e-3
-1.728, 2.112e-3
-1.727, 2.087e-3
-1.726, 2.060e-3
-1.725, 2.029e-3
-1.724, 2.007e-3
-1.723, 1.989e-3
-1.722, 1.967e-3
-1.721, 1.939e-3
-1.720, 1.918e-3
-1.719, 1.887e-3
-1.718, 1.865e-3
-1.717, 1.838e-3
-1.716, 1.819e-3
-1.715, 1.798e-3
-1.714, 1.773e-3
-1.713, 1.751e-3
-1.712, 1.727e-3
-1.711, 1.705e-3
-1.710, 1.684e-3
-1.709, 1.665e-3
-1.708, 1.643e-3
-1.707, 1.619e-3
-1.706, 1.594e-3
-1.705, 1.576e-3
-1.704, 1.554e-3
-1.703, 1.536e-3
-1.702, 1.514e-3
-1.701, 1.492e-3
-1.700, 1.474e-3
-1.699, 1.452e-3
-1.698, 1.434e-3
-1.697, 1.415e-3
-1.696, 1.394e-3
-1.695, 1.378e-3
-1.694, 1.360e-3
-1.693, 1.341e-3
-1.692, 1.323e-3
-1.691, 1.301e-3
-1.690, 1.286e-3
-1.689, 1.267e-3
-1.688, 1.249e-3
-1.687, 1.230e-3
-1.686, 1.212e-3
-1.685, 1.196e-3
-1.684, 1.184e-3
-1.683, 1.172e-3
-1.682, 1.156e-3
-1.681, 1.141e-3
-1.680, 1.122e-3
-1.679, 1.107e-3
-1.678, 1.095e-3
-1.677, 1.079e-3
-1.676, 1.064e-3
-1.675, 1.051e-3
-1.674, 1.036e-3
-1.673, 1.021e-3
-1.672, 1.008e-3
-1.671, 9.929e-4
-1.670, 9.806e-4
-1.669, 9.683e-4
-1.668, 9.559e-4
-1.667, 9.405e-4
-1.666, 9.282e-4
-1.665, 9.158e-4
-1.664, 9.035e-4
-1.663, 8.912e-4
-1.662, 8.788e-4
-1.661, 8.665e-4
-1.660, 8.542e-4
-1.659, 8.418e-4
-1.658, 8.326e-4
-1.657, 8.203e-4
-1.656, 8.079e-4
-1.655, 7.956e-4
-1.654, 7.863e-4
-1.653, 7.740e-4
-1.652, 7.648e-4
-1.651, 7.555e-4
-1.650, 7.432e-4
-1.649, 7.339e-4
-1.648, 7.247e-4
-1.647, 7.154e-4
-1.646, 7.031e-4
-1.645, 6.939e-4
-1.644, 6.877e-4
-1.643, 6.784e-4
-1.642, 6.692e-4
-1.641, 6.599e-4
-1.640, 6.507e-4
-1.639, 6.414e-4
-1.638, 6.322e-4
-1.637, 6.229e-4
-1.636, 6.168e-4
-1.635, 6.106e-4
-1.634, 6.014e-4
-1.633, 5.921e-4
-1.632, 5.829e-4
-1.631, 5.767e-4
-1.630, 5.705e-4
-1.629, 5.644e-4
-1.628, 5.551e-4
-1.627, 5.489e-4
-1.626, 5.397e-4
-1.625, 5.335e-4
-1.624, 5.274e-4
-1.623, 5.212e-4
-1.622, 5.150e-4
-1.621, 5.089e-4
-1.620, 4.996e-4
-1.619, 4.935e-4
-1.618, 4.873e-4
-1.617, 4.811e-4
-1.616, 4.780e-4
-1.615, 4.719e-4
-1.614, 4.657e-4
-1.613, 4.595e-4
-1.612, 4.534e-4
-1.611, 4.472e-4
-1.610, 4.441e-4
-1.609, 4.380e-4
-1.608, 4.318e-4
-1.607, 4.256e-4
-1.606, 4.195e-4
-1.605, 4.164e-4
-1.604, 4.133e-4
-1.603, 4.071e-4
-1.602, 4.040e-4
-1.601, 3.979e-4
-1.600, 3.917e-4
-1.599, 3.886e-4
-1.598, 3.825e-4
-1.597, 3.794e-4
-1.596, 3.763e-4
-1.595, 3.701e-4
-1.594, 3.670e-4
-1.593, 3.609e-4
-1.592, 3.578e-4
-1.591, 3.547e-4
-1.590, 3.485e-4
-1.589, 3.455e-4
-1.588, 3.424e-4
-1.587, 3.362e-4
-1.586, 3.331e-4
-1.585, 3.300e-4
-1.584, 3.270e-4
-1.583, 3.239e-4
-1.582, 3.177e-4
-1.581, 3.177e-4
-1.580, 3.115e-4
-1.579, 3.085e-4
-1.578, 3.054e-4
-1.577, 3.023e-4
-1.576, 2.992e-4
-1.575, 2.961e-4
-1.574, 2.931e-4
-1.573, 2.900e-4
-1.572, 2.869e-4
-1.571, 2.838e-4
-1.570, 2.807e-4
-1.569, 2.776e-4
-1.568, 2.746e-4
-1.567, 2.715e-4
-1.566, 2.715e-4
-1.565, 2.653e-4
-1.564, 2.653e-4
-1.563, 2.622e-4
-1.562, 2.591e-4
-1.561, 2.561e-4
-1.560, 2.561e-4
-1.559, 2.530e-4
-1.558, 2.468e-4
-1.557, 2.468e-4
-1.556, 2.437e-4
-1.555, 2.437e-4
-1.554, 2.406e-4
-1.553, 2.376e-4
-1.552, 2.376e-4
-1.551, 2.345e-4
-1.550, 2.314e-4
-1.549, 2.314e-4
-1.548, 2.283e-4
-1.547, 2.252e-4
-1.546, 2.221e-4
-1.545, 2.191e-4
-1.544, 2.191e-4
-1.543, 2.191e-4
-1.542, 2.160e-4
-1.541, 2.129e-4
-1.540, 2.098e-4
-1.539, 2.098e-4
-1.538, 2.067e-4
-1.537, 2.067e-4
-1.536, 2.036e-4
-1.535, 2.036e-4
-1.534, 2.006e-4
-1.533, 2.006e-4
-1.532, 1.975e-4
-1.531, 1.944e-4
-1.530, 1.944e-4
-1.529, 1.913e-4
-1.528, 1.913e-4
-1.527, 1.882e-4
-1.526, 1.851e-4
-1.525, 1.851e-4
-1.524, 1.821e-4
-1.523, 1.821e-4
-1.522, 1.790e-4
-1.521, 1.790e-4
-1.520, 1.759e-4
-1.519, 1.759e-4
-1.518, 1.728e-4
-1.517, 1.728e-4
-1.516, 1.728e-4
-1.515, 1.697e-4
-1.514, 1.666e-4
-1.513, 1.666e-4
-1.512, 1.636e-4
-1.511, 1.636e-4
-1.510, 1.636e-4
-1.509, 1.605e-4
-1.508, 1.605e-4
-1.507, 1.574e-4
-1.506, 1.574e-4
-1.505, 1.543e-4
-1.504, 1.543e-4
-1.503, 1.543e-4
-1.502, 1.512e-4
-1.501, 1.481e-4
-1.500, 1.481e-4
-1.499, 1.451e-4
-1.498, 1.451e-4
-1.497, 1.451e-4
-1.496, 1.420e-4
-1.495, 1.420e-4
-1.494, 1.389e-4
-1.493, 1.389e-4
-1.492, 1.358e-4
-1.491, 1.358e-4
-1.490, 1.358e-4
-1.489, 1.327e-4
-1.488, 1.327e-4
-1.487, 1.327e-4
-1.486, 1.296e-4
-1.485, 1.296e-4
-1.484, 1.266e-4
-1.483, 1.266e-4
-1.482, 1.266e-4
-1.481, 1.235e-4
-1.480, 1.235e-4
-1.479, 1.204e-4
-1.478, 1.204e-4
-1.477, 1.204e-4
-1.476, 1.173e-4
-1.475, 1.173e-4
-1.474, 1.142e-4
-1.473, 1.142e-4
-1.472, 1.142e-4
-1.471, 1.111e-4
-1.470, 1.111e-4
-1.469, 1.111e-4
-1.468, 1.081e-4
-1.467, 1.081e-4
-1.466, 1.050e-4
-1.465, 1.050e-4
-1.464, 1.019e-4
-1.463, 1.019e-4
-1.462, 1.019e-4
-1.461, 1.019e-4
-1.460, 9.882e-5
-1.459, 9.882e-5
-1.458, 9.573e-5
-1.457, 9.573e-5
-1.456, 9.573e-5
-1.455, 9.265e-5
-1.454, 9.265e-5
-1.453, 9.265e-5
-1.452, 8.957e-5
-1.451, 8.957e-5
-1.450, 8.957e-5
-1.449, 8.648e-5
-1.448, 8.648e-5
-1.447, 8.648e-5
-1.446, 8.340e-5
-1.445, 8.340e-5
-1.444, 8.340e-5
-1.443, 8.340e-5
-1.442, 8.032e-5
-1.441, 8.032e-5
-1.440, 7.723e-5
-1.439, 7.723e-5
-1.438, 7.415e-5
-1.437, 7.415e-5
-1.436, 7.415e-5
-1.435, 7.415e-5
-1.434, 7.415e-5
-1.433, 7.107e-5
-1.432, 6.798e-5
-1.431, 6.798e-5
-1.430, 6.798e-5
-1.429, 6.798e-5
-1.428, 6.798e-5
-1.427, 6.490e-5
-1.426, 6.490e-5
-1.425, 6.490e-5
-1.424, 6.182e-5
-1.423, 6.182e-5
-1.422, 6.182e-5
-1.421, 6.182e-5
-1.420, 5.873e-5
-1.419, 5.873e-5
-1.418, 5.565e-5
-1.417, 5.873e-5
-1.416, 5.565e-5
-1.415, 5.565e-5
-1.414, 5.257e-5
-1.413, 5.257e-5
-1.412, 5.257e-5
-1.411, 5.257e-5
-1.410, 4.949e-5
-1.409, 4.949e-5
-1.408, 4.949e-5
-1.407, 4.949e-5
-1.406, 4.640e-5
-1.405, 4.640e-5
-1.404, 4.640e-5
-1.403, 4.640e-5
-1.402, 4.640e-5
-1.401, 4.332e-5
-1.400, 4.332e-5
-1.399, 4.024e-5
-1.398, 4.024e-5
-1.397, 4.024e-5
-1.396, 4.024e-5
-1.395, 4.024e-5
-1.394, 3.715e-5
-1.393, 3.715e-5
-1.392, 3.715e-5
-1.391, 3.715e-5
-1.390, 3.407e-5
-1.389, 3.407e-5
-1.388, 3.407e-5
-1.387, 3.407e-5
-1.386, 3.407e-5
-1.385, 3.099e-5
-1.384, 3.099e-5
-1.383, 3.099e-5
-1.382, 3.099e-5
-1.381, 2.790e-5
-1.380, 2.790e-5
-1.379, 2.790e-5
-1.378, 2.790e-5
-1.377, 2.790e-5
-1.376, 2.790e-5
-1.375, 2.482e-5
-1.374, 2.482e-5
-1.373, 2.482e-5
-1.372, 2.174e-5
-1.371, 2.482e-5
-1.370, 2.174e-5
-1.369, 2.174e-5
-1.368, 2.174e-5
-1.367, 2.174e-5
-1.366, 1.865e-5
-1.365, 1.865e-5
-1.364, 1.865e-5
-1.363, 1.865e-5
-1.362, 1.865e-5
-1.361, 1.557e-5
-1.360, 1.865e-5
-1.359, 1.557e-5
-1.358, 1.557e-5
-1.357, 1.557e-5
-1.356, 1.557e-5
-1.355, 1.557e-5
-1.354, 1.557e-5
-1.353, 1.249e-5
-1.352, 1.249e-5
-1.351, 1.249e-5
-1.350, 1.249e-5
-1.349, 1.249e-5
-1.348, 1.249e-5
-1.347, 1.249e-5
-1.346, 9.405e-6
-1.345, 9.405e-6
-1.344, 9.405e-6
-1.343, 9.405e-6
-1.342, 9.405e-6
-1.341, 9.405e-6
-1.340, 6.322e-6
-1.339, 6.322e-6
-1.338, 6.322e-6
-1.337, 6.322e-6
-1.336, 6.322e-6
-1.335, 6.322e-6
-1.334, 6.322e-6
-1.333, 6.322e-6
-1.332, 3.239e-6
-1.331, 3.239e-6
-1.330, 3.239e-6
-1.329, 3.239e-6
-1.328, 3.239e-6
-1.327, 3.239e-6
-1.326, 3.239e-6
-1.325, 3.239e-6
-1.324, 3.239e-6
-1.323, 3.239e-6
-1.322, 3.239e-6
-1.321, 1.559e-7
-1.320, 1.559e-7
-1.319, 1.559e-7
-1.318, 1.559e-7
-1.317, 1.559e-7
-1.316, 1.559e-7
-1.315, 1.559e-7
-1.314, -2.927e-6
-1.313, 1.559e-7
-1.312, -2.927e-6
-1.311, 1.559e-7
-1.310, 1.559e-7
-1.309, -2.927e-6
-1.308, -2.927e-6
-1.307, -2.927e-6
-1.306, -2.927e-6
-1.305, -6.010e-6
-1.304, -2.927e-6
-1.303, -2.927e-6
-1.302, -6.010e-6
-1.301, -6.010e-6
-1.300, -6.010e-6
-1.299, -6.010e-6
-1.298, -6.010e-6
-1.297, -6.010e-6
-1.296, -2.927e-6
-1.295, -6.010e-6
-1.294, -6.010e-6
-1.293, -6.010e-6
-1.292, -9.093e-6
-1.291, -9.093e-6
-1.290, -6.010e-6
-1.289, -6.010e-6
-1.288, -6.010e-6
-1.287, -9.093e-6
-1.286, -9.093e-6
-1.285, -9.093e-6
-1.284, -9.093e-6
-1.283, -9.093e-6
-1.282, -9.093e-6
-1.281, -9.093e-6
-1.280, -9.093e-6
-1.279, -9.093e-6
-1.278, -9.093e-6
-1.277, -9.093e-6
-1.276, -9.093e-6
-1.275, -9.093e-6
-1.274, -9.093e-6
-1.273, -1.218e-5
-1.272, -1.218e-5
-1.271, -1.218e-5
-1.270, -9.093e-6
-1.269, -9.093e-6
-1.268, -1.218e-5
-1.267, -1.218e-5
-1.266, -1.218e-5
-1.265, -1.218e-5
-1.264, -1.218e-5
-1.263, -1.218e-5
-1.262, -1.218e-5
-1.261, -1.218e-5
-1.260, -1.218e-5
-1.259, -1.218e-5
-1.258, -1.218e-5
-1.257, -1.218e-5
-1.256, -1.218e-5
-1.255, -1.218e-5
-1.254, -1.218e-5
-1.253, -1.218e-5
-1.252, -1.218e-5
-1.251, -1.526e-5
-1.250, -1.218e-5
-1.249, -1.526e-5
-1.248, -1.526e-5
-1.247, -1.218e-5
-1.246, -1.526e-5
-1.245, -1.526e-5
-1.244, -1.526e-5
-1.243, -1.218e-5
-1.242, -1.218e-5
-1.241, -1.526e-5
-1.240, -1.526e-5
-1.239, -1.526e-5
-1.238, -1.526e-5
-1.237, -1.526e-5
-1.236, -1.218e-5
-1.235, -1.526e-5
-1.234, -1.526e-5
-1.233, -1.526e-5
-1.232, -1.526e-5
-1.231, -1.526e-5
-1.230, -1.526e-5
-1.229, -1.526e-5
-1.228, -1.526e-5
-1.227, -1.526e-5
-1.226, -1.526e-5
-1.225, -1.526e-5
-1.224, -1.526e-5
-1.223, -1.526e-5
-1.222, -1.526e-5
-1.221, -1.526e-5
-1.220, -1.526e-5
-1.219, -1.526e-5
-1.218, -1.526e-5
-1.217, -1.526e-5
-1.216, -1.526e-5
-1.215, -1.526e-5
-1.214, -1.526e-5
-1.213, -1.526e-5
-1.212, -1.834e-5
-1.211, -1.834e-5
-1.210, -1.526e-5
-1.209, -1.526e-5
-1.208, -1.834e-5
-1.207, -1.834e-5
-1.206, -1.834e-5
-1.205, -1.526e-5
-1.204, -1.526e-5
-1.203, -1.834e-5
-1.202, -1.834e-5
-1.201, -1.834e-5
-1.200, -1.834e-5
-1.199, -1.834e-5
-1.198, -1.834e-5
-1.197, -1.834e-5
-1.196, -1.834e-5
-1.195, -1.834e-5
-1.194, -1.834e-5
-1.193, -1.834e-5
-1.192, -1.834e-5
-1.191, -1.834e-5
-1.190, -1.834e-5
-1.189, -1.834e-5
-1.188, -1.834e-5
-1.187, -1.834e-5
-1.186, -1.834e-5
-1.185, -1.834e-5
-1.184, -1.834e-5
-1.183, -1.834e-5
-1.182, -1.834e-5
-1.181, -1.834e-5
-1.180, -1.834e-5
-1.179, -1.834e-5
-1.178, -1.834e-5
-1.177, -1.834e-5
-1.176, -1.834e-5
-1.175, -1.834e-5
-1.174, -1.834e-5
-1.173, -1.834e-5
-1.172, -1.834e-5
-1.171, -1.834e-5
-1.170, -1.834e-5
-1.169, -1.834e-5
-1.168, -1.834e-5
-1.167, -1.834e-5
-1.166, -1.834e-5
-1.165, -1.834e-5
-1.164, -1.834e-5
-1.163, -1.834e-5
-1.162, -1.834e-5
-1.161, -1.834e-5
-1.160, -1.834e-5
-1.159, -1.834e-5
-1.158, -2.143e-5
-1.157, -1.834e-5
-1.156, -1.834e-5
-1.155, -1.834e-5
-1.154, -2.143e-5
-1.153, -1.834e-5
-1.152, -2.143e-5
-1.151, -1.834e-5
-1.150, -1.834e-5
-1.149, -1.834e-5
-1.148, -2.143e-5
-1.147, -2.143e-5
-1.146, -2.143e-5
-1.145, -2.143e-5
-1.144, -1.834e-5
-1.143, -1.834e-5
-1.142, -1.834e-5
-1.141, -2.143e-5
-1.140, -1.834e-5
-1.139, -2.143e-5
-1.138, -2.143e-5
-1.137, -2.143e-5
-1.136, -1.834e-5
-1.135, -2.143e-5
-1.134, -2.143e-5
-1.133, -2.143e-5
-1.132, -2.143e-5
-1.131, -2.143e-5
-1.130, -2.143e-5
-1.129, -2.143e-5
-1.128, -2.143e-5
-1.127, -2.143e-5
-1.126, -2.143e-5
-1.125, -2.143e-5
-1.124, -2.143e-5
-1.123, -2.143e-5
-1.122, -2.143e-5
-1.121, -2.143e-5
-1.120, -2.143e-5
-1.119, -2.143e-5
-1.118, -2.143e-5
-1.117, -2.143e-5
-1.116, -2.143e-5
-1.115, -2.143e-5
-1.114, -2.143e-5
-1.113, -2.143e-5
-1.112, -2.143e-5
-1.111, -2.143e-5
-1.110, -2.143e-5
-1.109, -2.143e-5
-1.108, -2.143e-5
-1.107, -2.143e-5
-1.106, -2.143e-5
-1.105, -2.143e-5
-1.104, -2.143e-5
-1.103, -2.143e-5
-1.102, -2.143e-5
-1.101, -2.143e-5
-1.100, -2.143e-5
-1.099, -2.143e-5
-1.098, -2.451e-5
-1.097, -2.143e-5
-1.096, -2.451e-5
-1.095, -2.143e-5
-1.094, -2.451e-5
-1.093, -2.451e-5
-1.092, -2.451e-5
-1.091, -2.451e-5
-1.090, -2.143e-5
-1.089, -2.451e-5
-1.088, -2.451e-5
-1.087, -2.451e-5
-1.086, -2.451e-5
-1.085, -2.451e-5
-1.084, -2.451e-5
-1.083, -2.143e-5
-1.082, -2.451e-5
-1.081, -2.451e-5
-1.080, -2.451e-5
-1.079, -2.451e-5
-1.078, -2.451e-5
-1.077, -2.451e-5
-1.076, -2.451e-5
-1.075, -2.451e-5
-1.074, -2.451e-5
-1.073, -2.451e-5
-1.072, -2.451e-5
-1.071, -2.451e-5
-1.070, -2.451e-5
-1.069, -2.451e-5
-1.068, -2.451e-5
-1.067, -2.451e-5
-1.066, -2.759e-5
-1.065, -2.451e-5
-1.064, -2.451e-5
-1.063, -2.451e-5
-1.062, -2.759e-5
-1.061, -2.451e-5
-1.060, -2.451e-5
-1.059, -2.759e-5
-1.058, -2.451e-5
-1.057, -2.759e-5
-1.056, -2.451e-5
-1.055, -2.759e-5
-1.054, -2.759e-5
-1.053, -2.759e-5
-1.052, -2.759e-5
-1.051, -2.759e-5
-1.050, -2.759e-5
-1.049, -2.759e-5
-1.048, -2.759e-5
-1.047, -2.759e-5
-1.046, -2.759e-5
-1.045, -2.759e-5
-1.044, -2.759e-5
-1.043, -2.759e-5
-1.042, -2.759e-5
-1.041, -2.759e-5
-1.040, -2.759e-5
-1.039, -2.759e-5
-1.038, -2.759e-5
-1.037, -2.759e-5
-1.036, -2.759e-5
-1.035, -2.759e-5
-1.034, -2.759e-5
-1.033, -2.759e-5
-1.032, -3.068e-5
-1.031, -3.068e-5
-1.030, -2.759e-5
-1.029, -3.068e-5
-1.028, -2.759e-5
-1.027, -3.068e-5
-1.026, -3.068e-5
-1.025, -3.068e-5
-1.024, -3.068e-5
-1.023, -3.068e-5
-1.022, -3.068e-5
-1.021, -3.068e-5
-1.020, -3.068e-5
-1.019, -3.068e-5
-1.018, -3.068e-5
-1.017, -3.068e-5
-1.016, -3.068e-5
-1.015, -3.068e-5
-1.014, -3.068e-5
-1.013, -3.068e-5
-1.012, -3.068e-5
-1.011, -3.376e-5
-1.010, -3.068e-5
-1.009, -3.376e-5
-1.008, -3.376e-5
-1.007, -3.376e-5
-1.006, -3.376e-5
-1.005, -3.376e-5
-1.004, -3.376e-5
-1.003, -3.068e-5
-1.002, -3.376e-5
-1.001, -3.376e-5
