Mar. 7, 2025   06:15:07
Linear Sweep Voltammetry
File: c:/users/guazh/data/banditlqround7_x0exp169_r20_3/2025-03-03-exp895\1acid_2ac-2025-03-07t06_11_55-lsvinphos\1acid_2ac_lsv_50mvs_efin_-2300mv.bin
Data Source:  Experiment
Instrument Model:  CHI760E
Header: LSV ran at 50 mVs with Efin at -2300mV
Note: 

Init E (V) = -0.6
Final E (V) = -2.3
Scan Rate (V/s) = 0.05
Sample Interval (V) = 0.001
Quiet Time (sec) = 2
Sensitivity (A/V) = 1e-4
Comp R (ohm) = 9.4

Results:

Channel 1:
Ep = -1.562V
ip = 4.897e-4A
Ah = 6.210e-4C

Potential/V, Current/A

-0.600, 2.653e-5
-0.601, 2.756e-5
-0.602, 2.821e-5
-0.603, 2.857e-5
-0.604, 2.873e-5
-0.605, 2.886e-5
-0.606, 2.896e-5
-0.607, 2.901e-5
-0.608, 2.906e-5
-0.609, 2.914e-5
-0.610, 2.918e-5
-0.611, 2.923e-5
-0.612, 2.926e-5
-0.613, 2.928e-5
-0.614, 2.933e-5
-0.615, 2.934e-5
-0.616, 2.936e-5
-0.617, 2.935e-5
-0.618, 2.940e-5
-0.619, 2.946e-5
-0.620, 2.950e-5
-0.621, 2.951e-5
-0.622, 2.949e-5
-0.623, 2.951e-5
-0.624, 2.951e-5
-0.625, 2.952e-5
-0.626, 2.954e-5
-0.627, 2.957e-5
-0.628, 2.959e-5
-0.629, 2.961e-5
-0.630, 2.961e-5
-0.631, 2.965e-5
-0.632, 2.964e-5
-0.633, 2.963e-5
-0.634, 2.968e-5
-0.635, 2.978e-5
-0.636, 2.990e-5
-0.637, 3.002e-5
-0.638, 3.015e-5
-0.639, 3.022e-5
-0.640, 3.027e-5
-0.641, 3.032e-5
-0.642, 3.043e-5
-0.643, 3.050e-5
-0.644, 3.052e-5
-0.645, 3.048e-5
-0.646, 3.047e-5
-0.647, 3.048e-5
-0.648, 3.056e-5
-0.649, 3.060e-5
-0.650, 3.063e-5
-0.651, 3.068e-5
-0.652, 3.072e-5
-0.653, 3.077e-5
-0.654, 3.085e-5
-0.655, 3.090e-5
-0.656, 3.096e-5
-0.657, 3.092e-5
-0.658, 3.102e-5
-0.659, 3.113e-5
-0.660, 3.120e-5
-0.661, 3.129e-5
-0.662, 3.139e-5
-0.663, 3.150e-5
-0.664, 3.163e-5
-0.665, 3.169e-5
-0.666, 3.180e-5
-0.667, 3.191e-5
-0.668, 3.199e-5
-0.669, 3.207e-5
-0.670, 3.214e-5
-0.671, 3.226e-5
-0.672, 3.241e-5
-0.673, 3.254e-5
-0.674, 3.269e-5
-0.675, 3.284e-5
-0.676, 3.293e-5
-0.677, 3.304e-5
-0.678, 3.317e-5
-0.679, 3.334e-5
-0.680, 3.348e-5
-0.681, 3.361e-5
-0.682, 3.380e-5
-0.683, 3.395e-5
-0.684, 3.409e-5
-0.685, 3.423e-5
-0.686, 3.440e-5
-0.687, 3.452e-5
-0.688, 3.473e-5
-0.689, 3.489e-5
-0.690, 3.511e-5
-0.691, 3.529e-5
-0.692, 3.546e-5
-0.693, 3.566e-5
-0.694, 3.590e-5
-0.695, 3.609e-5
-0.696, 3.624e-5
-0.697, 3.642e-5
-0.698, 3.661e-5
-0.699, 3.682e-5
-0.700, 3.704e-5
-0.701, 3.725e-5
-0.702, 3.745e-5
-0.703, 3.759e-5
-0.704, 3.781e-5
-0.705, 3.808e-5
-0.706, 3.830e-5
-0.707, 3.848e-5
-0.708, 3.871e-5
-0.709, 3.892e-5
-0.710, 3.919e-5
-0.711, 3.945e-5
-0.712, 3.971e-5
-0.713, 3.997e-5
-0.714, 4.021e-5
-0.715, 4.047e-5
-0.716, 4.068e-5
-0.717, 4.089e-5
-0.718, 4.118e-5
-0.719, 4.144e-5
-0.720, 4.165e-5
-0.721, 4.185e-5
-0.722, 4.203e-5
-0.723, 4.223e-5
-0.724, 4.251e-5
-0.725, 4.268e-5
-0.726, 4.288e-5
-0.727, 4.307e-5
-0.728, 4.330e-5
-0.729, 4.348e-5
-0.730, 4.369e-5
-0.731, 4.395e-5
-0.732, 4.413e-5
-0.733, 4.435e-5
-0.734, 4.460e-5
-0.735, 4.488e-5
-0.736, 4.516e-5
-0.737, 4.538e-5
-0.738, 4.566e-5
-0.739, 4.590e-5
-0.740, 4.613e-5
-0.741, 4.634e-5
-0.742, 4.658e-5
-0.743, 4.679e-5
-0.744, 4.702e-5
-0.745, 4.730e-5
-0.746, 4.751e-5
-0.747, 4.774e-5
-0.748, 4.797e-5
-0.749, 4.822e-5
-0.750, 4.845e-5
-0.751, 4.866e-5
-0.752, 4.887e-5
-0.753, 4.903e-5
-0.754, 4.925e-5
-0.755, 4.946e-5
-0.756, 4.970e-5
-0.757, 4.989e-5
-0.758, 5.017e-5
-0.759, 5.042e-5
-0.760, 5.067e-5
-0.761, 5.090e-5
-0.762, 5.111e-5
-0.763, 5.136e-5
-0.764, 5.151e-5
-0.765, 5.170e-5
-0.766, 5.190e-5
-0.767, 5.206e-5
-0.768, 5.232e-5
-0.769, 5.255e-5
-0.770, 5.276e-5
-0.771, 5.296e-5
-0.772, 5.311e-5
-0.773, 5.324e-5
-0.774, 5.346e-5
-0.775, 5.366e-5
-0.776, 5.384e-5
-0.777, 5.399e-5
-0.778, 5.418e-5
-0.779, 5.435e-5
-0.780, 5.455e-5
-0.781, 5.479e-5
-0.782, 5.493e-5
-0.783, 5.509e-5
-0.784, 5.524e-5
-0.785, 5.540e-5
-0.786, 5.559e-5
-0.787, 5.583e-5
-0.788, 5.598e-5
-0.789, 5.610e-5
-0.790, 5.626e-5
-0.791, 5.641e-5
-0.792, 5.660e-5
-0.793, 5.673e-5
-0.794, 5.683e-5
-0.795, 5.700e-5
-0.796, 5.715e-5
-0.797, 5.732e-5
-0.798, 5.746e-5
-0.799, 5.756e-5
-0.800, 5.772e-5
-0.801, 5.784e-5
-0.802, 5.793e-5
-0.803, 5.803e-5
-0.804, 5.816e-5
-0.805, 5.830e-5
-0.806, 5.844e-5
-0.807, 5.854e-5
-0.808, 5.868e-5
-0.809, 5.879e-5
-0.810, 5.894e-5
-0.811, 5.903e-5
-0.812, 5.912e-5
-0.813, 5.926e-5
-0.814, 5.936e-5
-0.815, 5.950e-5
-0.816, 5.961e-5
-0.817, 5.971e-5
-0.818, 5.983e-5
-0.819, 5.998e-5
-0.820, 6.013e-5
-0.821, 6.025e-5
-0.822, 6.034e-5
-0.823, 6.039e-5
-0.824, 6.044e-5
-0.825, 6.057e-5
-0.826, 6.064e-5
-0.827, 6.072e-5
-0.828, 6.080e-5
-0.829, 6.086e-5
-0.830, 6.095e-5
-0.831, 6.106e-5
-0.832, 6.117e-5
-0.833, 6.125e-5
-0.834, 6.139e-5
-0.835, 6.153e-5
-0.836, 6.161e-5
-0.837, 6.165e-5
-0.838, 6.179e-5
-0.839, 6.190e-5
-0.840, 6.197e-5
-0.841, 6.203e-5
-0.842, 6.221e-5
-0.843, 6.235e-5
-0.844, 6.241e-5
-0.845, 6.247e-5
-0.846, 6.255e-5
-0.847, 6.265e-5
-0.848, 6.279e-5
-0.849, 6.292e-5
-0.850, 6.299e-5
-0.851, 6.302e-5
-0.852, 6.308e-5
-0.853, 6.315e-5
-0.854, 6.322e-5
-0.855, 6.331e-5
-0.856, 6.336e-5
-0.857, 6.344e-5
-0.858, 6.355e-5
-0.859, 6.367e-5
-0.860, 6.371e-5
-0.861, 6.380e-5
-0.862, 6.390e-5
-0.863, 6.393e-5
-0.864, 6.400e-5
-0.865, 6.415e-5
-0.866, 6.426e-5
-0.867, 6.439e-5
-0.868, 6.450e-5
-0.869, 6.457e-5
-0.870, 6.468e-5
-0.871, 6.478e-5
-0.872, 6.486e-5
-0.873, 6.496e-5
-0.874, 6.506e-5
-0.875, 6.513e-5
-0.876, 6.523e-5
-0.877, 6.537e-5
-0.878, 6.540e-5
-0.879, 6.551e-5
-0.880, 6.555e-5
-0.881, 6.558e-5
-0.882, 6.564e-5
-0.883, 6.574e-5
-0.884, 6.584e-5
-0.885, 6.594e-5
-0.886, 6.605e-5
-0.887, 6.611e-5
-0.888, 6.622e-5
-0.889, 6.636e-5
-0.890, 6.647e-5
-0.891, 6.659e-5
-0.892, 6.664e-5
-0.893, 6.673e-5
-0.894, 6.687e-5
-0.895, 6.693e-5
-0.896, 6.700e-5
-0.897, 6.706e-5
-0.898, 6.719e-5
-0.899, 6.728e-5
-0.900, 6.739e-5
-0.901, 6.745e-5
-0.902, 6.753e-5
-0.903, 6.762e-5
-0.904, 6.770e-5
-0.905, 6.776e-5
-0.906, 6.790e-5
-0.907, 6.801e-5
-0.908, 6.809e-5
-0.909, 6.830e-5
-0.910, 6.842e-5
-0.911, 6.848e-5
-0.912, 6.857e-5
-0.913, 6.867e-5
-0.914, 6.877e-5
-0.915, 6.889e-5
-0.916, 6.896e-5
-0.917, 6.915e-5
-0.918, 6.925e-5
-0.919, 6.935e-5
-0.920, 6.943e-5
-0.921, 6.949e-5
-0.922, 6.957e-5
-0.923, 6.975e-5
-0.924, 6.991e-5
-0.925, 6.999e-5
-0.926, 7.015e-5
-0.927, 7.025e-5
-0.928, 7.039e-5
-0.929, 7.053e-5
-0.930, 7.064e-5
-0.931, 7.077e-5
-0.932, 7.089e-5
-0.933, 7.105e-5
-0.934, 7.122e-5
-0.935, 7.136e-5
-0.936, 7.153e-5
-0.937, 7.166e-5
-0.938, 7.172e-5
-0.939, 7.187e-5
-0.940, 7.199e-5
-0.941, 7.209e-5
-0.942, 7.225e-5
-0.943, 7.243e-5
-0.944, 7.263e-5
-0.945, 7.281e-5
-0.946, 7.291e-5
-0.947, 7.305e-5
-0.948, 7.320e-5
-0.949, 7.335e-5
-0.950, 7.353e-5
-0.951, 7.371e-5
-0.952, 7.391e-5
-0.953, 7.410e-5
-0.954, 7.428e-5
-0.955, 7.452e-5
-0.956, 7.468e-5
-0.957, 7.477e-5
-0.958, 7.494e-5
-0.959, 7.514e-5
-0.960, 7.533e-5
-0.961, 7.552e-5
-0.962, 7.572e-5
-0.963, 7.590e-5
-0.964, 7.609e-5
-0.965, 7.629e-5
-0.966, 7.650e-5
-0.967, 7.670e-5
-0.968, 7.692e-5
-0.969, 7.713e-5
-0.970, 7.732e-5
-0.971, 7.758e-5
-0.972, 7.777e-5
-0.973, 7.799e-5
-0.974, 7.823e-5
-0.975, 7.844e-5
-0.976, 7.865e-5
-0.977, 7.888e-5
-0.978, 7.910e-5
-0.979, 7.937e-5
-0.980, 7.962e-5
-0.981, 7.982e-5
-0.982, 7.998e-5
-0.983, 8.025e-5
-0.984, 8.052e-5
-0.985, 8.079e-5
-0.986, 8.103e-5
-0.987, 8.125e-5
-0.988, 8.150e-5
-0.989, 8.176e-5
-0.990, 8.197e-5
-0.991, 8.228e-5
-0.992, 8.251e-5
-0.993, 8.281e-5
-0.994, 8.300e-5
-0.995, 8.319e-5
-0.996, 8.344e-5
-0.997, 8.368e-5
-0.998, 8.395e-5
-0.999, 8.415e-5
-1.000, 8.435e-5
-1.001, 8.459e-5
-1.002, 8.482e-5
-1.003, 8.510e-5
-1.004, 8.535e-5
-1.005, 8.558e-5
-1.006, 8.580e-5
-1.007, 8.609e-5
-1.008, 8.639e-5
-1.009, 8.658e-5
-1.010, 8.685e-5
-1.011, 8.706e-5
-1.012, 8.735e-5
-1.013, 8.765e-5
-1.014, 8.794e-5
-1.015, 8.817e-5
-1.016, 8.839e-5
-1.017, 8.858e-5
-1.018, 8.883e-5
-1.019, 8.919e-5
-1.020, 8.947e-5
-1.021, 8.970e-5
-1.022, 8.989e-5
-1.023, 9.011e-5
-1.024, 9.038e-5
-1.025, 9.066e-5
-1.026, 9.090e-5
-1.027, 9.111e-5
-1.028, 9.139e-5
-1.029, 9.160e-5
-1.030, 9.182e-5
-1.031, 9.202e-5
-1.032, 9.227e-5
-1.033, 9.250e-5
-1.034, 9.274e-5
-1.035, 9.298e-5
-1.036, 9.320e-5
-1.037, 9.346e-5
-1.038, 9.375e-5
-1.039, 9.397e-5
-1.040, 9.420e-5
-1.041, 9.433e-5
-1.042, 9.439e-5
-1.043, 9.471e-5
-1.044, 9.493e-5
-1.045, 9.516e-5
-1.046, 9.532e-5
-1.047, 9.558e-5
-1.048, 9.587e-5
-1.049, 9.611e-5
-1.050, 9.632e-5
-1.051, 9.654e-5
-1.052, 9.673e-5
-1.053, 9.691e-5
-1.054, 9.712e-5
-1.055, 9.730e-5
-1.056, 9.749e-5
-1.057, 9.768e-5
-1.058, 9.784e-5
-1.059, 9.810e-5
-1.060, 9.842e-5
-1.061, 9.855e-5
-1.062, 9.876e-5
-1.063, 9.891e-5
-1.064, 9.910e-5
-1.065, 9.933e-5
-1.066, 9.964e-5
-1.067, 9.975e-5
-1.068, 9.991e-5
-1.069, 1.001e-4
-1.070, 1.004e-4
-1.071, 1.005e-4
-1.072, 1.007e-4
-1.073, 1.009e-4
-1.074, 1.010e-4
-1.075, 1.013e-4
-1.076, 1.015e-4
-1.077, 1.016e-4
-1.078, 1.019e-4
-1.079, 1.021e-4
-1.080, 1.024e-4
-1.081, 1.026e-4
-1.082, 1.028e-4
-1.083, 1.030e-4
-1.084, 1.032e-4
-1.085, 1.035e-4
-1.086, 1.038e-4
-1.087, 1.040e-4
-1.088, 1.041e-4
-1.089, 1.044e-4
-1.090, 1.046e-4
-1.091, 1.049e-4
-1.092, 1.050e-4
-1.093, 1.052e-4
-1.094, 1.054e-4
-1.095, 1.057e-4
-1.096, 1.059e-4
-1.097, 1.062e-4
-1.098, 1.064e-4
-1.099, 1.067e-4
-1.100, 1.069e-4
-1.101, 1.071e-4
-1.102, 1.073e-4
-1.103, 1.075e-4
-1.104, 1.079e-4
-1.105, 1.081e-4
-1.106, 1.084e-4
-1.107, 1.088e-4
-1.108, 1.091e-4
-1.109, 1.094e-4
-1.110, 1.097e-4
-1.111, 1.100e-4
-1.112, 1.103e-4
-1.113, 1.106e-4
-1.114, 1.109e-4
-1.115, 1.113e-4
-1.116, 1.116e-4
-1.117, 1.118e-4
-1.118, 1.121e-4
-1.119, 1.124e-4
-1.120, 1.127e-4
-1.121, 1.131e-4
-1.122, 1.134e-4
-1.123, 1.136e-4
-1.124, 1.139e-4
-1.125, 1.143e-4
-1.126, 1.146e-4
-1.127, 1.149e-4
-1.128, 1.153e-4
-1.129, 1.155e-4
-1.130, 1.158e-4
-1.131, 1.162e-4
-1.132, 1.165e-4
-1.133, 1.167e-4
-1.134, 1.171e-4
-1.135, 1.175e-4
-1.136, 1.179e-4
-1.137, 1.182e-4
-1.138, 1.187e-4
-1.139, 1.194e-4
-1.140, 1.197e-4
-1.141, 1.201e-4
-1.142, 1.206e-4
-1.143, 1.209e-4
-1.144, 1.213e-4
-1.145, 1.216e-4
-1.146, 1.223e-4
-1.147, 1.228e-4
-1.148, 1.231e-4
-1.149, 1.236e-4
-1.150, 1.241e-4
-1.151, 1.245e-4
-1.152, 1.251e-4
-1.153, 1.257e-4
-1.154, 1.261e-4
-1.155, 1.265e-4
-1.156, 1.270e-4
-1.157, 1.274e-4
-1.158, 1.279e-4
-1.159, 1.283e-4
-1.160, 1.288e-4
-1.161, 1.293e-4
-1.162, 1.298e-4
-1.163, 1.302e-4
-1.164, 1.308e-4
-1.165, 1.312e-4
-1.166, 1.317e-4
-1.167, 1.322e-4
-1.168, 1.327e-4
-1.169, 1.332e-4
-1.170, 1.337e-4
-1.171, 1.344e-4
-1.172, 1.349e-4
-1.173, 1.355e-4
-1.174, 1.360e-4
-1.175, 1.366e-4
-1.176, 1.371e-4
-1.177, 1.376e-4
-1.178, 1.382e-4
-1.179, 1.388e-4
-1.180, 1.394e-4
-1.181, 1.399e-4
-1.182, 1.405e-4
-1.183, 1.411e-4
-1.184, 1.417e-4
-1.185, 1.424e-4
-1.186, 1.430e-4
-1.187, 1.437e-4
-1.188, 1.443e-4
-1.189, 1.451e-4
-1.190, 1.459e-4
-1.191, 1.465e-4
-1.192, 1.473e-4
-1.193, 1.480e-4
-1.194, 1.488e-4
-1.195, 1.495e-4
-1.196, 1.502e-4
-1.197, 1.511e-4
-1.198, 1.519e-4
-1.199, 1.527e-4
-1.200, 1.534e-4
-1.201, 1.542e-4
-1.202, 1.551e-4
-1.203, 1.561e-4
-1.204, 1.571e-4
-1.205, 1.580e-4
-1.206, 1.589e-4
-1.207, 1.598e-4
-1.208, 1.607e-4
-1.209, 1.618e-4
-1.210, 1.628e-4
-1.211, 1.638e-4
-1.212, 1.648e-4
-1.213, 1.658e-4
-1.214, 1.669e-4
-1.215, 1.680e-4
-1.216, 1.690e-4
-1.217, 1.701e-4
-1.218, 1.712e-4
-1.219, 1.723e-4
-1.220, 1.734e-4
-1.221, 1.745e-4
-1.222, 1.756e-4
-1.223, 1.767e-4
-1.224, 1.778e-4
-1.225, 1.790e-4
-1.226, 1.803e-4
-1.227, 1.815e-4
-1.228, 1.827e-4
-1.229, 1.840e-4
-1.230, 1.853e-4
-1.231, 1.865e-4
-1.232, 1.877e-4
-1.233, 1.891e-4
-1.234, 1.904e-4
-1.235, 1.917e-4
-1.236, 1.930e-4
-1.237, 1.942e-4
-1.238, 1.955e-4
-1.239, 1.968e-4
-1.240, 1.982e-4
-1.241, 1.995e-4
-1.242, 2.009e-4
-1.243, 2.024e-4
-1.244, 2.038e-4
-1.245, 2.053e-4
-1.246, 2.066e-4
-1.247, 2.080e-4
-1.248, 2.094e-4
-1.249, 2.108e-4
-1.250, 2.122e-4
-1.251, 2.136e-4
-1.252, 2.151e-4
-1.253, 2.166e-4
-1.254, 2.180e-4
-1.255, 2.195e-4
-1.256, 2.210e-4
-1.257, 2.226e-4
-1.258, 2.241e-4
-1.259, 2.256e-4
-1.260, 2.271e-4
-1.261, 2.287e-4
-1.262, 2.303e-4
-1.263, 2.318e-4
-1.264, 2.334e-4
-1.265, 2.350e-4
-1.266, 2.365e-4
-1.267, 2.381e-4
-1.268, 2.398e-4
-1.269, 2.415e-4
-1.270, 2.431e-4
-1.271, 2.448e-4
-1.272, 2.465e-4
-1.273, 2.481e-4
-1.274, 2.497e-4
-1.275, 2.514e-4
-1.276, 2.531e-4
-1.277, 2.548e-4
-1.278, 2.564e-4
-1.279, 2.581e-4
-1.280, 2.599e-4
-1.281, 2.616e-4
-1.282, 2.632e-4
-1.283, 2.649e-4
-1.284, 2.666e-4
-1.285, 2.682e-4
-1.286, 2.698e-4
-1.287, 2.713e-4
-1.288, 2.729e-4
-1.289, 2.746e-4
-1.290, 2.761e-4
-1.291, 2.777e-4
-1.292, 2.793e-4
-1.293, 2.809e-4
-1.294, 2.824e-4
-1.295, 2.840e-4
-1.296, 2.855e-4
-1.297, 2.870e-4
-1.298, 2.886e-4
-1.299, 2.902e-4
-1.300, 2.917e-4
-1.301, 2.933e-4
-1.302, 2.948e-4
-1.303, 2.964e-4
-1.304, 2.979e-4
-1.305, 2.994e-4
-1.306, 3.008e-4
-1.307, 3.023e-4
-1.308, 3.037e-4
-1.309, 3.051e-4
-1.310, 3.065e-4
-1.311, 3.079e-4
-1.312, 3.092e-4
-1.313, 3.105e-4
-1.314, 3.118e-4
-1.315, 3.131e-4
-1.316, 3.143e-4
-1.317, 3.156e-4
-1.318, 3.169e-4
-1.319, 3.181e-4
-1.320, 3.194e-4
-1.321, 3.207e-4
-1.322, 3.218e-4
-1.323, 3.230e-4
-1.324, 3.241e-4
-1.325, 3.252e-4
-1.326, 3.262e-4
-1.327, 3.272e-4
-1.328, 3.282e-4
-1.329, 3.292e-4
-1.330, 3.302e-4
-1.331, 3.311e-4
-1.332, 3.321e-4
-1.333, 3.330e-4
-1.334, 3.339e-4
-1.335, 3.348e-4
-1.336, 3.356e-4
-1.337, 3.365e-4
-1.338, 3.374e-4
-1.339, 3.382e-4
-1.340, 3.391e-4
-1.341, 3.399e-4
-1.342, 3.407e-4
-1.343, 3.416e-4
-1.344, 3.424e-4
-1.345, 3.432e-4
-1.346, 3.439e-4
-1.347, 3.447e-4
-1.348, 3.454e-4
-1.349, 3.462e-4
-1.350, 3.471e-4
-1.351, 3.479e-4
-1.352, 3.487e-4
-1.353, 3.495e-4
-1.354, 3.503e-4
-1.355, 3.510e-4
-1.356, 3.518e-4
-1.357, 3.526e-4
-1.358, 3.534e-4
-1.359, 3.542e-4
-1.360, 3.551e-4
-1.361, 3.560e-4
-1.362, 3.568e-4
-1.363, 3.577e-4
-1.364, 3.586e-4
-1.365, 3.595e-4
-1.366, 3.603e-4
-1.367, 3.612e-4
-1.368, 3.621e-4
-1.369, 3.630e-4
-1.370, 3.640e-4
-1.371, 3.651e-4
-1.372, 3.661e-4
-1.373, 3.671e-4
-1.374, 3.682e-4
-1.375, 3.694e-4
-1.376, 3.704e-4
-1.377, 3.715e-4
-1.378, 3.726e-4
-1.379, 3.738e-4
-1.380, 3.751e-4
-1.381, 3.763e-4
-1.382, 3.774e-4
-1.383, 3.786e-4
-1.384, 3.799e-4
-1.385, 3.812e-4
-1.386, 3.826e-4
-1.387, 3.840e-4
-1.388, 3.854e-4
-1.389, 3.868e-4
-1.390, 3.882e-4
-1.391, 3.895e-4
-1.392, 3.909e-4
-1.393, 3.923e-4
-1.394, 3.938e-4
-1.395, 3.953e-4
-1.396, 3.968e-4
-1.397, 3.983e-4
-1.398, 3.999e-4
-1.399, 4.014e-4
-1.400, 4.030e-4
-1.401, 4.046e-4
-1.402, 4.064e-4
-1.403, 4.081e-4
-1.404, 4.098e-4
-1.405, 4.115e-4
-1.406, 4.133e-4
-1.407, 4.151e-4
-1.408, 4.169e-4
-1.409, 4.189e-4
-1.410, 4.208e-4
-1.411, 4.228e-4
-1.412, 4.247e-4
-1.413, 4.267e-4
-1.414, 4.288e-4
-1.415, 4.308e-4
-1.416, 4.329e-4
-1.417, 4.349e-4
-1.418, 4.371e-4
-1.419, 4.392e-4
-1.420, 4.412e-4
-1.421, 4.432e-4
-1.422, 4.453e-4
-1.423, 4.473e-4
-1.424, 4.495e-4
-1.425, 4.517e-4
-1.426, 4.538e-4
-1.427, 4.560e-4
-1.428, 4.582e-4
-1.429, 4.604e-4
-1.430, 4.628e-4
-1.431, 4.651e-4
-1.432, 4.673e-4
-1.433, 4.696e-4
-1.434, 4.720e-4
-1.435, 4.743e-4
-1.436, 4.766e-4
-1.437, 4.790e-4
-1.438, 4.814e-4
-1.439, 4.838e-4
-1.440, 4.863e-4
-1.441, 4.889e-4
-1.442, 4.915e-4
-1.443, 4.941e-4
-1.444, 4.967e-4
-1.445, 4.993e-4
-1.446, 5.020e-4
-1.447, 5.046e-4
-1.448, 5.072e-4
-1.449, 5.098e-4
-1.450, 5.124e-4
-1.451, 5.151e-4
-1.452, 5.178e-4
-1.453, 5.205e-4
-1.454, 5.233e-4
-1.455, 5.262e-4
-1.456, 5.291e-4
-1.457, 5.319e-4
-1.458, 5.348e-4
-1.459, 5.377e-4
-1.460, 5.407e-4
-1.461, 5.438e-4
-1.462, 5.468e-4
-1.463, 5.499e-4
-1.464, 5.529e-4
-1.465, 5.559e-4
-1.466, 5.590e-4
-1.467, 5.621e-4
-1.468, 5.652e-4
-1.469, 5.684e-4
-1.470, 5.717e-4
-1.471, 5.750e-4
-1.472, 5.783e-4
-1.473, 5.816e-4
-1.474, 5.848e-4
-1.475, 5.881e-4
-1.476, 5.915e-4
-1.477, 5.950e-4
-1.478, 5.983e-4
-1.479, 6.019e-4
-1.480, 6.056e-4
-1.481, 6.092e-4
-1.482, 6.128e-4
-1.483, 6.165e-4
-1.484, 6.202e-4
-1.485, 6.237e-4
-1.486, 6.275e-4
-1.487, 6.313e-4
-1.488, 6.351e-4
-1.489, 6.389e-4
-1.490, 6.429e-4
-1.491, 6.467e-4
-1.492, 6.506e-4
-1.493, 6.546e-4
-1.494, 6.586e-4
-1.495, 6.627e-4
-1.496, 6.669e-4
-1.497, 6.710e-4
-1.498, 6.753e-4
-1.499, 6.794e-4
-1.500, 6.836e-4
-1.501, 6.880e-4
-1.502, 6.924e-4
-1.503, 6.967e-4
-1.504, 7.012e-4
-1.505, 7.060e-4
-1.506, 7.105e-4
-1.507, 7.150e-4
-1.508, 7.196e-4
-1.509, 7.241e-4
-1.510, 7.288e-4
-1.511, 7.334e-4
-1.512, 7.382e-4
-1.513, 7.431e-4
-1.514, 7.478e-4
-1.515, 7.526e-4
-1.516, 7.574e-4
-1.517, 7.622e-4
-1.518, 7.671e-4
-1.519, 7.719e-4
-1.520, 7.767e-4
-1.521, 7.815e-4
-1.522, 7.865e-4
-1.523, 7.917e-4
-1.524, 7.968e-4
-1.525, 8.018e-4
-1.526, 8.070e-4
-1.527, 8.122e-4
-1.528, 8.173e-4
-1.529, 8.227e-4
-1.530, 8.279e-4
-1.531, 8.333e-4
-1.532, 8.388e-4
-1.533, 8.441e-4
-1.534, 8.495e-4
-1.535, 8.550e-4
-1.536, 8.606e-4
-1.537, 8.662e-4
-1.538, 8.719e-4
-1.539, 8.775e-4
-1.540, 8.830e-4
-1.541, 8.887e-4
-1.542, 8.943e-4
-1.543, 9.000e-4
-1.544, 9.061e-4
-1.545, 9.120e-4
-1.546, 9.177e-4
-1.547, 9.235e-4
-1.548, 9.294e-4
-1.549, 9.354e-4
-1.550, 9.413e-4
-1.551, 9.472e-4
-1.552, 9.533e-4
-1.553, 9.595e-4
-1.554, 9.656e-4
-1.555, 9.717e-4
-1.556, 9.776e-4
-1.557, 9.839e-4
-1.558, 9.902e-4
-1.559, 9.965e-4
-1.560, 1.003e-3
-1.561, 1.009e-3
-1.562, 1.011e-3
-1.563, 1.011e-3
-1.564, 1.011e-3
-1.565, 1.011e-3
-1.566, 1.011e-3
-1.567, 1.011e-3
-1.568, 1.011e-3
-1.569, 1.011e-3
-1.570, 1.011e-3
-1.571, 1.011e-3
-1.572, 1.011e-3
-1.573, 1.011e-3
-1.574, 1.011e-3
-1.575, 1.011e-3
-1.576, 1.011e-3
-1.577, 1.011e-3
-1.578, 1.011e-3
-1.579, 1.011e-3
-1.580, 1.011e-3
-1.581, 1.011e-3
-1.582, 1.011e-3
-1.583, 1.011e-3
-1.584, 1.011e-3
-1.585, 1.011e-3
-1.586, 1.011e-3
-1.587, 1.011e-3
-1.588, 1.011e-3
-1.589, 1.011e-3
-1.590, 1.011e-3
-1.591, 1.011e-3
-1.592, 1.011e-3
-1.593, 1.011e-3
-1.594, 1.011e-3
-1.595, 1.011e-3
-1.596, 1.011e-3
-1.597, 1.011e-3
-1.598, 1.011e-3
-1.599, 1.011e-3
-1.600, 1.011e-3
-1.601, 1.011e-3
-1.602, 1.011e-3
-1.603, 1.011e-3
-1.604, 1.011e-3
-1.605, 1.011e-3
-1.606, 1.011e-3
-1.607, 1.011e-3
-1.608, 1.011e-3
-1.609, 1.011e-3
-1.610, 1.011e-3
-1.611, 1.011e-3
-1.612, 1.011e-3
-1.613, 1.011e-3
-1.614, 1.011e-3
-1.615, 1.011e-3
-1.616, 1.011e-3
-1.617, 1.011e-3
-1.618, 1.011e-3
-1.619, 1.011e-3
-1.620, 1.011e-3
-1.621, 1.011e-3
-1.622, 1.011e-3
-1.623, 1.011e-3
-1.624, 1.011e-3
-1.625, 1.011e-3
-1.626, 1.011e-3
-1.627, 1.011e-3
-1.628, 1.011e-3
-1.629, 1.011e-3
-1.630, 1.011e-3
-1.631, 1.011e-3
-1.632, 1.011e-3
-1.633, 1.011e-3
-1.634, 1.011e-3
-1.635, 1.011e-3
-1.636, 1.011e-3
-1.637, 1.011e-3
-1.638, 1.011e-3
-1.639, 1.011e-3
-1.640, 1.011e-3
-1.641, 1.011e-3
-1.642, 1.011e-3
-1.643, 1.011e-3
-1.644, 1.011e-3
-1.645, 1.011e-3
-1.646, 1.011e-3
-1.647, 1.011e-3
-1.648, 1.011e-3
-1.649, 1.011e-3
-1.650, 1.011e-3
-1.651, 1.011e-3
-1.652, 1.011e-3
-1.653, 1.011e-3
-1.654, 1.011e-3
-1.655, 1.011e-3
-1.656, 1.011e-3
-1.657, 1.011e-3
-1.658, 1.011e-3
-1.659, 1.011e-3
-1.660, 1.011e-3
-1.661, 1.011e-3
-1.662, 1.011e-3
-1.663, 1.011e-3
-1.664, 1.011e-3
-1.665, 1.011e-3
-1.666, 1.011e-3
-1.667, 1.011e-3
-1.668, 1.011e-3
-1.669, 1.011e-3
-1.670, 1.011e-3
-1.671, 1.011e-3
-1.672, 1.011e-3
-1.673, 1.011e-3
-1.674, 1.011e-3
-1.675, 1.011e-3
-1.676, 1.011e-3
-1.677, 1.011e-3
-1.678, 1.011e-3
-1.679, 1.011e-3
-1.680, 1.011e-3
-1.681, 1.011e-3
-1.682, 1.011e-3
-1.683, 1.011e-3
-1.684, 1.011e-3
-1.685, 1.011e-3
-1.686, 1.011e-3
-1.687, 1.011e-3
-1.688, 1.011e-3
-1.689, 1.011e-3
-1.690, 1.011e-3
-1.691, 1.011e-3
-1.692, 1.011e-3
-1.693, 1.011e-3
-1.694, 1.011e-3
-1.695, 1.011e-3
-1.696, 1.011e-3
-1.697, 1.011e-3
-1.698, 1.011e-3
-1.699, 1.011e-3
-1.700, 1.011e-3
-1.701, 1.011e-3
-1.702, 1.011e-3
-1.703, 1.011e-3
-1.704, 1.011e-3
-1.705, 1.011e-3
-1.706, 1.011e-3
-1.707, 1.011e-3
-1.708, 1.011e-3
-1.709, 1.011e-3
-1.710, 1.011e-3
-1.711, 1.011e-3
-1.712, 1.011e-3
-1.713, 1.011e-3
-1.714, 1.011e-3
-1.715, 1.011e-3
-1.716, 1.011e-3
-1.717, 1.011e-3
-1.718, 1.011e-3
-1.719, 1.011e-3
-1.720, 1.011e-3
-1.721, 1.011e-3
-1.722, 1.011e-3
-1.723, 1.011e-3
-1.724, 1.011e-3
-1.725, 1.011e-3
-1.726, 1.011e-3
-1.727, 1.011e-3
-1.728, 1.011e-3
-1.729, 1.011e-3
-1.730, 1.011e-3
-1.731, 1.011e-3
-1.732, 1.011e-3
-1.733, 1.011e-3
-1.734, 1.011e-3
-1.735, 1.011e-3
-1.736, 1.011e-3
-1.737, 1.011e-3
-1.738, 1.011e-3
-1.739, 1.011e-3
-1.740, 1.011e-3
-1.741, 1.011e-3
-1.742, 1.011e-3
-1.743, 1.011e-3
-1.744, 1.011e-3
-1.745, 1.011e-3
-1.746, 1.011e-3
-1.747, 1.011e-3
-1.748, 1.011e-3
-1.749, 1.011e-3
-1.750, 1.011e-3
-1.751, 1.011e-3
-1.752, 1.011e-3
-1.753, 1.011e-3
-1.754, 1.011e-3
-1.755, 1.011e-3
-1.756, 1.011e-3
-1.757, 1.011e-3
-1.758, 1.011e-3
-1.759, 1.011e-3
-1.760, 1.011e-3
-1.761, 1.011e-3
-1.762, 1.011e-3
-1.763, 1.011e-3
-1.764, 1.011e-3
-1.765, 1.011e-3
-1.766, 1.011e-3
-1.767, 1.011e-3
-1.768, 1.011e-3
-1.769, 1.011e-3
-1.770, 1.011e-3
-1.771, 1.011e-3
-1.772, 1.011e-3
-1.773, 1.011e-3
-1.774, 1.011e-3
-1.775, 1.011e-3
-1.776, 1.011e-3
-1.777, 1.011e-3
-1.778, 1.011e-3
-1.779, 1.011e-3
-1.780, 1.011e-3
-1.781, 1.011e-3
-1.782, 1.011e-3
-1.783, 1.011e-3
-1.784, 1.011e-3
-1.785, 1.011e-3
-1.786, 1.011e-3
-1.787, 1.011e-3
-1.788, 1.011e-3
-1.789, 1.011e-3
-1.790, 1.011e-3
-1.791, 1.011e-3
-1.792, 1.011e-3
-1.793, 1.011e-3
-1.794, 1.011e-3
-1.795, 1.011e-3
-1.796, 1.011e-3
-1.797, 1.011e-3
-1.798, 1.011e-3
-1.799, 1.011e-3
-1.800, 1.011e-3
-1.801, 1.011e-3
-1.802, 1.011e-3
-1.803, 1.011e-3
-1.804, 1.011e-3
-1.805, 1.011e-3
-1.806, 1.011e-3
-1.807, 1.011e-3
-1.808, 1.011e-3
-1.809, 1.011e-3
-1.810, 1.011e-3
-1.811, 1.011e-3
-1.812, 1.011e-3
-1.813, 1.011e-3
-1.814, 1.011e-3
-1.815, 1.011e-3
-1.816, 1.011e-3
-1.817, 1.011e-3
-1.818, 1.011e-3
-1.819, 1.011e-3
-1.820, 1.011e-3
-1.821, 1.011e-3
-1.822, 1.011e-3
-1.823, 1.011e-3
-1.824, 1.011e-3
-1.825, 1.011e-3
-1.826, 1.011e-3
-1.827, 1.011e-3
-1.828, 1.011e-3
-1.829, 1.011e-3
-1.830, 1.011e-3
-1.831, 1.011e-3
-1.832, 1.011e-3
-1.833, 1.011e-3
-1.834, 1.011e-3
-1.835, 1.011e-3
-1.836, 1.011e-3
-1.837, 1.011e-3
-1.838, 1.011e-3
-1.839, 1.011e-3
-1.840, 1.011e-3
-1.841, 1.011e-3
-1.842, 1.011e-3
-1.843, 1.011e-3
-1.844, 1.011e-3
-1.845, 1.011e-3
-1.846, 1.011e-3
-1.847, 1.011e-3
-1.848, 1.011e-3
-1.849, 1.011e-3
-1.850, 1.011e-3
-1.851, 1.011e-3
-1.852, 1.011e-3
-1.853, 1.011e-3
-1.854, 1.011e-3
-1.855, 1.011e-3
-1.856, 1.011e-3
-1.857, 1.011e-3
-1.858, 1.011e-3
-1.859, 1.011e-3
-1.860, 1.011e-3
-1.861, 1.011e-3
-1.862, 1.011e-3
-1.863, 1.011e-3
-1.864, 1.011e-3
-1.865, 1.011e-3
-1.866, 1.011e-3
-1.867, 1.011e-3
-1.868, 1.011e-3
-1.869, 1.011e-3
-1.870, 1.011e-3
-1.871, 1.011e-3
-1.872, 1.011e-3
-1.873, 1.011e-3
-1.874, 1.011e-3
-1.875, 1.011e-3
-1.876, 1.011e-3
-1.877, 1.011e-3
-1.878, 1.011e-3
-1.879, 1.011e-3
-1.880, 1.011e-3
-1.881, 1.011e-3
-1.882, 1.011e-3
-1.883, 1.011e-3
-1.884, 1.011e-3
-1.885, 1.011e-3
-1.886, 1.011e-3
-1.887, 1.011e-3
-1.888, 1.011e-3
-1.889, 1.011e-3
-1.890, 1.011e-3
-1.891, 1.011e-3
-1.892, 1.011e-3
-1.893, 1.011e-3
-1.894, 1.011e-3
-1.895, 1.011e-3
-1.896, 1.011e-3
-1.897, 1.011e-3
-1.898, 1.011e-3
-1.899, 1.011e-3
-1.900, 1.011e-3
-1.901, 1.011e-3
-1.902, 1.011e-3
-1.903, 1.011e-3
-1.904, 1.011e-3
-1.905, 1.011e-3
-1.906, 1.011e-3
-1.907, 1.011e-3
-1.908, 1.011e-3
-1.909, 1.011e-3
-1.910, 1.011e-3
-1.911, 1.011e-3
-1.912, 1.011e-3
-1.913, 1.011e-3
-1.914, 1.011e-3
-1.915, 1.011e-3
-1.916, 1.011e-3
-1.917, 1.011e-3
-1.918, 1.011e-3
-1.919, 1.011e-3
-1.920, 1.011e-3
-1.921, 1.011e-3
-1.922, 1.011e-3
-1.923, 1.011e-3
-1.924, 1.011e-3
-1.925, 1.011e-3
-1.926, 1.011e-3
-1.927, 1.011e-3
-1.928, 1.011e-3
-1.929, 1.011e-3
-1.930, 1.011e-3
-1.931, 1.011e-3
-1.932, 1.011e-3
-1.933, 1.011e-3
-1.934, 1.011e-3
-1.935, 1.011e-3
-1.936, 1.011e-3
-1.937, 1.011e-3
-1.938, 1.011e-3
-1.939, 1.011e-3
-1.940, 1.011e-3
-1.941, 1.011e-3
-1.942, 1.011e-3
-1.943, 1.011e-3
-1.944, 1.011e-3
-1.945, 1.011e-3
-1.946, 1.011e-3
-1.947, 1.011e-3
-1.948, 1.011e-3
-1.949, 1.011e-3
-1.950, 1.011e-3
-1.951, 1.011e-3
-1.952, 1.011e-3
-1.953, 1.011e-3
-1.954, 1.011e-3
-1.955, 1.011e-3
-1.956, 1.011e-3
-1.957, 1.011e-3
-1.958, 1.011e-3
-1.959, 1.011e-3
-1.960, 1.011e-3
-1.961, 1.011e-3
-1.962, 1.011e-3
-1.963, 1.011e-3
-1.964, 1.011e-3
-1.965, 1.011e-3
-1.966, 1.011e-3
-1.967, 1.011e-3
-1.968, 1.011e-3
-1.969, 1.011e-3
-1.970, 1.011e-3
-1.971, 1.011e-3
-1.972, 1.011e-3
-1.973, 1.011e-3
-1.974, 1.011e-3
-1.975, 1.011e-3
-1.976, 1.011e-3
-1.977, 1.011e-3
-1.978, 1.011e-3
-1.979, 1.011e-3
-1.980, 1.011e-3
-1.981, 1.011e-3
-1.982, 1.011e-3
-1.983, 1.011e-3
-1.984, 1.011e-3
-1.985, 1.011e-3
-1.986, 1.011e-3
-1.987, 1.011e-3
-1.988, 1.011e-3
-1.989, 1.011e-3
-1.990, 1.011e-3
-1.991, 1.011e-3
-1.992, 1.011e-3
-1.993, 1.011e-3
-1.994, 1.011e-3
-1.995, 1.011e-3
-1.996, 1.011e-3
-1.997, 1.011e-3
-1.998, 1.011e-3
-1.999, 1.011e-3
-2.000, 1.011e-3
-2.001, 1.011e-3
-2.002, 1.011e-3
-2.003, 1.011e-3
-2.004, 1.011e-3
-2.005, 1.011e-3
-2.006, 1.011e-3
-2.007, 1.011e-3
-2.008, 1.011e-3
-2.009, 1.011e-3
-2.010, 1.011e-3
-2.011, 1.011e-3
-2.012, 1.011e-3
-2.013, 1.011e-3
-2.014, 1.011e-3
-2.015, 1.011e-3
-2.016, 1.011e-3
-2.017, 1.011e-3
-2.018, 1.011e-3
-2.019, 1.011e-3
-2.020, 1.011e-3
-2.021, 1.011e-3
-2.022, 1.011e-3
-2.023, 1.011e-3
-2.024, 1.011e-3
-2.025, 1.011e-3
-2.026, 1.011e-3
-2.027, 1.011e-3
-2.028, 1.011e-3
-2.029, 1.011e-3
-2.030, 1.011e-3
-2.031, 1.011e-3
-2.032, 1.011e-3
-2.033, 1.011e-3
-2.034, 1.011e-3
-2.035, 1.011e-3
-2.036, 1.011e-3
-2.037, 1.011e-3
-2.038, 1.011e-3
-2.039, 1.011e-3
-2.040, 1.011e-3
-2.041, 1.011e-3
-2.042, 1.011e-3
-2.043, 1.011e-3
-2.044, 1.011e-3
-2.045, 1.011e-3
-2.046, 1.011e-3
-2.047, 1.011e-3
-2.048, 1.011e-3
-2.049, 1.011e-3
-2.050, 1.011e-3
-2.051, 1.011e-3
-2.052, 1.011e-3
-2.053, 1.011e-3
-2.054, 1.011e-3
-2.055, 1.011e-3
-2.056, 1.011e-3
-2.057, 1.011e-3
-2.058, 1.011e-3
-2.059, 1.011e-3
-2.060, 1.011e-3
-2.061, 1.011e-3
-2.062, 1.011e-3
-2.063, 1.011e-3
-2.064, 1.011e-3
-2.065, 1.011e-3
-2.066, 1.011e-3
-2.067, 1.011e-3
-2.068, 1.011e-3
-2.069, 1.011e-3
-2.070, 1.011e-3
-2.071, 1.011e-3
-2.072, 1.011e-3
-2.073, 1.011e-3
-2.074, 1.011e-3
-2.075, 1.011e-3
-2.076, 1.011e-3
-2.077, 1.011e-3
-2.078, 1.011e-3
-2.079, 1.011e-3
-2.080, 1.011e-3
-2.081, 1.011e-3
-2.082, 1.011e-3
-2.083, 1.011e-3
-2.084, 1.011e-3
-2.085, 1.011e-3
-2.086, 1.011e-3
-2.087, 1.011e-3
-2.088, 1.011e-3
-2.089, 1.011e-3
-2.090, 1.011e-3
-2.091, 1.011e-3
-2.092, 1.011e-3
-2.093, 1.011e-3
-2.094, 1.011e-3
-2.095, 1.011e-3
-2.096, 1.011e-3
-2.097, 1.011e-3
-2.098, 1.011e-3
-2.099, 1.011e-3
-2.100, 1.011e-3
-2.101, 1.011e-3
-2.102, 1.011e-3
-2.103, 1.011e-3
-2.104, 1.011e-3
-2.105, 1.011e-3
-2.106, 1.011e-3
-2.107, 1.011e-3
-2.108, 1.011e-3
-2.109, 1.011e-3
-2.110, 1.011e-3
-2.111, 1.011e-3
-2.112, 1.011e-3
-2.113, 1.011e-3
-2.114, 1.011e-3
-2.115, 1.011e-3
-2.116, 1.011e-3
-2.117, 1.011e-3
-2.118, 1.011e-3
-2.119, 1.011e-3
-2.120, 1.011e-3
-2.121, 1.011e-3
-2.122, 1.011e-3
-2.123, 1.011e-3
-2.124, 1.011e-3
-2.125, 1.011e-3
-2.126, 1.011e-3
-2.127, 1.011e-3
-2.128, 1.011e-3
-2.129, 1.011e-3
-2.130, 1.011e-3
-2.131, 1.011e-3
-2.132, 1.011e-3
-2.133, 1.011e-3
-2.134, 1.011e-3
-2.135, 1.011e-3
-2.136, 1.011e-3
-2.137, 1.011e-3
-2.138, 1.011e-3
-2.139, 1.011e-3
-2.140, 1.011e-3
-2.141, 1.011e-3
-2.142, 1.011e-3
-2.143, 1.011e-3
-2.144, 1.011e-3
-2.145, 1.011e-3
-2.146, 1.011e-3
-2.147, 1.011e-3
-2.148, 1.011e-3
-2.149, 1.011e-3
-2.150, 1.011e-3
-2.151, 1.011e-3
-2.152, 1.011e-3
-2.153, 1.011e-3
-2.154, 1.011e-3
-2.155, 1.011e-3
-2.156, 1.011e-3
-2.157, 1.011e-3
-2.158, 1.011e-3
-2.159, 1.011e-3
-2.160, 1.011e-3
-2.161, 1.011e-3
-2.162, 1.011e-3
-2.163, 1.011e-3
-2.164, 1.011e-3
-2.165, 1.011e-3
-2.166, 1.011e-3
-2.167, 1.011e-3
-2.168, 1.011e-3
-2.169, 1.011e-3
-2.170, 1.011e-3
-2.171, 1.011e-3
-2.172, 1.011e-3
-2.173, 1.011e-3
-2.174, 1.011e-3
-2.175, 1.011e-3
-2.176, 1.011e-3
-2.177, 1.011e-3
-2.178, 1.011e-3
-2.179, 1.011e-3
-2.180, 1.011e-3
-2.181, 1.011e-3
-2.182, 1.011e-3
-2.183, 1.011e-3
-2.184, 1.011e-3
-2.185, 1.011e-3
-2.186, 1.011e-3
-2.187, 1.011e-3
-2.188, 1.011e-3
-2.189, 1.011e-3
-2.190, 1.011e-3
-2.191, 1.011e-3
-2.192, 1.011e-3
-2.193, 1.011e-3
-2.194, 1.011e-3
-2.195, 1.011e-3
-2.196, 1.011e-3
-2.197, 1.011e-3
-2.198, 1.011e-3
-2.199, 1.011e-3
-2.200, 1.011e-3
-2.201, 1.011e-3
-2.202, 1.011e-3
-2.203, 1.011e-3
-2.204, 1.011e-3
-2.205, 1.011e-3
-2.206, 1.011e-3
-2.207, 1.011e-3
-2.208, 1.011e-3
-2.209, 1.011e-3
-2.210, 1.011e-3
-2.211, 1.011e-3
-2.212, 1.011e-3
-2.213, 1.011e-3
-2.214, 1.011e-3
-2.215, 1.011e-3
-2.216, 1.011e-3
-2.217, 1.011e-3
-2.218, 1.011e-3
-2.219, 1.011e-3
-2.220, 1.011e-3
-2.221, 1.011e-3
-2.222, 1.011e-3
-2.223, 1.011e-3
-2.224, 1.011e-3
-2.225, 1.011e-3
-2.226, 1.011e-3
-2.227, 1.011e-3
-2.228, 1.011e-3
-2.229, 1.011e-3
-2.230, 1.011e-3
-2.231, 1.011e-3
-2.232, 1.011e-3
-2.233, 1.011e-3
-2.234, 1.011e-3
-2.235, 1.011e-3
-2.236, 1.011e-3
-2.237, 1.011e-3
-2.238, 1.011e-3
-2.239, 1.011e-3
-2.240, 1.011e-3
-2.241, 1.011e-3
-2.242, 1.011e-3
-2.243, 1.011e-3
-2.244, 1.011e-3
-2.245, 1.011e-3
-2.246, 1.011e-3
-2.247, 1.011e-3
-2.248, 1.011e-3
-2.249, 1.011e-3
-2.250, 1.011e-3
-2.251, 1.011e-3
-2.252, 1.011e-3
-2.253, 1.011e-3
-2.254, 1.011e-3
-2.255, 1.011e-3
-2.256, 1.011e-3
-2.257, 1.011e-3
-2.258, 1.011e-3
-2.259, 1.011e-3
-2.260, 1.011e-3
-2.261, 1.011e-3
-2.262, 1.011e-3
-2.263, 1.011e-3
-2.264, 1.011e-3
-2.265, 1.011e-3
-2.266, 1.011e-3
-2.267, 1.011e-3
-2.268, 1.011e-3
-2.269, 1.011e-3
-2.270, 1.011e-3
-2.271, 1.011e-3
-2.272, 1.011e-3
-2.273, 1.011e-3
-2.274, 1.011e-3
-2.275, 1.011e-3
-2.276, 1.011e-3
-2.277, 1.011e-3
-2.278, 1.011e-3
-2.279, 1.011e-3
-2.280, 1.011e-3
-2.281, 1.011e-3
-2.282, 1.011e-3
-2.283, 1.011e-3
-2.284, 1.011e-3
-2.285, 1.011e-3
-2.286, 1.011e-3
-2.287, 1.011e-3
-2.288, 1.011e-3
-2.289, 1.011e-3
-2.290, 1.011e-3
-2.291, 1.011e-3
-2.292, 1.011e-3
-2.293, 1.011e-3
-2.294, 1.011e-3
-2.295, 1.011e-3
-2.296, 1.011e-3
-2.297, 1.011e-3
-2.298, 1.011e-3
-2.299, 1.011e-3
