Mar. 7, 2025   14:43:25
Cyclic Voltammetry
File: c:/users/guazh/data/banditlqround7_x0exp169_r20_3/2025-03-03-exp899\exp899-2025-03-07t14_34_57-arkoh\exp899_cv_sr_900mvs_efin_-1400mv.bin
Data Source:  Experiment
Instrument Model:  CHI760E
Header: CV ran at 900 mVs
Note: 

Init E (V) = -1
High E (V) = -1
Low E (V) = -1.4
Final E (V) = -1
Init P/N = N
Scan Rate (V/s) = 0.9
Segment = 3
Sample Interval (V) = 0.001
Quiet Time (sec) = 2
Sensitivity (A/V) = 0.01
Comp R (ohm) = 1.3

Results:

Channel 1:
Segment 1:

Segment 2:

Segment 3:

Potential/V, Current/A

-1.000, 2.482e-5
-1.001, 1.019e-4
-1.002, 1.666e-4
-1.003, 2.191e-4
-1.004, 2.653e-4
-1.005, 3.054e-4
-1.006, 3.424e-4
-1.007, 3.732e-4
-1.008, 4.040e-4
-1.009, 4.287e-4
-1.010, 4.503e-4
-1.011, 4.719e-4
-1.012, 4.904e-4
-1.013, 5.089e-4
-1.014, 5.243e-4
-1.015, 5.397e-4
-1.016, 5.551e-4
-1.017, 5.674e-4
-1.018, 5.829e-4
-1.019, 5.952e-4
-1.020, 6.044e-4
-1.021, 6.168e-4
-1.022, 6.260e-4
-1.023, 6.353e-4
-1.024, 6.414e-4
-1.025, 6.476e-4
-1.026, 6.507e-4
-1.027, 6.569e-4
-1.028, 6.630e-4
-1.029, 6.661e-4
-1.030, 6.754e-4
-1.031, 6.784e-4
-1.032, 6.846e-4
-1.033, 6.908e-4
-1.034, 6.969e-4
-1.035, 7.031e-4
-1.036, 7.093e-4
-1.037, 7.154e-4
-1.038, 7.154e-4
-1.039, 7.216e-4
-1.040, 7.216e-4
-1.041, 7.247e-4
-1.042, 7.278e-4
-1.043, 7.278e-4
-1.044, 7.309e-4
-1.045, 7.339e-4
-1.046, 7.339e-4
-1.047, 7.401e-4
-1.048, 7.432e-4
-1.049, 7.463e-4
-1.050, 7.494e-4
-1.051, 7.524e-4
-1.052, 7.555e-4
-1.053, 7.555e-4
-1.054, 7.586e-4
-1.055, 7.617e-4
-1.056, 7.617e-4
-1.057, 7.648e-4
-1.058, 7.617e-4
-1.059, 7.617e-4
-1.060, 7.648e-4
-1.061, 7.617e-4
-1.062, 7.648e-4
-1.063, 7.679e-4
-1.064, 7.679e-4
-1.065, 7.709e-4
-1.066, 7.740e-4
-1.067, 7.771e-4
-1.068, 7.771e-4
-1.069, 7.802e-4
-1.070, 7.802e-4
-1.071, 7.833e-4
-1.072, 7.833e-4
-1.073, 7.863e-4
-1.074, 7.863e-4
-1.075, 7.894e-4
-1.076, 7.894e-4
-1.077, 7.925e-4
-1.078, 7.956e-4
-1.079, 7.987e-4
-1.080, 7.987e-4
-1.081, 8.018e-4
-1.082, 8.018e-4
-1.083, 8.048e-4
-1.084, 8.048e-4
-1.085, 8.079e-4
-1.086, 8.048e-4
-1.087, 8.048e-4
-1.088, 8.048e-4
-1.089, 8.079e-4
-1.090, 8.110e-4
-1.091, 8.110e-4
-1.092, 8.141e-4
-1.093, 8.172e-4
-1.094, 8.172e-4
-1.095, 8.203e-4
-1.096, 8.203e-4
-1.097, 8.233e-4
-1.098, 8.233e-4
-1.099, 8.233e-4
-1.100, 8.233e-4
-1.101, 8.264e-4
-1.102, 8.264e-4
-1.103, 8.264e-4
-1.104, 8.264e-4
-1.105, 8.295e-4
-1.106, 8.295e-4
-1.107, 8.295e-4
-1.108, 8.326e-4
-1.109, 8.326e-4
-1.110, 8.357e-4
-1.111, 8.388e-4
-1.112, 8.418e-4
-1.113, 8.449e-4
-1.114, 8.449e-4
-1.115, 8.449e-4
-1.116, 8.480e-4
-1.117, 8.480e-4
-1.118, 8.511e-4
-1.119, 8.542e-4
-1.120, 8.542e-4
-1.121, 8.542e-4
-1.122, 8.573e-4
-1.123, 8.573e-4
-1.124, 8.573e-4
-1.125, 8.573e-4
-1.126, 8.603e-4
-1.127, 8.603e-4
-1.128, 8.603e-4
-1.129, 8.634e-4
-1.130, 8.634e-4
-1.131, 8.665e-4
-1.132, 8.696e-4
-1.133, 8.696e-4
-1.134, 8.758e-4
-1.135, 8.788e-4
-1.136, 8.788e-4
-1.137, 8.819e-4
-1.138, 8.850e-4
-1.139, 8.850e-4
-1.140, 8.850e-4
-1.141, 8.881e-4
-1.142, 8.881e-4
-1.143, 8.850e-4
-1.144, 8.850e-4
-1.145, 8.850e-4
-1.146, 8.850e-4
-1.147, 8.881e-4
-1.148, 8.912e-4
-1.149, 8.943e-4
-1.150, 9.004e-4
-1.151, 9.035e-4
-1.152, 9.097e-4
-1.153, 9.128e-4
-1.154, 9.158e-4
-1.155, 9.189e-4
-1.156, 9.189e-4
-1.157, 9.158e-4
-1.158, 9.158e-4
-1.159, 9.158e-4
-1.160, 9.128e-4
-1.161, 9.128e-4
-1.162, 9.158e-4
-1.163, 9.128e-4
-1.164, 9.189e-4
-1.165, 9.189e-4
-1.166, 9.220e-4
-1.167, 9.251e-4
-1.168, 9.282e-4
-1.169, 9.313e-4
-1.170, 9.343e-4
-1.171, 9.374e-4
-1.172, 9.405e-4
-1.173, 9.405e-4
-1.174, 9.405e-4
-1.175, 9.436e-4
-1.176, 9.436e-4
-1.177, 9.467e-4
-1.178, 9.467e-4
-1.179, 9.498e-4
-1.180, 9.528e-4
-1.181, 9.528e-4
-1.182, 9.528e-4
-1.183, 9.559e-4
-1.184, 9.559e-4
-1.185, 9.590e-4
-1.186, 9.621e-4
-1.187, 9.621e-4
-1.188, 9.652e-4
-1.189, 9.652e-4
-1.190, 9.652e-4
-1.191, 9.683e-4
-1.192, 9.683e-4
-1.193, 9.713e-4
-1.194, 9.744e-4
-1.195, 9.775e-4
-1.196, 9.775e-4
-1.197, 9.837e-4
-1.198, 9.868e-4
-1.199, 9.898e-4
-1.200, 9.898e-4
-1.201, 9.929e-4
-1.202, 9.898e-4
-1.203, 9.929e-4
-1.204, 9.898e-4
-1.205, 9.898e-4
-1.206, 9.898e-4
-1.207, 9.898e-4
-1.208, 9.898e-4
-1.209, 9.898e-4
-1.210, 9.960e-4
-1.211, 9.960e-4
-1.212, 1.002e-3
-1.213, 1.008e-3
-1.214, 1.011e-3
-1.215, 1.014e-3
-1.216, 1.021e-3
-1.217, 1.024e-3
-1.218, 1.024e-3
-1.219, 1.027e-3
-1.220, 1.027e-3
-1.221, 1.027e-3
-1.222, 1.027e-3
-1.223, 1.027e-3
-1.224, 1.024e-3
-1.225, 1.027e-3
-1.226, 1.027e-3
-1.227, 1.027e-3
-1.228, 1.027e-3
-1.229, 1.030e-3
-1.230, 1.030e-3
-1.231, 1.033e-3
-1.232, 1.033e-3
-1.233, 1.036e-3
-1.234, 1.039e-3
-1.235, 1.042e-3
-1.236, 1.048e-3
-1.237, 1.051e-3
-1.238, 1.055e-3
-1.239, 1.058e-3
-1.240, 1.061e-3
-1.241, 1.058e-3
-1.242, 1.064e-3
-1.243, 1.064e-3
-1.244, 1.061e-3
-1.245, 1.061e-3
-1.246, 1.064e-3
-1.247, 1.061e-3
-1.248, 1.064e-3
-1.249, 1.061e-3
-1.250, 1.064e-3
-1.251, 1.064e-3
-1.252, 1.064e-3
-1.253, 1.064e-3
-1.254, 1.067e-3
-1.255, 1.067e-3
-1.256, 1.070e-3
-1.257, 1.073e-3
-1.258, 1.076e-3
-1.259, 1.079e-3
-1.260, 1.082e-3
-1.261, 1.085e-3
-1.262, 1.088e-3
-1.263, 1.092e-3
-1.264, 1.092e-3
-1.265, 1.095e-3
-1.266, 1.098e-3
-1.267, 1.101e-3
-1.268, 1.101e-3
-1.269, 1.104e-3
-1.270, 1.107e-3
-1.271, 1.107e-3
-1.272, 1.107e-3
-1.273, 1.110e-3
-1.274, 1.113e-3
-1.275, 1.116e-3
-1.276, 1.116e-3
-1.277, 1.116e-3
-1.278, 1.119e-3
-1.279, 1.122e-3
-1.280, 1.125e-3
-1.281, 1.129e-3
-1.282, 1.132e-3
-1.283, 1.135e-3
-1.284, 1.138e-3
-1.285, 1.144e-3
-1.286, 1.147e-3
-1.287, 1.153e-3
-1.288, 1.156e-3
-1.289, 1.159e-3
-1.290, 1.162e-3
-1.291, 1.166e-3
-1.292, 1.166e-3
-1.293, 1.169e-3
-1.294, 1.169e-3
-1.295, 1.169e-3
-1.296, 1.172e-3
-1.297, 1.175e-3
-1.298, 1.181e-3
-1.299, 1.187e-3
-1.300, 1.196e-3
-1.301, 1.203e-3
-1.302, 1.212e-3
-1.303, 1.221e-3
-1.304, 1.230e-3
-1.305, 1.243e-3
-1.306, 1.249e-3
-1.307, 1.258e-3
-1.308, 1.267e-3
-1.309, 1.270e-3
-1.310, 1.277e-3
-1.311, 1.283e-3
-1.312, 1.289e-3
-1.313, 1.295e-3
-1.314, 1.304e-3
-1.315, 1.314e-3
-1.316, 1.323e-3
-1.317, 1.335e-3
-1.318, 1.347e-3
-1.319, 1.363e-3
-1.320, 1.372e-3
-1.321, 1.388e-3
-1.322, 1.400e-3
-1.323, 1.412e-3
-1.324, 1.428e-3
-1.325, 1.440e-3
-1.326, 1.458e-3
-1.327, 1.474e-3
-1.328, 1.492e-3
-1.329, 1.508e-3
-1.330, 1.529e-3
-1.331, 1.545e-3
-1.332, 1.566e-3
-1.333, 1.585e-3
-1.334, 1.606e-3
-1.335, 1.628e-3
-1.336, 1.650e-3
-1.337, 1.671e-3
-1.338, 1.693e-3
-1.339, 1.714e-3
-1.340, 1.739e-3
-1.341, 1.767e-3
-1.342, 1.795e-3
-1.343, 1.822e-3
-1.344, 1.853e-3
-1.345, 1.887e-3
-1.346, 1.921e-3
-1.347, 1.955e-3
-1.348, 1.992e-3
-1.349, 2.026e-3
-1.350, 2.063e-3
-1.351, 2.103e-3
-1.352, 2.143e-3
-1.353, 2.186e-3
-1.354, 2.229e-3
-1.355, 2.279e-3
-1.356, 2.325e-3
-1.357, 2.374e-3
-1.358, 2.423e-3
-1.359, 2.473e-3
-1.360, 2.525e-3
-1.361, 2.581e-3
-1.362, 2.636e-3
-1.363, 2.698e-3
-1.364, 2.763e-3
-1.365, 2.830e-3
-1.366, 2.901e-3
-1.367, 2.978e-3
-1.368, 3.056e-3
-1.369, 3.136e-3
-1.370, 3.222e-3
-1.371, 3.308e-3
-1.372, 3.398e-3
-1.373, 3.487e-3
-1.374, 3.577e-3
-1.375, 3.672e-3
-1.376, 3.765e-3
-1.377, 3.860e-3
-1.378, 3.959e-3
-1.379, 4.058e-3
-1.380, 4.162e-3
-1.381, 4.267e-3
-1.382, 4.378e-3
-1.383, 4.489e-3
-1.384, 4.606e-3
-1.385, 4.723e-3
-1.386, 4.844e-3
-1.387, 4.967e-3
-1.388, 5.093e-3
-1.389, 5.220e-3
-1.390, 5.352e-3
-1.391, 5.485e-3
-1.392, 5.618e-3
-1.393, 5.753e-3
-1.394, 5.886e-3
-1.395, 6.015e-3
-1.396, 6.151e-3
-1.397, 6.287e-3
-1.398, 6.419e-3
-1.399, 6.552e-3
-1.400, 6.613e-3
-1.399, 6.570e-3
-1.398, 6.543e-3
-1.397, 6.512e-3
-1.396, 6.484e-3
-1.395, 6.456e-3
-1.394, 6.428e-3
-1.393, 6.407e-3
-1.392, 6.382e-3
-1.391, 6.358e-3
-1.390, 6.333e-3
-1.389, 6.305e-3
-1.388, 6.277e-3
-1.387, 6.243e-3
-1.386, 6.206e-3
-1.385, 6.163e-3
-1.384, 6.120e-3
-1.383, 6.071e-3
-1.382, 6.021e-3
-1.381, 5.975e-3
-1.380, 5.935e-3
-1.379, 5.886e-3
-1.378, 5.843e-3
-1.377, 5.796e-3
-1.376, 5.750e-3
-1.375, 5.701e-3
-1.374, 5.648e-3
-1.373, 5.596e-3
-1.372, 5.544e-3
-1.371, 5.485e-3
-1.370, 5.430e-3
-1.369, 5.377e-3
-1.368, 5.328e-3
-1.367, 5.275e-3
-1.366, 5.232e-3
-1.365, 5.189e-3
-1.364, 5.143e-3
-1.363, 5.100e-3
-1.362, 5.053e-3
-1.361, 5.007e-3
-1.360, 4.955e-3
-1.359, 4.902e-3
-1.358, 4.844e-3
-1.357, 4.785e-3
-1.356, 4.723e-3
-1.355, 4.665e-3
-1.354, 4.606e-3
-1.353, 4.548e-3
-1.352, 4.492e-3
-1.351, 4.437e-3
-1.350, 4.384e-3
-1.349, 4.335e-3
-1.348, 4.283e-3
-1.347, 4.233e-3
-1.346, 4.181e-3
-1.345, 4.128e-3
-1.344, 4.079e-3
-1.343, 4.027e-3
-1.342, 3.977e-3
-1.341, 3.925e-3
-1.340, 3.876e-3
-1.339, 3.823e-3
-1.338, 3.771e-3
-1.337, 3.715e-3
-1.336, 3.660e-3
-1.335, 3.607e-3
-1.334, 3.552e-3
-1.333, 3.496e-3
-1.332, 3.444e-3
-1.331, 3.392e-3
-1.330, 3.342e-3
-1.329, 3.287e-3
-1.328, 3.234e-3
-1.327, 3.185e-3
-1.326, 3.139e-3
-1.325, 3.089e-3
-1.324, 3.043e-3
-1.323, 2.997e-3
-1.322, 2.951e-3
-1.321, 2.904e-3
-1.320, 2.858e-3
-1.319, 2.812e-3
-1.318, 2.766e-3
-1.317, 2.723e-3
-1.316, 2.670e-3
-1.315, 2.624e-3
-1.314, 2.575e-3
-1.313, 2.528e-3
-1.312, 2.482e-3
-1.311, 2.436e-3
-1.310, 2.390e-3
-1.309, 2.346e-3
-1.308, 2.300e-3
-1.307, 2.254e-3
-1.306, 2.211e-3
-1.305, 2.164e-3
-1.304, 2.121e-3
-1.303, 2.075e-3
-1.302, 2.032e-3
-1.301, 1.989e-3
-1.300, 1.946e-3
-1.299, 1.906e-3
-1.298, 1.862e-3
-1.297, 1.822e-3
-1.296, 1.782e-3
-1.295, 1.742e-3
-1.294, 1.705e-3
-1.293, 1.665e-3
-1.292, 1.625e-3
-1.291, 1.588e-3
-1.290, 1.548e-3
-1.289, 1.511e-3
-1.288, 1.474e-3
-1.287, 1.437e-3
-1.286, 1.397e-3
-1.285, 1.363e-3
-1.284, 1.323e-3
-1.283, 1.289e-3
-1.282, 1.252e-3
-1.281, 1.215e-3
-1.280, 1.181e-3
-1.279, 1.147e-3
-1.278, 1.113e-3
-1.277, 1.079e-3
-1.276, 1.045e-3
-1.275, 1.014e-3
-1.274, 9.837e-4
-1.273, 9.528e-4
-1.272, 9.220e-4
-1.271, 8.912e-4
-1.270, 8.603e-4
-1.269, 8.295e-4
-1.268, 8.018e-4
-1.267, 7.709e-4
-1.266, 7.432e-4
-1.265, 7.124e-4
-1.264, 6.846e-4
-1.263, 6.569e-4
-1.262, 6.260e-4
-1.261, 6.014e-4
-1.260, 5.736e-4
-1.259, 5.459e-4
-1.258, 5.212e-4
-1.257, 4.935e-4
-1.256, 4.719e-4
-1.255, 4.441e-4
-1.254, 4.225e-4
-1.253, 3.979e-4
-1.252, 3.732e-4
-1.251, 3.516e-4
-1.250, 3.270e-4
-1.249, 3.054e-4
-1.248, 2.838e-4
-1.247, 2.591e-4
-1.246, 2.376e-4
-1.245, 2.160e-4
-1.244, 1.944e-4
-1.243, 1.759e-4
-1.242, 1.543e-4
-1.241, 1.358e-4
-1.240, 1.173e-4
-1.239, 9.882e-5
-1.238, 8.032e-5
-1.237, 6.182e-5
-1.236, 4.332e-5
-1.235, 2.482e-5
-1.234, 6.322e-6
-1.233, -1.218e-5
-1.232, -3.068e-5
-1.231, -4.609e-5
-1.230, -6.459e-5
-1.229, -8.309e-5
-1.228, -9.850e-5
-1.227, -1.108e-4
-1.226, -1.263e-4
-1.225, -1.417e-4
-1.224, -1.540e-4
-1.223, -1.694e-4
-1.222, -1.817e-4
-1.221, -1.972e-4
-1.220, -2.126e-4
-1.219, -2.249e-4
-1.218, -2.372e-4
-1.217, -2.527e-4
-1.216, -2.650e-4
-1.215, -2.773e-4
-1.214, -2.897e-4
-1.213, -2.989e-4
-1.212, -3.112e-4
-1.211, -3.205e-4
-1.210, -3.328e-4
-1.209, -3.452e-4
-1.208, -3.544e-4
-1.207, -3.637e-4
-1.206, -3.760e-4
-1.205, -3.883e-4
-1.204, -3.976e-4
-1.203, -4.099e-4
-1.202, -4.191e-4
-1.201, -4.284e-4
-1.200, -4.376e-4
-1.199, -4.469e-4
-1.198, -4.561e-4
-1.197, -4.654e-4
-1.196, -4.716e-4
-1.195, -4.808e-4
-1.194, -4.870e-4
-1.193, -4.962e-4
-1.192, -5.055e-4
-1.191, -5.147e-4
-1.190, -5.240e-4
-1.189, -5.332e-4
-1.188, -5.425e-4
-1.187, -5.486e-4
-1.186, -5.548e-4
-1.185, -5.641e-4
-1.184, -5.671e-4
-1.183, -5.733e-4
-1.182, -5.795e-4
-1.181, -5.856e-4
-1.180, -5.918e-4
-1.179, -5.980e-4
-1.178, -6.041e-4
-1.177, -6.134e-4
-1.176, -6.195e-4
-1.175, -6.257e-4
-1.174, -6.319e-4
-1.173, -6.380e-4
-1.172, -6.442e-4
-1.171, -6.504e-4
-1.170, -6.565e-4
-1.169, -6.596e-4
-1.168, -6.658e-4
-1.167, -6.689e-4
-1.166, -6.750e-4
-1.165, -6.812e-4
-1.164, -6.843e-4
-1.163, -6.905e-4
-1.162, -6.935e-4
-1.161, -6.997e-4
-1.160, -7.059e-4
-1.159, -7.120e-4
-1.158, -7.182e-4
-1.157, -7.213e-4
-1.156, -7.275e-4
-1.155, -7.305e-4
-1.154, -7.367e-4
-1.153, -7.398e-4
-1.152, -7.429e-4
-1.151, -7.429e-4
-1.150, -7.460e-4
-1.149, -7.490e-4
-1.148, -7.552e-4
-1.147, -7.583e-4
-1.146, -7.614e-4
-1.145, -7.645e-4
-1.144, -7.706e-4
-1.143, -7.768e-4
-1.142, -7.799e-4
-1.141, -7.860e-4
-1.140, -7.891e-4
-1.139, -7.922e-4
-1.138, -7.984e-4
-1.137, -7.984e-4
-1.136, -8.015e-4
-1.135, -8.045e-4
-1.134, -8.076e-4
-1.133, -8.107e-4
-1.132, -8.107e-4
-1.131, -8.169e-4
-1.130, -8.200e-4
-1.129, -8.230e-4
-1.128, -8.261e-4
-1.127, -8.323e-4
-1.126, -8.354e-4
-1.125, -8.385e-4
-1.124, -8.415e-4
-1.123, -8.446e-4
-1.122, -8.446e-4
-1.121, -8.477e-4
-1.120, -8.508e-4
-1.119, -8.508e-4
-1.118, -8.508e-4
-1.117, -8.508e-4
-1.116, -8.539e-4
-1.115, -8.569e-4
-1.114, -8.600e-4
-1.113, -8.600e-4
-1.112, -8.631e-4
-1.111, -8.662e-4
-1.110, -8.693e-4
-1.109, -8.724e-4
-1.108, -8.785e-4
-1.107, -8.785e-4
-1.106, -8.816e-4
-1.105, -8.847e-4
-1.104, -8.878e-4
-1.103, -8.909e-4
-1.102, -8.939e-4
-1.101, -8.970e-4
-1.100, -9.001e-4
-1.099, -9.001e-4
-1.098, -9.001e-4
-1.097, -9.032e-4
-1.096, -9.032e-4
-1.095, -9.032e-4
-1.094, -9.032e-4
-1.093, -9.032e-4
-1.092, -9.032e-4
-1.091, -9.032e-4
-1.090, -9.032e-4
-1.089, -9.063e-4
-1.088, -9.063e-4
-1.087, -9.094e-4
-1.086, -9.124e-4
-1.085, -9.124e-4
-1.084, -9.155e-4
-1.083, -9.186e-4
-1.082, -9.217e-4
-1.081, -9.217e-4
-1.080, -9.248e-4
-1.079, -9.279e-4
-1.078, -9.279e-4
-1.077, -9.309e-4
-1.076, -9.309e-4
-1.075, -9.340e-4
-1.074, -9.340e-4
-1.073, -9.371e-4
-1.072, -9.371e-4
-1.071, -9.371e-4
-1.070, -9.371e-4
-1.069, -9.371e-4
-1.068, -9.371e-4
-1.067, -9.371e-4
-1.066, -9.371e-4
-1.065, -9.371e-4
-1.064, -9.402e-4
-1.063, -9.402e-4
-1.062, -9.433e-4
-1.061, -9.433e-4
-1.060, -9.464e-4
-1.059, -9.464e-4
-1.058, -9.464e-4
-1.057, -9.464e-4
-1.056, -9.464e-4
-1.055, -9.464e-4
-1.054, -9.464e-4
-1.053, -9.464e-4
-1.052, -9.464e-4
-1.051, -9.464e-4
-1.050, -9.464e-4
-1.049, -9.464e-4
-1.048, -9.494e-4
-1.047, -9.494e-4
-1.046, -9.464e-4
-1.045, -9.494e-4
-1.044, -9.494e-4
-1.043, -9.494e-4
-1.042, -9.525e-4
-1.041, -9.556e-4
-1.040, -9.556e-4
-1.039, -9.587e-4
-1.038, -9.618e-4
-1.037, -9.618e-4
-1.036, -9.618e-4
-1.035, -9.618e-4
-1.034, -9.649e-4
-1.033, -9.649e-4
-1.032, -9.618e-4
-1.031, -9.618e-4
-1.030, -9.618e-4
-1.029, -9.618e-4
-1.028, -9.587e-4
-1.027, -9.587e-4
-1.026, -9.618e-4
-1.025, -9.649e-4
-1.024, -9.649e-4
-1.023, -9.710e-4
-1.022, -9.741e-4
-1.021, -9.741e-4
-1.020, -9.772e-4
-1.019, -9.772e-4
-1.018, -9.803e-4
-1.017, -9.803e-4
-1.016, -9.772e-4
-1.015, -9.772e-4
-1.014, -9.772e-4
-1.013, -9.772e-4
-1.012, -9.772e-4
-1.011, -9.803e-4
-1.010, -9.803e-4
-1.009, -9.803e-4
-1.008, -9.803e-4
-1.007, -9.834e-4
-1.006, -9.834e-4
-1.005, -9.864e-4
-1.004, -9.895e-4
-1.003, -9.926e-4
-1.002, -9.957e-4
-1.001, -9.957e-4
