Potential V vs RHE, Current mA cm-2
0.013299999999999867,-0.30755823659065895
0.012299999999999978,-1.0925815368857679
0.011299999999999866,-1.6594563547416883
0.010299999999999976,-2.095187435100119
0.009299999999999864,-2.4007650758709675
0.008299999999999974,-2.576189277054232
0.007299999999999862,-2.7501987669376318
0.006299999999999972,-2.924208256821031
0.00529999999999986,-3.055776407708479
0.0042999999999999705,-3.1859298472960624
0.0032999999999998586,-3.2297858975918787
0.0022999999999999687,-3.273641947887695
0.0012999999999998568,-3.361354048479327
0.00029999999999996696,-3.403795387475278
-0.000700000000000145,-3.4915074880669104
-0.0017000000000000348,-3.4915074880669104
-0.0027000000000001467,-3.4915074880669104
-0.0037000000000000366,-3.5353635383627267
-0.0047000000000001485,-3.623075638954359
-0.005700000000000038,-3.6655169779503103
-0.00670000000000015,-3.7093730282461257
-0.00770000000000004,-3.6655169779503103
-0.008700000000000152,-3.7093730282461257
-0.009700000000000042,-3.7532290785419424
-0.010700000000000154,-3.7532290785419424
-0.011700000000000044,-3.7970851288377587
-0.012700000000000156,-3.7970851288377587
-0.013700000000000045,-3.7970851288377587
-0.014700000000000157,-3.840941179133574
-0.015700000000000047,-3.840941179133574
-0.01670000000000016,-3.840941179133574
-0.01770000000000005,-3.840941179133574
-0.01870000000000016,-3.884797229429391
-0.01970000000000005,-3.971094618721158
-0.020700000000000163,-3.927238568425342
-0.021700000000000053,-3.927238568425342
-0.022700000000000164,-3.884797229429391
-0.023700000000000054,-3.927238568425342
-0.024700000000000166,-4.014950669016974
-0.025700000000000056,-4.014950669016974
-0.026700000000000168,-3.971094618721158
-0.027700000000000058,-3.971094618721158
-0.02870000000000017,-3.971094618721158
-0.02970000000000006,-4.0588067193127895
-0.03070000000000017,-4.0588067193127895
-0.03170000000000006,-4.0588067193127895
-0.03270000000000017,-4.014950669016974
-0.03370000000000006,-4.014950669016974
-0.034700000000000175,-4.0588067193127895
-0.035700000000000065,-4.102662769608606
-0.03670000000000018,-4.102662769608606
-0.03770000000000007,-4.0588067193127895
-0.03870000000000018,-4.102662769608606
-0.03970000000000007,-4.102662769608606
-0.04070000000000018,-4.146518819904423
-0.04170000000000007,-4.102662769608606
-0.04270000000000018,-4.102662769608606
-0.04370000000000007,-4.146518819904423
-0.044700000000000184,-4.1889601589003735
-0.045700000000000074,-4.1889601589003735
-0.046700000000000186,-4.146518819904423
-0.047700000000000076,-4.146518819904423
-0.04870000000000019,-4.1889601589003735
-0.04970000000000008,-4.1889601589003735
-0.05070000000000019,-4.23281620919619
-0.05170000000000008,-4.1889601589003735
-0.05270000000000019,-4.1889601589003735
-0.05370000000000008,-4.23281620919619
-0.05470000000000019,-4.276672259492005
-0.05570000000000008,-4.23281620919619
-0.056700000000000195,-4.23281620919619
-0.057700000000000085,-4.1889601589003735
-0.058700000000000196,-4.1889601589003735
-0.059700000000000086,-4.276672259492005
-0.0607000000000002,-4.276672259492005
-0.06170000000000009,-4.3205283097878215
-0.0627000000000002,-4.276672259492005
-0.06370000000000009,-4.276672259492005
-0.0647000000000002,-4.3205283097878215
-0.06570000000000009,-4.3205283097878215
-0.0667000000000002,-4.3205283097878215
-0.0677000000000001,-4.3205283097878215
-0.0687000000000002,-4.3205283097878215
-0.0697000000000001,-4.364384360083638
-0.07070000000000021,-4.364384360083638
-0.0717000000000001,-4.3205283097878215
-0.07270000000000021,-4.364384360083638
-0.0737000000000001,-4.364384360083638
-0.07470000000000021,-4.406825699079589
-0.0757000000000001,-4.406825699079589
-0.07670000000000021,-4.364384360083638
-0.0777000000000001,-4.364384360083638
-0.07870000000000021,-4.406825699079589
-0.0797000000000001,-4.450681749375406
-0.08070000000000022,-4.450681749375406
-0.0817000000000001,-4.450681749375406
-0.08270000000000022,-4.406825699079589
-0.08370000000000011,-4.450681749375406
-0.08470000000000022,-4.494537799671222
-0.08570000000000011,-4.538393849967037
-0.08670000000000022,-4.494537799671222
-0.08770000000000011,-4.406825699079589
-0.08870000000000022,-4.450681749375406
-0.08970000000000011,-4.538393849967037
-0.09070000000000022,-4.538393849967037
-0.09170000000000011,-4.538393849967037
-0.09270000000000023,-4.494537799671222
-0.09370000000000012,-4.494537799671222
-0.09470000000000023,-4.538393849967037
-0.09570000000000012,-4.538393849967037
-0.09670000000000023,-4.582249900262854
-0.09770000000000012,-4.582249900262854
-0.09870000000000023,-4.538393849967037
-0.09970000000000012,-4.582249900262854
-0.10070000000000023,-4.582249900262854
-0.10170000000000012,-4.582249900262854
-0.10270000000000024,-4.582249900262854
-0.10370000000000013,-4.626105950558669
-0.10470000000000024,-4.668547289554621
-0.10570000000000013,-4.668547289554621
-0.10670000000000024,-4.626105950558669
-0.10770000000000013,-4.626105950558669
-0.10870000000000024,-4.668547289554621
-0.10970000000000013,-4.712403339850438
-0.11070000000000024,-4.712403339850438
-0.11170000000000013,-4.668547289554621
-0.11270000000000002,-4.668547289554621
-0.11370000000000013,-4.712403339850438
-0.11470000000000002,-4.756259390146253
-0.11570000000000014,-4.800115440442069
-0.11670000000000003,-4.756259390146253
-0.11770000000000014,-4.712403339850438
-0.11870000000000003,-4.756259390146253
-0.11970000000000014,-4.800115440442069
-0.12070000000000003,-4.843971490737885
-0.12170000000000014,-4.800115440442069
-0.12270000000000003,-4.756259390146253
-0.12370000000000014,-4.756259390146253
-0.12470000000000003,-4.843971490737885
-0.12570000000000014,-4.887827541033701
-0.12670000000000003,-4.843971490737885
-0.12770000000000015,-4.800115440442069
-0.12870000000000004,-4.843971490737885
-0.12970000000000015,-4.887827541033701
-0.13070000000000004,-4.9302688800296535
-0.13170000000000015,-4.9302688800296535
-0.13270000000000004,-4.887827541033701
-0.13370000000000015,-4.887827541033701
-0.13470000000000004,-4.9302688800296535
-0.13570000000000015,-4.974124930325469
-0.13670000000000004,-4.974124930325469
-0.13770000000000016,-4.9302688800296535
-0.13870000000000005,-4.974124930325469
-0.13970000000000016,-5.017980980621284
-0.14070000000000005,-5.017980980621284
-0.14170000000000016,-4.974124930325469
-0.14270000000000005,-5.017980980621284
-0.14370000000000016,-5.017980980621284
-0.14470000000000005,-5.105693081212917
-0.14570000000000016,-5.105693081212917
-0.14670000000000005,-5.0618370309171015
-0.14770000000000016,-5.0618370309171015
-0.14870000000000005,-5.0618370309171015
-0.14970000000000017,-5.105693081212917
-0.15070000000000006,-5.149549131508733
-0.15170000000000017,-5.105693081212917
-0.15270000000000006,-5.105693081212917
-0.15370000000000017,-5.105693081212917
-0.15470000000000006,-5.149549131508733
-0.15570000000000017,-5.191990470504685
-0.15670000000000006,-5.191990470504685
-0.15770000000000017,-5.149549131508733
-0.15870000000000006,-5.149549131508733
-0.15970000000000018,-5.191990470504685
-0.16070000000000007,-5.235846520800501
-0.16170000000000018,-5.235846520800501
-0.16270000000000007,-5.191990470504685
-0.16370000000000018,-5.235846520800501
-0.16470000000000007,-5.279702571096316
-0.16570000000000018,-5.279702571096316
-0.16670000000000007,-5.279702571096316
-0.16770000000000018,-5.323558621392133
-0.16870000000000007,-5.323558621392133
-0.16970000000000018,-5.323558621392133
-0.17070000000000007,-5.323558621392133
-0.17170000000000019,-5.323558621392133
-0.17270000000000008,-5.323558621392133
-0.1737000000000002,-5.367414671687949
-0.17470000000000008,-5.411270721983764
-0.1757000000000002,-5.411270721983764
-0.17670000000000008,-5.367414671687949
-0.1777000000000002,-5.367414671687949
-0.17870000000000008,-5.411270721983764
-0.1797000000000002,-5.497568111275533
-0.18070000000000008,-5.497568111275533
-0.1817000000000002,-5.453712060979717
-0.18270000000000008,-5.411270721983764
-0.1837000000000002,-5.453712060979717
-0.1847000000000001,-5.497568111275533
-0.1857000000000002,-5.5414241615713475
-0.1867000000000001,-5.497568111275533
-0.1877000000000002,-5.497568111275533
-0.1887000000000001,-5.497568111275533
-0.1897000000000002,-5.5414241615713475
-0.1907000000000001,-5.585280211867165
-0.1917000000000001,-5.585280211867165
-0.19269999999999998,-5.585280211867165
-0.1937000000000001,-5.585280211867165
-0.19469999999999998,-5.629136262162981
-0.1957000000000001,-5.629136262162981
-0.19669999999999999,-5.629136262162981
-0.1977000000000001,-5.629136262162981
-0.1987,-5.672992312458796
-0.1997000000000001,-5.715433651454749
-0.2007,-5.715433651454749
-0.2017000000000001,-5.715433651454749
-0.2027,-5.672992312458796
-0.2037000000000001,-5.715433651454749
-0.2047,-5.759289701750564
-0.2057000000000001,-5.759289701750564
-0.2067,-5.759289701750564
-0.2077000000000001,-5.759289701750564
-0.2087,-5.80314575204638
-0.2097000000000001,-5.847001802342197
-0.2107,-5.847001802342197
-0.2117000000000001,-5.847001802342197
-0.2127,-5.847001802342197
-0.2137000000000001,-5.847001802342197
-0.2147,-5.890857852638012
-0.2157000000000001,-5.977155241929781
-0.2167,-5.977155241929781
-0.21770000000000012,-5.9347139029338285
-0.2187,-5.977155241929781
-0.21970000000000012,-5.977155241929781
-0.2207,-6.021011292225596
-0.22170000000000012,-5.977155241929781
-0.2227,-6.021011292225596
-0.22370000000000012,-6.064867342521412
-0.2247,-6.152579443113044
-0.22570000000000012,-6.152579443113044
-0.2267,-6.108723392817228
-0.22770000000000012,-6.108723392817228
-0.22870000000000001,-6.196435493408861
-0.22970000000000013,-6.282732882700628
-0.23070000000000002,-6.282732882700628
-0.23170000000000013,-6.282732882700628
-0.23270000000000002,-6.282732882700628
-0.23370000000000013,-6.326588932996443
-0.23470000000000002,-6.37044498329226
-0.23570000000000013,-6.458157083883892
-0.23670000000000002,-6.458157083883892
-0.2376999999999999,-6.500598422879844
-0.23870000000000002,-6.500598422879844
-0.2396999999999999,-6.54445447317566
-0.24070000000000003,-6.588310523471475
-0.24169999999999991,-6.632166573767292
-0.24270000000000003,-6.6760226240631075
-0.24369999999999992,-6.719878674358924
-0.24470000000000003,-6.762320013354876
-0.24569999999999992,-6.806176063650692
-0.24670000000000003,-6.850032113946507
-0.24769999999999992,-6.893888164242324
-0.24870000000000003,-6.93774421453814
-0.24969999999999992,-7.024041603829907
-0.25070000000000003,-7.067897654125724
-0.2516999999999999,-7.155609754717355
-0.25270000000000004,-7.155609754717355
-0.2536999999999999,-7.243321855308987
-0.25470000000000004,-7.37347529489657
-0.2556999999999999,-7.4173313451923875
-0.25670000000000004,-7.461187395488204
-0.25769999999999993,-7.5474847847799715
-0.25870000000000004,-7.635196885371603
-0.25969999999999993,-7.722908985963235
-0.26070000000000004,-7.809206375255003
-0.26169999999999993,-7.853062425550818
-0.26270000000000004,-7.940774526142452
-0.26369999999999993,-8.027071915434218
-0.26470000000000005,-8.158640066321666
-0.26569999999999994,-8.288793505909249
-0.26670000000000005,-8.376505606500881
-0.26769999999999994,-8.4203616567967
-0.26870000000000005,-8.55051509638428
-0.26969999999999994,-8.725939297567548
-0.27070000000000005,-8.943804837746763
-0.27169999999999994,-9.073958277334345
-0.27270000000000005,-9.161670377925978
-0.27369999999999994,-9.24938247851761
-0.27470000000000006,-9.423391968401008
-0.27569999999999995,-9.59740145828441
-0.27670000000000006,-9.772825659467674
-0.27769999999999995,-9.902979099055257
-0.27870000000000006,-10.120844639234473
-0.27969999999999995,-10.382566229709504
-0.28070000000000006,-10.557990430892769
-0.28169999999999995,-10.731999920776168
-0.28270000000000006,-10.863568071663616
-0.28369999999999995,-11.081433611842833
-0.28470000000000006,-11.42945259160963
-0.28569999999999995,-11.73503023238048
-0.28670000000000007,-11.909039722263879
-0.28769999999999996,-12.084463923447142
-0.28870000000000007,-12.432482903213943
-0.28969999999999996,-12.781916594280606
-0.29070000000000007,-13.13135028534727
-0.29169999999999996,-13.3930718758223
-0.29270000000000007,-13.698649516593148
-0.29369999999999996,-14.090524546655764
-0.2947000000000001,-14.529085049613924
-0.29569999999999996,-14.925204213576137
-0.2967000000000001,-15.264734925543747
-0.29769999999999996,-15.660854089505953
-0.2987000000000001,-16.141855931460068
-0.29969999999999997,-16.665299112410132
-0.3007000000000001,-17.188742293360193
-0.30169999999999997,-17.75462681330621
-0.3027000000000001,-18.320511333252224
-0.30369999999999997,-18.88639585319824
-0.3047000000000001,-19.49472171214021
-0.30569999999999997,-20.10304757108217
-0.3067000000000001,-20.810403221014692
-0.3077,-21.54605309694451
-0.3087000000000001,-22.295850085872978
-0.3097,-23.073941300798747
-0.3107000000000001,-23.993503645711023
-0.3117,-24.870624651627345
-0.3127000000000001,-25.648715866553115
-0.3137,-26.568278211465387
-0.3147000000000001,-27.615164573365515
-0.3157,-28.746933613257543
-0.3167000000000001,-29.836261314153624
-0.3177,-30.8407063370578
-0.3187000000000001,-31.930034037953877
-0.3197,-33.10424441684186
-0.3207000000000001,-34.33504324772444
-0.3217,-35.594136304604326
-0.3227000000000001,-37.037141830466666
-0.3237,-38.5650300343209
-0.3247000000000001,-39.86656443019674
-0.3257,-41.139804600075266
-0.3267000000000001,-42.3564563179592
-0.3277,-43.75702050482558
-0.3287000000000001,-45.36979138667173
-0.3297,-46.982562268517874
-0.3307000000000001,-48.32653800338966
-0.3317,-49.72710219025603
-0.3327000000000001,-51.127666377122424
-0.3337,-52.59896612898206
-0.3347000000000001,-54.31076680181876
-0.3357,-56.05086170065276
-0.3367000000000001,-57.57874990450699
-0.3377,-58.79540162239092
-0.3387000000000001,-60.06864179226946
-0.3397,-61.49750020513315
-0.3407000000000001,-63.15271242597524
-0.3417,-64.82207175981598
-0.3427000000000001,-66.16604749468777
-0.3437,-67.48172900356225
-0.3447000000000001,-68.86814607742998
-0.3457,-70.35359294228827
-0.3467000000000001,-71.96636382413442
-0.3477,-73.49425202798865
-0.3487000000000001,-74.8523748758591
-0.3497,-76.11146793273898
-0.3507000000000001,-77.38470810261751
-0.3517,-78.77112517648524
-0.3527000000000001,-80.38389605833139
-0.3537,-82.13813807016405
-0.3547000000000001,-83.43967246603985
-0.3557,-84.40167614994809
-0.35670000000000013,-85.44856251184822
-0.3577,-86.75009690772404
-0.35870000000000013,-88.5043389195567
-0.3597,-90.32931649638259
-0.36070000000000013,-91.60255666626112
-0.3617,-92.50797189817473
-0.3626999999999999,-93.69632939006138
-0.3637,-94.87053976894937
-0.3646999999999999,-96.12963282582925
-0.3657,-97.57263835169158
-0.3666999999999999,-99.05808521654988
-0.3677,-100.35961961242569
-0.3686999999999999,-101.44894731332178
-0.36970000000000003,-102.4958336752219
-0.3706999999999999,-103.68419116710854
-0.37170000000000003,-105.25452070995874
-0.3726999999999999,-106.73996757481702
-0.37370000000000003,-107.78685393671715
-0.3746999999999999,-108.87618163761321
-0.37570000000000003,-109.9655093385093
-0.3766999999999999,-111.13971971739728
-0.37770000000000004,-112.44125411327312
-0.3786999999999999,-113.84181830013951
-0.37970000000000004,-115.32726516499778
-0.3806999999999999,-116.67124089986959
-0.38170000000000004,-117.67568592277377
-0.38269999999999993,-118.55280692869007
-0.38370000000000004,-119.47236927360234
-0.38469999999999993,-120.81634500847414
-0.38570000000000004,-122.69791103729463
-0.38669999999999993,-123.43356091322445
-0.38570000000000004,-121.96226116136481
-0.38469999999999993,-120.33534316652002
-0.38370000000000004,-119.03380877064419
-0.38269999999999993,-118.29815889471436
-0.38170000000000004,-117.90203973075215
-0.3806999999999999,-117.19468408081964
-0.37970000000000004,-116.10535637992358
-0.3786999999999999,-115.10091135701937
-0.37770000000000004,-113.79937696114357
-0.3766999999999999,-112.31393009628526
-0.37570000000000003,-110.92751302241753
-0.3746999999999999,-110.40406984146746
-0.37370000000000003,-110.3050400504769
-0.3726999999999999,-109.52694883555114
-0.37170000000000003,-107.914177953705
-0.3706999999999999,-106.59849644483052
-0.36970000000000003,-105.38184472694657
-0.3686999999999999,-104.3773997040424
-0.3677,-103.50027869812607
-0.3666999999999999,-102.36850965823406
-0.3657,-101.19429927934607
-0.3646999999999999,-100.2747369344338
-0.3637,-99.31273325052557
-0.3626999999999999,-98.05364019364569
-0.3617,-96.73795868477121
-0.36070000000000013,-95.74766077486568
-0.3597,-95.08274646392913
-0.35870000000000013,-94.38953792699526
-0.3577,-93.42753424308701
-0.35670000000000013,-92.25332386419905
-0.3557,-90.85275967733266
-0.3547000000000001,-89.59366662045278
-0.3537,-88.5892215975486
-0.3527000000000001,-87.93845439961068
-0.3517,-87.10377473269031
-0.3507000000000001,-86.22665372677399
-0.3497,-85.36367983385631
-0.3487000000000001,-84.23191079396429
-0.3477,-82.95867062408576
-0.3467000000000001,-81.78446024519776
-0.3457,-81.1761343862558
-0.3447000000000001,-80.61024986630979
-0.3437,-79.73312886039348
-0.3427000000000001,-78.60135982050144
-0.3417,-77.55447345860131
-0.3407000000000001,-76.46514575770523
-0.3397,-75.46070073480107
-0.3387000000000001,-74.66846240687663
-0.3377,-73.72060583596706
-0.3367000000000001,-72.92836750804264
-0.3357,-72.10783495412092
-0.3347000000000001,-71.10338993121674
-0.3337,-69.95747377832606
-0.3327000000000001,-68.82570473843404
-0.3317,-68.0900548625042
-0.3307000000000001,-67.52417034255821
-0.3297,-66.60460799764593
-0.3287000000000001,-65.38795627976201
-0.3277,-64.29862857886593
-0.3267000000000001,-63.37906623395363
-0.3257,-62.501945228037314
-0.3247000000000001,-61.7662953521075
-0.3237,-61.07308681517363
-0.3227000000000001,-60.28084848724921
-0.3217,-59.27640346434504
-0.3207000000000001,-58.14463442445301
-0.3197,-57.30995475753264
-0.3187000000000001,-56.82895291557852
-0.3177,-56.30550973462846
-0.3167000000000001,-55.484977180706736
-0.3157,-54.480532157802564
-0.3147000000000001,-53.64585249088219
-0.3137,-52.91020261495237
-0.3127000000000001,-51.990640270040096
-0.3117,-51.29743173310623
-0.3107000000000001,-50.60422319617236
-0.3097,-49.81198486824794
-0.3087000000000001,-48.89242252333566
-0.3077,-47.987007291422046
-0.3067000000000001,-47.23721030249357
-0.30569999999999997,-46.628884443551605
-0.3047000000000001,-45.97811724561369
-0.30369999999999997,-45.05855490070142
-0.3027000000000001,-44.181433894785094
-0.30169999999999997,-43.53066669684718
-0.3007000000000001,-42.79501682091736
-0.29969999999999997,-41.96033715399699
-0.2987000000000001,-41.139804600075266
-0.29769999999999996,-40.4748902891387
-0.2967000000000001,-39.90900576919269
-0.29569999999999996,-39.258238571254765
-0.2947000000000001,-38.46600024333035
-0.29369999999999996,-37.73035036740053
-0.29270000000000007,-37.07958316946261
-0.29169999999999996,-36.4288159715247
-0.29070000000000007,-35.721460321592176
-0.28969999999999996,-35.198017140642115
-0.28870000000000007,-34.8018979766799
-0.28769999999999996,-34.193572117737936
-0.28670000000000007,-33.373039563816214
-0.28569999999999995,-32.58080123589179
-0.28470000000000006,-31.887592698957924
-0.28369999999999995,-31.36414951800786
-0.28270000000000006,-30.8407063370578
-0.28169999999999995,-30.04846800913338
-0.28070000000000006,-29.39770081119546
-0.27969999999999995,-28.8742576302454
-0.27870000000000006,-28.308373110299385
-0.27769999999999995,-27.700047251357418
-0.27670000000000006,-27.049280053419505
-0.27569999999999995,-26.440954194477534
-0.27470000000000006,-25.959952352523427
-0.27369999999999994,-25.43650917157336
-0.27270000000000005,-24.814036199632742
-0.27169999999999994,-24.20571034069078
-0.27070000000000005,-23.639825820744765
-0.26969999999999994,-23.1163826397947
-0.26870000000000005,-22.63538079784059
-0.26769999999999994,-22.111937616890522
-0.26670000000000005,-21.63093577493641
-0.26569999999999994,-21.149933932982297
-0.26470000000000005,-20.683079204026836
