June 28, 2026   02:36:54
Linear Sweep Voltammetry
File: c:/users/guazh/data/20260623_doe_duplica2/2026-06-24-exp28\1acid_2ac-2026-06-28t02_33_41-lsvinphos\1acid_2ac_lsv_50mvs_efin_-2300mv.bin
Data Source:  Experiment
Instrument Model:  CHI760E
Header: LSV ran at 50 mVs with Efin at -2300mV
Note: 

Init E (V) = -0.6
Final E (V) = -2.3
Scan Rate (V/s) = 0.05
Sample Interval (V) = 0.001
Quiet Time (sec) = 2
Sensitivity (A/V) = 1e-4
Comp R (ohm) = 9.6

Results:

Channel 1:
Ep = -2.091V
ip = 5.038e-4A
Ah = 7.175e-4C

Potential/V, Current/A

-0.600, 2.029e-6
-0.601, 2.104e-6
-0.602, 2.139e-6
-0.603, 2.166e-6
-0.604, 2.191e-6
-0.605, 2.214e-6
-0.606, 2.239e-6
-0.607, 2.262e-6
-0.608, 2.284e-6
-0.609, 2.309e-6
-0.610, 2.331e-6
-0.611, 2.355e-6
-0.612, 2.377e-6
-0.613, 2.401e-6
-0.614, 2.426e-6
-0.615, 2.448e-6
-0.616, 2.470e-6
-0.617, 2.492e-6
-0.618, 2.515e-6
-0.619, 2.540e-6
-0.620, 2.563e-6
-0.621, 2.587e-6
-0.622, 2.611e-6
-0.623, 2.635e-6
-0.624, 2.658e-6
-0.625, 2.682e-6
-0.626, 2.707e-6
-0.627, 2.729e-6
-0.628, 2.753e-6
-0.629, 2.778e-6
-0.630, 2.803e-6
-0.631, 2.828e-6
-0.632, 2.851e-6
-0.633, 2.877e-6
-0.634, 2.903e-6
-0.635, 2.928e-6
-0.636, 2.953e-6
-0.637, 2.979e-6
-0.638, 3.004e-6
-0.639, 3.029e-6
-0.640, 3.056e-6
-0.641, 3.082e-6
-0.642, 3.109e-6
-0.643, 3.135e-6
-0.644, 3.163e-6
-0.645, 3.189e-6
-0.646, 3.216e-6
-0.647, 3.242e-6
-0.648, 3.266e-6
-0.649, 3.295e-6
-0.650, 3.321e-6
-0.651, 3.350e-6
-0.652, 3.378e-6
-0.653, 3.406e-6
-0.654, 3.435e-6
-0.655, 3.462e-6
-0.656, 3.490e-6
-0.657, 3.519e-6
-0.658, 3.545e-6
-0.659, 3.576e-6
-0.660, 3.603e-6
-0.661, 3.634e-6
-0.662, 3.662e-6
-0.663, 3.690e-6
-0.664, 3.722e-6
-0.665, 3.750e-6
-0.666, 3.782e-6
-0.667, 3.810e-6
-0.668, 3.840e-6
-0.669, 3.871e-6
-0.670, 3.900e-6
-0.671, 3.929e-6
-0.672, 3.960e-6
-0.673, 3.991e-6
-0.674, 4.021e-6
-0.675, 4.051e-6
-0.676, 4.082e-6
-0.677, 4.112e-6
-0.678, 4.143e-6
-0.679, 4.173e-6
-0.680, 4.203e-6
-0.681, 4.233e-6
-0.682, 4.263e-6
-0.683, 4.294e-6
-0.684, 4.327e-6
-0.685, 4.358e-6
-0.686, 4.390e-6
-0.687, 4.421e-6
-0.688, 4.454e-6
-0.689, 4.487e-6
-0.690, 4.519e-6
-0.691, 4.553e-6
-0.692, 4.585e-6
-0.693, 4.616e-6
-0.694, 4.650e-6
-0.695, 4.681e-6
-0.696, 4.714e-6
-0.697, 4.746e-6
-0.698, 4.779e-6
-0.699, 4.812e-6
-0.700, 4.845e-6
-0.701, 4.877e-6
-0.702, 4.909e-6
-0.703, 4.942e-6
-0.704, 4.977e-6
-0.705, 5.009e-6
-0.706, 5.043e-6
-0.707, 5.075e-6
-0.708, 5.109e-6
-0.709, 5.142e-6
-0.710, 5.173e-6
-0.711, 5.208e-6
-0.712, 5.240e-6
-0.713, 5.273e-6
-0.714, 5.307e-6
-0.715, 5.340e-6
-0.716, 5.374e-6
-0.717, 5.407e-6
-0.718, 5.439e-6
-0.719, 5.473e-6
-0.720, 5.506e-6
-0.721, 5.539e-6
-0.722, 5.572e-6
-0.723, 5.605e-6
-0.724, 5.638e-6
-0.725, 5.670e-6
-0.726, 5.701e-6
-0.727, 5.735e-6
-0.728, 5.769e-6
-0.729, 5.802e-6
-0.730, 5.835e-6
-0.731, 5.867e-6
-0.732, 5.897e-6
-0.733, 5.927e-6
-0.734, 5.958e-6
-0.735, 5.989e-6
-0.736, 6.022e-6
-0.737, 6.054e-6
-0.738, 6.085e-6
-0.739, 6.118e-6
-0.740, 6.148e-6
-0.741, 6.178e-6
-0.742, 6.207e-6
-0.743, 6.237e-6
-0.744, 6.267e-6
-0.745, 6.298e-6
-0.746, 6.329e-6
-0.747, 6.359e-6
-0.748, 6.390e-6
-0.749, 6.421e-6
-0.750, 6.450e-6
-0.751, 6.479e-6
-0.752, 6.508e-6
-0.753, 6.537e-6
-0.754, 6.566e-6
-0.755, 6.596e-6
-0.756, 6.623e-6
-0.757, 6.652e-6
-0.758, 6.680e-6
-0.759, 6.708e-6
-0.760, 6.733e-6
-0.761, 6.762e-6
-0.762, 6.789e-6
-0.763, 6.816e-6
-0.764, 6.844e-6
-0.765, 6.869e-6
-0.766, 6.895e-6
-0.767, 6.920e-6
-0.768, 6.947e-6
-0.769, 6.973e-6
-0.770, 6.996e-6
-0.771, 7.022e-6
-0.772, 7.045e-6
-0.773, 7.068e-6
-0.774, 7.094e-6
-0.775, 7.116e-6
-0.776, 7.139e-6
-0.777, 7.162e-6
-0.778, 7.183e-6
-0.779, 7.206e-6
-0.780, 7.226e-6
-0.781, 7.248e-6
-0.782, 7.268e-6
-0.783, 7.289e-6
-0.784, 7.310e-6
-0.785, 7.329e-6
-0.786, 7.348e-6
-0.787, 7.368e-6
-0.788, 7.386e-6
-0.789, 7.405e-6
-0.790, 7.422e-6
-0.791, 7.440e-6
-0.792, 7.458e-6
-0.793, 7.474e-6
-0.794, 7.493e-6
-0.795, 7.508e-6
-0.796, 7.524e-6
-0.797, 7.540e-6
-0.798, 7.556e-6
-0.799, 7.570e-6
-0.800, 7.584e-6
-0.801, 7.599e-6
-0.802, 7.612e-6
-0.803, 7.626e-6
-0.804, 7.639e-6
-0.805, 7.650e-6
-0.806, 7.665e-6
-0.807, 7.676e-6
-0.808, 7.687e-6
-0.809, 7.699e-6
-0.810, 7.709e-6
-0.811, 7.720e-6
-0.812, 7.731e-6
-0.813, 7.740e-6
-0.814, 7.751e-6
-0.815, 7.758e-6
-0.816, 7.767e-6
-0.817, 7.774e-6
-0.818, 7.783e-6
-0.819, 7.793e-6
-0.820, 7.803e-6
-0.821, 7.807e-6
-0.822, 7.814e-6
-0.823, 7.819e-6
-0.824, 7.825e-6
-0.825, 7.830e-6
-0.826, 7.836e-6
-0.827, 7.841e-6
-0.828, 7.844e-6
-0.829, 7.849e-6
-0.830, 7.851e-6
-0.831, 7.855e-6
-0.832, 7.859e-6
-0.833, 7.860e-6
-0.834, 7.863e-6
-0.835, 7.865e-6
-0.836, 7.868e-6
-0.837, 7.871e-6
-0.838, 7.872e-6
-0.839, 7.874e-6
-0.840, 7.874e-6
-0.841, 7.873e-6
-0.842, 7.872e-6
-0.843, 7.872e-6
-0.844, 7.872e-6
-0.845, 7.871e-6
-0.846, 7.870e-6
-0.847, 7.868e-6
-0.848, 7.866e-6
-0.849, 7.865e-6
-0.850, 7.861e-6
-0.851, 7.860e-6
-0.852, 7.857e-6
-0.853, 7.853e-6
-0.854, 7.850e-6
-0.855, 7.846e-6
-0.856, 7.842e-6
-0.857, 7.840e-6
-0.858, 7.835e-6
-0.859, 7.831e-6
-0.860, 7.827e-6
-0.861, 7.821e-6
-0.862, 7.817e-6
-0.863, 7.811e-6
-0.864, 7.806e-6
-0.865, 7.801e-6
-0.866, 7.795e-6
-0.867, 7.789e-6
-0.868, 7.783e-6
-0.869, 7.777e-6
-0.870, 7.770e-6
-0.871, 7.766e-6
-0.872, 7.759e-6
-0.873, 7.752e-6
-0.874, 7.746e-6
-0.875, 7.738e-6
-0.876, 7.729e-6
-0.877, 7.723e-6
-0.878, 7.715e-6
-0.879, 7.708e-6
-0.880, 7.700e-6
-0.881, 7.692e-6
-0.882, 7.684e-6
-0.883, 7.676e-6
-0.884, 7.668e-6
-0.885, 7.659e-6
-0.886, 7.652e-6
-0.887, 7.644e-6
-0.888, 7.635e-6
-0.889, 7.627e-6
-0.890, 7.619e-6
-0.891, 7.609e-6
-0.892, 7.601e-6
-0.893, 7.591e-6
-0.894, 7.584e-6
-0.895, 7.573e-6
-0.896, 7.565e-6
-0.897, 7.557e-6
-0.898, 7.547e-6
-0.899, 7.539e-6
-0.900, 7.529e-6
-0.901, 7.520e-6
-0.902, 7.511e-6
-0.903, 7.501e-6
-0.904, 7.492e-6
-0.905, 7.483e-6
-0.906, 7.472e-6
-0.907, 7.463e-6
-0.908, 7.453e-6
-0.909, 7.445e-6
-0.910, 7.436e-6
-0.911, 7.425e-6
-0.912, 7.417e-6
-0.913, 7.407e-6
-0.914, 7.397e-6
-0.915, 7.389e-6
-0.916, 7.379e-6
-0.917, 7.371e-6
-0.918, 7.360e-6
-0.919, 7.352e-6
-0.920, 7.341e-6
-0.921, 7.333e-6
-0.922, 7.323e-6
-0.923, 7.314e-6
-0.924, 7.305e-6
-0.925, 7.295e-6
-0.926, 7.286e-6
-0.927, 7.276e-6
-0.928, 7.268e-6
-0.929, 7.259e-6
-0.930, 7.249e-6
-0.931, 7.240e-6
-0.932, 7.231e-6
-0.933, 7.223e-6
-0.934, 7.214e-6
-0.935, 7.204e-6
-0.936, 7.194e-6
-0.937, 7.186e-6
-0.938, 7.176e-6
-0.939, 7.166e-6
-0.940, 7.157e-6
-0.941, 7.148e-6
-0.942, 7.141e-6
-0.943, 7.131e-6
-0.944, 7.122e-6
-0.945, 7.113e-6
-0.946, 7.103e-6
-0.947, 7.095e-6
-0.948, 7.085e-6
-0.949, 7.077e-6
-0.950, 7.068e-6
-0.951, 7.072e-6
-0.952, 7.075e-6
-0.953, 7.068e-6
-0.954, 7.058e-6
-0.955, 7.050e-6
-0.956, 7.041e-6
-0.957, 7.033e-6
-0.958, 7.024e-6
-0.959, 7.015e-6
-0.960, 7.009e-6
-0.961, 7.001e-6
-0.962, 6.992e-6
-0.963, 6.984e-6
-0.964, 6.976e-6
-0.965, 6.968e-6
-0.966, 6.959e-6
-0.967, 6.952e-6
-0.968, 6.944e-6
-0.969, 6.936e-6
-0.970, 6.928e-6
-0.971, 6.919e-6
-0.972, 6.912e-6
-0.973, 6.907e-6
-0.974, 6.899e-6
-0.975, 6.890e-6
-0.976, 6.883e-6
-0.977, 6.877e-6
-0.978, 6.867e-6
-0.979, 6.862e-6
-0.980, 6.856e-6
-0.981, 6.849e-6
-0.982, 6.843e-6
-0.983, 6.834e-6
-0.984, 6.827e-6
-0.985, 6.820e-6
-0.986, 6.813e-6
-0.987, 6.806e-6
-0.988, 6.799e-6
-0.989, 6.791e-6
-0.990, 6.784e-6
-0.991, 6.776e-6
-0.992, 6.770e-6
-0.993, 6.762e-6
-0.994, 6.755e-6
-0.995, 6.748e-6
-0.996, 6.742e-6
-0.997, 6.734e-6
-0.998, 6.729e-6
-0.999, 6.722e-6
-1.000, 6.716e-6
-1.001, 6.709e-6
-1.002, 6.703e-6
-1.003, 6.696e-6
-1.004, 6.691e-6
-1.005, 6.684e-6
-1.006, 6.677e-6
-1.007, 6.671e-6
-1.008, 6.668e-6
-1.009, 6.666e-6
-1.010, 6.659e-6
-1.011, 6.653e-6
-1.012, 6.648e-6
-1.013, 6.640e-6
-1.014, 6.634e-6
-1.015, 6.629e-6
-1.016, 6.623e-6
-1.017, 6.617e-6
-1.018, 6.611e-6
-1.019, 6.605e-6
-1.020, 6.599e-6
-1.021, 6.593e-6
-1.022, 6.588e-6
-1.023, 6.581e-6
-1.024, 6.577e-6
-1.025, 6.572e-6
-1.026, 6.565e-6
-1.027, 6.561e-6
-1.028, 6.556e-6
-1.029, 6.548e-6
-1.030, 6.544e-6
-1.031, 6.539e-6
-1.032, 6.533e-6
-1.033, 6.528e-6
-1.034, 6.522e-6
-1.035, 6.517e-6
-1.036, 6.512e-6
-1.037, 6.512e-6
-1.038, 6.511e-6
-1.039, 6.508e-6
-1.040, 6.503e-6
-1.041, 6.499e-6
-1.042, 6.493e-6
-1.043, 6.487e-6
-1.044, 6.483e-6
-1.045, 6.478e-6
-1.046, 6.472e-6
-1.047, 6.468e-6
-1.048, 6.461e-6
-1.049, 6.457e-6
-1.050, 6.453e-6
-1.051, 6.448e-6
-1.052, 6.443e-6
-1.053, 6.439e-6
-1.054, 6.435e-6
-1.055, 6.429e-6
-1.056, 6.424e-6
-1.057, 6.421e-6
-1.058, 6.415e-6
-1.059, 6.412e-6
-1.060, 6.406e-6
-1.061, 6.401e-6
-1.062, 6.399e-6
-1.063, 6.393e-6
-1.064, 6.389e-6
-1.065, 6.385e-6
-1.066, 6.381e-6
-1.067, 6.377e-6
-1.068, 6.372e-6
-1.069, 6.370e-6
-1.070, 6.366e-6
-1.071, 6.361e-6
-1.072, 6.357e-6
-1.073, 6.353e-6
-1.074, 6.349e-6
-1.075, 6.347e-6
-1.076, 6.342e-6
-1.077, 6.340e-6
-1.078, 6.336e-6
-1.079, 6.332e-6
-1.080, 6.328e-6
-1.081, 6.324e-6
-1.082, 6.322e-6
-1.083, 6.317e-6
-1.084, 6.314e-6
-1.085, 6.311e-6
-1.086, 6.307e-6
-1.087, 6.304e-6
-1.088, 6.301e-6
-1.089, 6.299e-6
-1.090, 6.295e-6
-1.091, 6.291e-6
-1.092, 6.290e-6
-1.093, 6.284e-6
-1.094, 6.283e-6
-1.095, 6.280e-6
-1.096, 6.278e-6
-1.097, 6.274e-6
-1.098, 6.273e-6
-1.099, 6.276e-6
-1.100, 6.275e-6
-1.101, 6.273e-6
-1.102, 6.270e-6
-1.103, 6.265e-6
-1.104, 6.263e-6
-1.105, 6.259e-6
-1.106, 6.257e-6
-1.107, 6.256e-6
-1.108, 6.253e-6
-1.109, 6.250e-6
-1.110, 6.247e-6
-1.111, 6.245e-6
-1.112, 6.243e-6
-1.113, 6.240e-6
-1.114, 6.239e-6
-1.115, 6.237e-6
-1.116, 6.234e-6
-1.117, 6.233e-6
-1.118, 6.231e-6
-1.119, 6.228e-6
-1.120, 6.227e-6
-1.121, 6.226e-6
-1.122, 6.224e-6
-1.123, 6.221e-6
-1.124, 6.220e-6
-1.125, 6.218e-6
-1.126, 6.217e-6
-1.127, 6.216e-6
-1.128, 6.214e-6
-1.129, 6.213e-6
-1.130, 6.211e-6
-1.131, 6.210e-6
-1.132, 6.209e-6
-1.133, 6.207e-6
-1.134, 6.209e-6
-1.135, 6.208e-6
-1.136, 6.207e-6
-1.137, 6.206e-6
-1.138, 6.205e-6
-1.139, 6.205e-6
-1.140, 6.205e-6
-1.141, 6.203e-6
-1.142, 6.203e-6
-1.143, 6.200e-6
-1.144, 6.200e-6
-1.145, 6.200e-6
-1.146, 6.198e-6
-1.147, 6.198e-6
-1.148, 6.196e-6
-1.149, 6.195e-6
-1.150, 6.195e-6
-1.151, 6.193e-6
-1.152, 6.195e-6
-1.153, 6.194e-6
-1.154, 6.192e-6
-1.155, 6.193e-6
-1.156, 6.192e-6
-1.157, 6.193e-6
-1.158, 6.192e-6
-1.159, 6.192e-6
-1.160, 6.192e-6
-1.161, 6.192e-6
-1.162, 6.191e-6
-1.163, 6.191e-6
-1.164, 6.192e-6
-1.165, 6.192e-6
-1.166, 6.192e-6
-1.167, 6.193e-6
-1.168, 6.192e-6
-1.169, 6.192e-6
-1.170, 6.192e-6
-1.171, 6.193e-6
-1.172, 6.194e-6
-1.173, 6.194e-6
-1.174, 6.194e-6
-1.175, 6.194e-6
-1.176, 6.194e-6
-1.177, 6.196e-6
-1.178, 6.197e-6
-1.179, 6.198e-6
-1.180, 6.198e-6
-1.181, 6.198e-6
-1.182, 6.201e-6
-1.183, 6.199e-6
-1.184, 6.200e-6
-1.185, 6.202e-6
-1.186, 6.201e-6
-1.187, 6.203e-6
-1.188, 6.204e-6
-1.189, 6.204e-6
-1.190, 6.206e-6
-1.191, 6.207e-6
-1.192, 6.208e-6
-1.193, 6.209e-6
-1.194, 6.210e-6
-1.195, 6.212e-6
-1.196, 6.212e-6
-1.197, 6.214e-6
-1.198, 6.215e-6
-1.199, 6.216e-6
-1.200, 6.218e-6
-1.201, 6.219e-6
-1.202, 6.221e-6
-1.203, 6.223e-6
-1.204, 6.224e-6
-1.205, 6.226e-6
-1.206, 6.228e-6
-1.207, 6.229e-6
-1.208, 6.231e-6
-1.209, 6.234e-6
-1.210, 6.236e-6
-1.211, 6.237e-6
-1.212, 6.238e-6
-1.213, 6.239e-6
-1.214, 6.242e-6
-1.215, 6.243e-6
-1.216, 6.246e-6
-1.217, 6.249e-6
-1.218, 6.250e-6
-1.219, 6.252e-6
-1.220, 6.255e-6
-1.221, 6.257e-6
-1.222, 6.259e-6
-1.223, 6.261e-6
-1.224, 6.263e-6
-1.225, 6.267e-6
-1.226, 6.268e-6
-1.227, 6.272e-6
-1.228, 6.274e-6
-1.229, 6.280e-6
-1.230, 6.283e-6
-1.231, 6.285e-6
-1.232, 6.289e-6
-1.233, 6.290e-6
-1.234, 6.291e-6
-1.235, 6.296e-6
-1.236, 6.299e-6
-1.237, 6.302e-6
-1.238, 6.304e-6
-1.239, 6.307e-6
-1.240, 6.310e-6
-1.241, 6.314e-6
-1.242, 6.318e-6
-1.243, 6.319e-6
-1.244, 6.322e-6
-1.245, 6.326e-6
-1.246, 6.329e-6
-1.247, 6.333e-6
-1.248, 6.336e-6
-1.249, 6.340e-6
-1.250, 6.343e-6
-1.251, 6.346e-6
-1.252, 6.350e-6
-1.253, 6.353e-6
-1.254, 6.357e-6
-1.255, 6.361e-6
-1.256, 6.364e-6
-1.257, 6.368e-6
-1.258, 6.372e-6
-1.259, 6.376e-6
-1.260, 6.379e-6
-1.261, 6.382e-6
-1.262, 6.387e-6
-1.263, 6.390e-6
-1.264, 6.393e-6
-1.265, 6.398e-6
-1.266, 6.401e-6
-1.267, 6.406e-6
-1.268, 6.409e-6
-1.269, 6.413e-6
-1.270, 6.418e-6
-1.271, 6.420e-6
-1.272, 6.425e-6
-1.273, 6.429e-6
-1.274, 6.434e-6
-1.275, 6.437e-6
-1.276, 6.442e-6
-1.277, 6.446e-6
-1.278, 6.450e-6
-1.279, 6.454e-6
-1.280, 6.461e-6
-1.281, 6.464e-6
-1.282, 6.468e-6
-1.283, 6.472e-6
-1.284, 6.476e-6
-1.285, 6.482e-6
-1.286, 6.486e-6
-1.287, 6.491e-6
-1.288, 6.495e-6
-1.289, 6.499e-6
-1.290, 6.504e-6
-1.291, 6.508e-6
-1.292, 6.513e-6
-1.293, 6.518e-6
-1.294, 6.523e-6
-1.295, 6.528e-6
-1.296, 6.532e-6
-1.297, 6.538e-6
-1.298, 6.542e-6
-1.299, 6.548e-6
-1.300, 6.552e-6
-1.301, 6.556e-6
-1.302, 6.562e-6
-1.303, 6.566e-6
-1.304, 6.571e-6
-1.305, 6.577e-6
-1.306, 6.583e-6
-1.307, 6.588e-6
-1.308, 6.593e-6
-1.309, 6.598e-6
-1.310, 6.604e-6
-1.311, 6.608e-6
-1.312, 6.614e-6
-1.313, 6.618e-6
-1.314, 6.623e-6
-1.315, 6.630e-6
-1.316, 6.635e-6
-1.317, 6.640e-6
-1.318, 6.645e-6
-1.319, 6.650e-6
-1.320, 6.656e-6
-1.321, 6.661e-6
-1.322, 6.667e-6
-1.323, 6.672e-6
-1.324, 6.677e-6
-1.325, 6.683e-6
-1.326, 6.687e-6
-1.327, 6.693e-6
-1.328, 6.699e-6
-1.329, 6.704e-6
-1.330, 6.710e-6
-1.331, 6.716e-6
-1.332, 6.722e-6
-1.333, 6.727e-6
-1.334, 6.733e-6
-1.335, 6.739e-6
-1.336, 6.744e-6
-1.337, 6.751e-6
-1.338, 6.757e-6
-1.339, 6.763e-6
-1.340, 6.769e-6
-1.341, 6.775e-6
-1.342, 6.781e-6
-1.343, 6.784e-6
-1.344, 6.793e-6
-1.345, 6.799e-6
-1.346, 6.804e-6
-1.347, 6.810e-6
-1.348, 6.817e-6
-1.349, 6.822e-6
-1.350, 6.828e-6
-1.351, 6.834e-6
-1.352, 6.842e-6
-1.353, 6.846e-6
-1.354, 6.853e-6
-1.355, 6.858e-6
-1.356, 6.864e-6
-1.357, 6.871e-6
-1.358, 6.877e-6
-1.359, 6.882e-6
-1.360, 6.890e-6
-1.361, 6.895e-6
-1.362, 6.899e-6
-1.363, 6.907e-6
-1.364, 6.913e-6
-1.365, 6.919e-6
-1.366, 6.925e-6
-1.367, 6.932e-6
-1.368, 6.937e-6
-1.369, 6.944e-6
-1.370, 6.951e-6
-1.371, 6.957e-6
-1.372, 6.964e-6
-1.373, 6.970e-6
-1.374, 6.976e-6
-1.375, 6.983e-6
-1.376, 6.990e-6
-1.377, 6.996e-6
-1.378, 7.002e-6
-1.379, 7.010e-6
-1.380, 7.016e-6
-1.381, 7.022e-6
-1.382, 7.029e-6
-1.383, 7.038e-6
-1.384, 7.043e-6
-1.385, 7.051e-6
-1.386, 7.056e-6
-1.387, 7.063e-6
-1.388, 7.070e-6
-1.389, 7.076e-6
-1.390, 7.083e-6
-1.391, 7.089e-6
-1.392, 7.098e-6
-1.393, 7.105e-6
-1.394, 7.110e-6
-1.395, 7.119e-6
-1.396, 7.127e-6
-1.397, 7.133e-6
-1.398, 7.139e-6
-1.399, 7.146e-6
-1.400, 7.154e-6
-1.401, 7.160e-6
-1.402, 7.167e-6
-1.403, 7.175e-6
-1.404, 7.182e-6
-1.405, 7.190e-6
-1.406, 7.197e-6
-1.407, 7.203e-6
-1.408, 7.211e-6
-1.409, 7.219e-6
-1.410, 7.227e-6
-1.411, 7.234e-6
-1.412, 7.241e-6
-1.413, 7.247e-6
-1.414, 7.256e-6
-1.415, 7.263e-6
-1.416, 7.270e-6
-1.417, 7.278e-6
-1.418, 7.284e-6
-1.419, 7.293e-6
-1.420, 7.300e-6
-1.421, 7.308e-6
-1.422, 7.316e-6
-1.423, 7.325e-6
-1.424, 7.332e-6
-1.425, 7.340e-6
-1.426, 7.347e-6
-1.427, 7.355e-6
-1.428, 7.363e-6
-1.429, 7.371e-6
-1.430, 7.380e-6
-1.431, 7.387e-6
-1.432, 7.396e-6
-1.433, 7.405e-6
-1.434, 7.415e-6
-1.435, 7.423e-6
-1.436, 7.429e-6
-1.437, 7.439e-6
-1.438, 7.448e-6
-1.439, 7.456e-6
-1.440, 7.466e-6
-1.441, 7.476e-6
-1.442, 7.483e-6
-1.443, 7.492e-6
-1.444, 7.501e-6
-1.445, 7.511e-6
-1.446, 7.519e-6
-1.447, 7.529e-6
-1.448, 7.538e-6
-1.449, 7.548e-6
-1.450, 7.556e-6
-1.451, 7.566e-6
-1.452, 7.575e-6
-1.453, 7.586e-6
-1.454, 7.596e-6
-1.455, 7.605e-6
-1.456, 7.615e-6
-1.457, 7.625e-6
-1.458, 7.634e-6
-1.459, 7.645e-6
-1.460, 7.656e-6
-1.461, 7.666e-6
-1.462, 7.677e-6
-1.463, 7.686e-6
-1.464, 7.696e-6
-1.465, 7.707e-6
-1.466, 7.719e-6
-1.467, 7.729e-6
-1.468, 7.741e-6
-1.469, 7.751e-6
-1.470, 7.763e-6
-1.471, 7.772e-6
-1.472, 7.784e-6
-1.473, 7.796e-6
-1.474, 7.805e-6
-1.475, 7.818e-6
-1.476, 7.830e-6
-1.477, 7.839e-6
-1.478, 7.854e-6
-1.479, 7.864e-6
-1.480, 7.878e-6
-1.481, 7.890e-6
-1.482, 7.899e-6
-1.483, 7.913e-6
-1.484, 7.925e-6
-1.485, 7.941e-6
-1.486, 7.953e-6
-1.487, 7.964e-6
-1.488, 7.978e-6
-1.489, 7.990e-6
-1.490, 8.003e-6
-1.491, 8.017e-6
-1.492, 8.027e-6
-1.493, 8.043e-6
-1.494, 8.054e-6
-1.495, 8.068e-6
-1.496, 8.082e-6
-1.497, 8.096e-6
-1.498, 8.110e-6
-1.499, 8.125e-6
-1.500, 8.139e-6
-1.501, 8.153e-6
-1.502, 8.170e-6
-1.503, 8.184e-6
-1.504, 8.199e-6
-1.505, 8.216e-6
-1.506, 8.230e-6
-1.507, 8.246e-6
-1.508, 8.263e-6
-1.509, 8.277e-6
-1.510, 8.295e-6
-1.511, 8.310e-6
-1.512, 8.326e-6
-1.513, 8.341e-6
-1.514, 8.357e-6
-1.515, 8.374e-6
-1.516, 8.389e-6
-1.517, 8.405e-6
-1.518, 8.424e-6
-1.519, 8.439e-6
-1.520, 8.458e-6
-1.521, 8.475e-6
-1.522, 8.489e-6
-1.523, 8.510e-6
-1.524, 8.527e-6
-1.525, 8.545e-6
-1.526, 8.563e-6
-1.527, 8.580e-6
-1.528, 8.598e-6
-1.529, 8.616e-6
-1.530, 8.634e-6
-1.531, 8.652e-6
-1.532, 8.671e-6
-1.533, 8.690e-6
-1.534, 8.710e-6
-1.535, 8.728e-6
-1.536, 8.750e-6
-1.537, 8.770e-6
-1.538, 8.789e-6
-1.539, 8.809e-6
-1.540, 8.830e-6
-1.541, 8.849e-6
-1.542, 8.868e-6
-1.543, 8.888e-6
-1.544, 8.909e-6
-1.545, 8.932e-6
-1.546, 8.951e-6
-1.547, 8.974e-6
-1.548, 8.995e-6
-1.549, 9.018e-6
-1.550, 9.043e-6
-1.551, 9.062e-6
-1.552, 9.085e-6
-1.553, 9.108e-6
-1.554, 9.126e-6
-1.555, 9.153e-6
-1.556, 9.176e-6
-1.557, 9.199e-6
-1.558, 9.223e-6
-1.559, 9.247e-6
-1.560, 9.272e-6
-1.561, 9.297e-6
-1.562, 9.321e-6
-1.563, 9.346e-6
-1.564, 9.369e-6
-1.565, 9.391e-6
-1.566, 9.417e-6
-1.567, 9.440e-6
-1.568, 9.467e-6
-1.569, 9.493e-6
-1.570, 9.517e-6
-1.571, 9.545e-6
-1.572, 9.571e-6
-1.573, 9.599e-6
-1.574, 9.630e-6
-1.575, 9.656e-6
-1.576, 9.681e-6
-1.577, 9.707e-6
-1.578, 9.734e-6
-1.579, 9.762e-6
-1.580, 9.789e-6
-1.581, 9.819e-6
-1.582, 9.848e-6
-1.583, 9.874e-6
-1.584, 9.903e-6
-1.585, 9.932e-6
-1.586, 9.962e-6
-1.587, 9.994e-6
-1.588, 1.003e-5
-1.589, 1.005e-5
-1.590, 1.008e-5
-1.591, 1.011e-5
-1.592, 1.014e-5
-1.593, 1.017e-5
-1.594, 1.020e-5
-1.595, 1.023e-5
-1.596, 1.026e-5
-1.597, 1.030e-5
-1.598, 1.033e-5
-1.599, 1.036e-5
-1.600, 1.039e-5
-1.601, 1.043e-5
-1.602, 1.046e-5
-1.603, 1.050e-5
-1.604, 1.053e-5
-1.605, 1.056e-5
-1.606, 1.060e-5
-1.607, 1.063e-5
-1.608, 1.067e-5
-1.609, 1.071e-5
-1.610, 1.074e-5
-1.611, 1.078e-5
-1.612, 1.082e-5
-1.613, 1.085e-5
-1.614, 1.089e-5
-1.615, 1.093e-5
-1.616, 1.097e-5
-1.617, 1.100e-5
-1.618, 1.104e-5
-1.619, 1.108e-5
-1.620, 1.112e-5
-1.621, 1.116e-5
-1.622, 1.120e-5
-1.623, 1.124e-5
-1.624, 1.128e-5
-1.625, 1.133e-5
-1.626, 1.137e-5
-1.627, 1.141e-5
-1.628, 1.145e-5
-1.629, 1.150e-5
-1.630, 1.154e-5
-1.631, 1.158e-5
-1.632, 1.163e-5
-1.633, 1.168e-5
-1.634, 1.172e-5
-1.635, 1.177e-5
-1.636, 1.182e-5
-1.637, 1.186e-5
-1.638, 1.192e-5
-1.639, 1.197e-5
-1.640, 1.201e-5
-1.641, 1.205e-5
-1.642, 1.209e-5
-1.643, 1.214e-5
-1.644, 1.219e-5
-1.645, 1.225e-5
-1.646, 1.230e-5
-1.647, 1.235e-5
-1.648, 1.241e-5
-1.649, 1.246e-5
-1.650, 1.252e-5
-1.651, 1.257e-5
-1.652, 1.263e-5
-1.653, 1.269e-5
-1.654, 1.275e-5
-1.655, 1.281e-5
-1.656, 1.287e-5
-1.657, 1.293e-5
-1.658, 1.299e-5
-1.659, 1.305e-5
-1.660, 1.311e-5
-1.661, 1.318e-5
-1.662, 1.324e-5
-1.663, 1.331e-5
-1.664, 1.337e-5
-1.665, 1.344e-5
-1.666, 1.351e-5
-1.667, 1.358e-5
-1.668, 1.365e-5
-1.669, 1.372e-5
-1.670, 1.380e-5
-1.671, 1.387e-5
-1.672, 1.394e-5
-1.673, 1.402e-5
-1.674, 1.409e-5
-1.675, 1.417e-5
-1.676, 1.425e-5
-1.677, 1.432e-5
-1.678, 1.441e-5
-1.679, 1.449e-5
-1.680, 1.457e-5
-1.681, 1.466e-5
-1.682, 1.475e-5
-1.683, 1.483e-5
-1.684, 1.492e-5
-1.685, 1.501e-5
-1.686, 1.510e-5
-1.687, 1.519e-5
-1.688, 1.529e-5
-1.689, 1.538e-5
-1.690, 1.549e-5
-1.691, 1.558e-5
-1.692, 1.568e-5
-1.693, 1.578e-5
-1.694, 1.589e-5
-1.695, 1.599e-5
-1.696, 1.610e-5
-1.697, 1.621e-5
-1.698, 1.632e-5
-1.699, 1.643e-5
-1.700, 1.654e-5
-1.701, 1.666e-5
-1.702, 1.678e-5
-1.703, 1.689e-5
-1.704, 1.701e-5
-1.705, 1.713e-5
-1.706, 1.725e-5
-1.707, 1.738e-5
-1.708, 1.750e-5
-1.709, 1.763e-5
-1.710, 1.777e-5
-1.711, 1.790e-5
-1.712, 1.803e-5
-1.713, 1.817e-5
-1.714, 1.830e-5
-1.715, 1.845e-5
-1.716, 1.859e-5
-1.717, 1.874e-5
-1.718, 1.889e-5
-1.719, 1.904e-5
-1.720, 1.919e-5
-1.721, 1.935e-5
-1.722, 1.951e-5
-1.723, 1.966e-5
-1.724, 1.982e-5
-1.725, 1.999e-5
-1.726, 2.015e-5
-1.727, 2.033e-5
-1.728, 2.050e-5
-1.729, 2.069e-5
-1.730, 2.087e-5
-1.731, 2.105e-5
-1.732, 2.124e-5
-1.733, 2.143e-5
-1.734, 2.162e-5
-1.735, 2.181e-5
-1.736, 2.201e-5
-1.737, 2.221e-5
-1.738, 2.241e-5
-1.739, 2.262e-5
-1.740, 2.284e-5
-1.741, 2.305e-5
-1.742, 2.326e-5
-1.743, 2.349e-5
-1.744, 2.371e-5
-1.745, 2.394e-5
-1.746, 2.418e-5
-1.747, 2.442e-5
-1.748, 2.466e-5
-1.749, 2.490e-5
-1.750, 2.514e-5
-1.751, 2.540e-5
-1.752, 2.565e-5
-1.753, 2.591e-5
-1.754, 2.618e-5
-1.755, 2.645e-5
-1.756, 2.672e-5
-1.757, 2.700e-5
-1.758, 2.729e-5
-1.759, 2.757e-5
-1.760, 2.785e-5
-1.761, 2.815e-5
-1.762, 2.845e-5
-1.763, 2.876e-5
-1.764, 2.908e-5
-1.765, 2.940e-5
-1.766, 2.972e-5
-1.767, 3.004e-5
-1.768, 3.037e-5
-1.769, 3.072e-5
-1.770, 3.107e-5
-1.771, 3.143e-5
-1.772, 3.178e-5
-1.773, 3.215e-5
-1.774, 3.252e-5
-1.775, 3.290e-5
-1.776, 3.329e-5
-1.777, 3.369e-5
-1.778, 3.408e-5
-1.779, 3.449e-5
-1.780, 3.490e-5
-1.781, 3.532e-5
-1.782, 3.577e-5
-1.783, 3.622e-5
-1.784, 3.666e-5
-1.785, 3.711e-5
-1.786, 3.756e-5
-1.787, 3.802e-5
-1.788, 3.850e-5
-1.789, 3.899e-5
-1.790, 3.948e-5
-1.791, 3.997e-5
-1.792, 4.050e-5
-1.793, 4.104e-5
-1.794, 4.157e-5
-1.795, 4.210e-5
-1.796, 4.266e-5
-1.797, 4.322e-5
-1.798, 4.378e-5
-1.799, 4.436e-5
-1.800, 4.495e-5
-1.801, 4.555e-5
-1.802, 4.617e-5
-1.803, 4.680e-5
-1.804, 4.745e-5
-1.805, 4.810e-5
-1.806, 4.876e-5
-1.807, 4.945e-5
-1.808, 5.016e-5
-1.809, 5.087e-5
-1.810, 5.158e-5
-1.811, 5.233e-5
-1.812, 5.308e-5
-1.813, 5.382e-5
-1.814, 5.460e-5
-1.815, 5.540e-5
-1.816, 5.623e-5
-1.817, 5.708e-5
-1.818, 5.792e-5
-1.819, 5.877e-5
-1.820, 5.964e-5
-1.821, 6.052e-5
-1.822, 6.143e-5
-1.823, 6.233e-5
-1.824, 6.328e-5
-1.825, 6.426e-5
-1.826, 6.522e-5
-1.827, 6.622e-5
-1.828, 6.724e-5
-1.829, 6.828e-5
-1.830, 6.932e-5
-1.831, 7.040e-5
-1.832, 7.147e-5
-1.833, 7.257e-5
-1.834, 7.371e-5
-1.835, 7.485e-5
-1.836, 7.601e-5
-1.837, 7.721e-5
-1.838, 7.840e-5
-1.839, 7.968e-5
-1.840, 8.093e-5
-1.841, 8.221e-5
-1.842, 8.352e-5
-1.843, 8.486e-5
-1.844, 8.624e-5
-1.845, 8.761e-5
-1.846, 8.899e-5
-1.847, 9.046e-5
-1.848, 9.192e-5
-1.849, 9.338e-5
-1.850, 9.483e-5
-1.851, 9.630e-5
-1.852, 9.783e-5
-1.853, 9.938e-5
-1.854, 1.010e-4
-1.855, 1.026e-4
-1.856, 1.042e-4
-1.857, 1.058e-4
-1.858, 1.075e-4
-1.859, 1.092e-4
-1.860, 1.110e-4
-1.861, 1.127e-4
-1.862, 1.146e-4
-1.863, 1.164e-4
-1.864, 1.180e-4
-1.865, 1.197e-4
-1.866, 1.213e-4
-1.867, 1.230e-4
-1.868, 1.250e-4
-1.869, 1.269e-4
-1.870, 1.289e-4
-1.871, 1.310e-4
-1.872, 1.330e-4
-1.873, 1.350e-4
-1.874, 1.370e-4
-1.875, 1.390e-4
-1.876, 1.410e-4
-1.877, 1.433e-4
-1.878, 1.455e-4
-1.879, 1.477e-4
-1.880, 1.500e-4
-1.881, 1.523e-4
-1.882, 1.545e-4
-1.883, 1.568e-4
-1.884, 1.592e-4
-1.885, 1.615e-4
-1.886, 1.639e-4
-1.887, 1.663e-4
-1.888, 1.688e-4
-1.889, 1.711e-4
-1.890, 1.734e-4
-1.891, 1.756e-4
-1.892, 1.778e-4
-1.893, 1.801e-4
-1.894, 1.822e-4
-1.895, 1.846e-4
-1.896, 1.870e-4
-1.897, 1.894e-4
-1.898, 1.919e-4
-1.899, 1.943e-4
-1.900, 1.967e-4
-1.901, 1.993e-4
-1.902, 2.018e-4
-1.903, 2.043e-4
-1.904, 2.068e-4
-1.905, 2.093e-4
-1.906, 2.117e-4
-1.907, 2.143e-4
-1.908, 2.168e-4
-1.909, 2.191e-4
-1.910, 2.216e-4
-1.911, 2.239e-4
-1.912, 2.263e-4
-1.913, 2.287e-4
-1.914, 2.309e-4
-1.915, 2.329e-4
-1.916, 2.352e-4
-1.917, 2.375e-4
-1.918, 2.399e-4
-1.919, 2.422e-4
-1.920, 2.444e-4
-1.921, 2.467e-4
-1.922, 2.491e-4
-1.923, 2.513e-4
-1.924, 2.537e-4
-1.925, 2.559e-4
-1.926, 2.582e-4
-1.927, 2.606e-4
-1.928, 2.629e-4
-1.929, 2.653e-4
-1.930, 2.678e-4
-1.931, 2.702e-4
-1.932, 2.726e-4
-1.933, 2.752e-4
-1.934, 2.778e-4
-1.935, 2.802e-4
-1.936, 2.830e-4
-1.937, 2.855e-4
-1.938, 2.882e-4
-1.939, 2.911e-4
-1.940, 2.936e-4
-1.941, 2.964e-4
-1.942, 2.991e-4
-1.943, 3.016e-4
-1.944, 3.045e-4
-1.945, 3.072e-4
-1.946, 3.101e-4
-1.947, 3.131e-4
-1.948, 3.161e-4
-1.949, 3.190e-4
-1.950, 3.220e-4
-1.951, 3.249e-4
-1.952, 3.281e-4
-1.953, 3.310e-4
-1.954, 3.341e-4
-1.955, 3.373e-4
-1.956, 3.404e-4
-1.957, 3.437e-4
-1.958, 3.469e-4
-1.959, 3.503e-4
-1.960, 3.535e-4
-1.961, 3.569e-4
-1.962, 3.599e-4
-1.963, 3.633e-4
-1.964, 3.663e-4
-1.965, 3.698e-4
-1.966, 3.730e-4
-1.967, 3.766e-4
-1.968, 3.799e-4
-1.969, 3.836e-4
-1.970, 3.872e-4
-1.971, 3.908e-4
-1.972, 3.944e-4
-1.973, 3.981e-4
-1.974, 4.019e-4
-1.975, 4.054e-4
-1.976, 4.092e-4
-1.977, 4.129e-4
-1.978, 4.169e-4
-1.979, 4.204e-4
-1.980, 4.246e-4
-1.981, 4.283e-4
-1.982, 4.324e-4
-1.983, 4.362e-4
-1.984, 4.400e-4
-1.985, 4.439e-4
-1.986, 4.482e-4
-1.987, 4.521e-4
-1.988, 4.562e-4
-1.989, 4.603e-4
-1.990, 4.643e-4
-1.991, 4.686e-4
-1.992, 4.729e-4
-1.993, 4.770e-4
-1.994, 4.814e-4
-1.995, 4.857e-4
-1.996, 4.896e-4
-1.997, 4.940e-4
-1.998, 4.983e-4
-1.999, 5.026e-4
-2.000, 5.071e-4
-2.001, 5.113e-4
-2.002, 5.158e-4
-2.003, 5.201e-4
-2.004, 5.246e-4
-2.005, 5.293e-4
-2.006, 5.339e-4
-2.007, 5.384e-4
-2.008, 5.430e-4
-2.009, 5.473e-4
-2.010, 5.520e-4
-2.011, 5.563e-4
-2.012, 5.609e-4
-2.013, 5.656e-4
-2.014, 5.702e-4
-2.015, 5.750e-4
-2.016, 5.799e-4
-2.017, 5.849e-4
-2.018, 5.895e-4
-2.019, 5.944e-4
-2.020, 5.990e-4
-2.021, 6.041e-4
-2.022, 6.090e-4
-2.023, 6.140e-4
-2.024, 6.191e-4
-2.025, 6.246e-4
-2.026, 6.295e-4
-2.027, 6.346e-4
-2.028, 6.396e-4
-2.029, 6.447e-4
-2.030, 6.501e-4
-2.031, 6.555e-4
-2.032, 6.605e-4
-2.033, 6.657e-4
-2.034, 6.713e-4
-2.035, 6.767e-4
-2.036, 6.820e-4
-2.037, 6.877e-4
-2.038, 6.930e-4
-2.039, 6.987e-4
-2.040, 7.040e-4
-2.041, 7.093e-4
-2.042, 7.149e-4
-2.043, 7.204e-4
-2.044, 7.259e-4
-2.045, 7.315e-4
-2.046, 7.370e-4
-2.047, 7.422e-4
-2.048, 7.481e-4
-2.049, 7.540e-4
-2.050, 7.594e-4
-2.051, 7.652e-4
-2.052, 7.713e-4
-2.053, 7.771e-4
-2.054, 7.830e-4
-2.055, 7.890e-4
-2.056, 7.950e-4
-2.057, 8.007e-4
-2.058, 8.065e-4
-2.059, 8.130e-4
-2.060, 8.193e-4
-2.061, 8.252e-4
-2.062, 8.317e-4
-2.063, 8.377e-4
-2.064, 8.438e-4
-2.065, 8.501e-4
-2.066, 8.566e-4
-2.067, 8.628e-4
-2.068, 8.689e-4
-2.069, 8.750e-4
-2.070, 8.810e-4
-2.071, 8.873e-4
-2.072, 8.935e-4
-2.073, 8.996e-4
-2.074, 9.057e-4
-2.075, 9.121e-4
-2.076, 9.184e-4
-2.077, 9.248e-4
-2.078, 9.311e-4
-2.079, 9.374e-4
-2.080, 9.437e-4
-2.081, 9.499e-4
-2.082, 9.562e-4
-2.083, 9.628e-4
-2.084, 9.699e-4
-2.085, 9.760e-4
-2.086, 9.823e-4
-2.087, 9.884e-4
-2.088, 9.956e-4
-2.089, 1.003e-3
-2.090, 1.009e-3
-2.091, 1.011e-3
-2.092, 1.011e-3
-2.093, 1.011e-3
-2.094, 1.011e-3
-2.095, 1.011e-3
-2.096, 1.011e-3
-2.097, 1.011e-3
-2.098, 1.011e-3
-2.099, 1.011e-3
-2.100, 1.011e-3
-2.101, 1.011e-3
-2.102, 1.011e-3
-2.103, 1.011e-3
-2.104, 1.011e-3
-2.105, 1.011e-3
-2.106, 1.011e-3
-2.107, 1.011e-3
-2.108, 1.011e-3
-2.109, 1.011e-3
-2.110, 1.011e-3
-2.111, 1.011e-3
-2.112, 1.011e-3
-2.113, 1.011e-3
-2.114, 1.011e-3
-2.115, 1.011e-3
-2.116, 1.011e-3
-2.117, 1.011e-3
-2.118, 1.011e-3
-2.119, 1.011e-3
-2.120, 1.011e-3
-2.121, 1.011e-3
-2.122, 1.011e-3
-2.123, 1.011e-3
-2.124, 1.011e-3
-2.125, 1.011e-3
-2.126, 1.011e-3
-2.127, 1.011e-3
-2.128, 1.011e-3
-2.129, 1.011e-3
-2.130, 1.011e-3
-2.131, 1.011e-3
-2.132, 1.011e-3
-2.133, 1.011e-3
-2.134, 1.011e-3
-2.135, 1.011e-3
-2.136, 1.011e-3
-2.137, 1.011e-3
-2.138, 1.011e-3
-2.139, 1.011e-3
-2.140, 1.011e-3
-2.141, 1.011e-3
-2.142, 1.011e-3
-2.143, 1.011e-3
-2.144, 1.011e-3
-2.145, 1.011e-3
-2.146, 1.011e-3
-2.147, 1.011e-3
-2.148, 1.011e-3
-2.149, 1.011e-3
-2.150, 1.011e-3
-2.151, 1.011e-3
-2.152, 1.011e-3
-2.153, 1.011e-3
-2.154, 1.011e-3
-2.155, 1.011e-3
-2.156, 1.011e-3
-2.157, 1.011e-3
-2.158, 1.011e-3
-2.159, 1.011e-3
-2.160, 1.011e-3
-2.161, 1.011e-3
-2.162, 1.011e-3
-2.163, 1.011e-3
-2.164, 1.011e-3
-2.165, 1.011e-3
-2.166, 1.011e-3
-2.167, 1.011e-3
-2.168, 1.011e-3
-2.169, 1.011e-3
-2.170, 1.011e-3
-2.171, 1.011e-3
-2.172, 1.011e-3
-2.173, 1.011e-3
-2.174, 1.011e-3
-2.175, 1.011e-3
-2.176, 1.011e-3
-2.177, 1.011e-3
-2.178, 1.011e-3
-2.179, 1.011e-3
-2.180, 1.011e-3
-2.181, 1.011e-3
-2.182, 1.011e-3
-2.183, 1.011e-3
-2.184, 1.011e-3
-2.185, 1.011e-3
-2.186, 1.011e-3
-2.187, 1.011e-3
-2.188, 1.011e-3
-2.189, 1.011e-3
-2.190, 1.011e-3
-2.191, 1.011e-3
-2.192, 1.011e-3
-2.193, 1.011e-3
-2.194, 1.011e-3
-2.195, 1.011e-3
-2.196, 1.011e-3
-2.197, 1.011e-3
-2.198, 1.011e-3
-2.199, 1.011e-3
-2.200, 1.011e-3
-2.201, 1.011e-3
-2.202, 1.011e-3
-2.203, 1.011e-3
-2.204, 1.011e-3
-2.205, 1.011e-3
-2.206, 1.011e-3
-2.207, 1.011e-3
-2.208, 1.011e-3
-2.209, 1.011e-3
-2.210, 1.011e-3
-2.211, 1.011e-3
-2.212, 1.011e-3
-2.213, 1.011e-3
-2.214, 1.011e-3
-2.215, 1.011e-3
-2.216, 1.011e-3
-2.217, 1.011e-3
-2.218, 1.011e-3
-2.219, 1.011e-3
-2.220, 1.011e-3
-2.221, 1.011e-3
-2.222, 1.011e-3
-2.223, 1.011e-3
-2.224, 1.011e-3
-2.225, 1.011e-3
-2.226, 1.011e-3
-2.227, 1.011e-3
-2.228, 1.011e-3
-2.229, 1.011e-3
-2.230, 1.011e-3
-2.231, 1.011e-3
-2.232, 1.011e-3
-2.233, 1.011e-3
-2.234, 1.011e-3
-2.235, 1.011e-3
-2.236, 1.011e-3
-2.237, 1.011e-3
-2.238, 1.011e-3
-2.239, 1.011e-3
-2.240, 1.011e-3
-2.241, 1.011e-3
-2.242, 1.011e-3
-2.243, 1.011e-3
-2.244, 1.011e-3
-2.245, 1.011e-3
-2.246, 1.011e-3
-2.247, 1.011e-3
-2.248, 1.011e-3
-2.249, 1.011e-3
-2.250, 1.011e-3
-2.251, 1.011e-3
-2.252, 1.011e-3
-2.253, 1.011e-3
-2.254, 1.011e-3
-2.255, 1.011e-3
-2.256, 1.011e-3
-2.257, 1.011e-3
-2.258, 1.011e-3
-2.259, 1.011e-3
-2.260, 1.011e-3
-2.261, 1.011e-3
-2.262, 1.011e-3
-2.263, 1.011e-3
-2.264, 1.011e-3
-2.265, 1.011e-3
-2.266, 1.011e-3
-2.267, 1.011e-3
-2.268, 1.011e-3
-2.269, 1.011e-3
-2.270, 1.011e-3
-2.271, 1.011e-3
-2.272, 1.011e-3
-2.273, 1.011e-3
-2.274, 1.011e-3
-2.275, 1.011e-3
-2.276, 1.011e-3
-2.277, 1.011e-3
-2.278, 1.011e-3
-2.279, 1.011e-3
-2.280, 1.011e-3
-2.281, 1.011e-3
-2.282, 1.011e-3
-2.283, 1.011e-3
-2.284, 1.011e-3
-2.285, 1.011e-3
-2.286, 1.011e-3
-2.287, 1.011e-3
-2.288, 1.011e-3
-2.289, 1.011e-3
-2.290, 1.011e-3
-2.291, 1.011e-3
-2.292, 1.011e-3
-2.293, 1.011e-3
-2.294, 1.011e-3
-2.295, 1.011e-3
-2.296, 1.011e-3
-2.297, 1.011e-3
-2.298, 1.011e-3
-2.299, 1.011e-3
