Potential V vs RHE, Current mA cm-2
0.05339999999999995,-0.03211394650693633
0.05239999999999995,-0.05220284696501985
0.051399999999999946,-0.06497769000280114
0.050399999999999945,-0.07476749219786719
0.049399999999999944,-0.08351040803103311
0.04839999999999994,-0.09134790863228542
0.04739999999999994,-0.09883173140857146
0.04639999999999994,-0.10562234564792364
0.04539999999999994,-0.11244125411327312
0.04439999999999994,-0.11903380877064418
0.04339999999999994,-0.12510292024706518
0.04239999999999994,-0.1310305605934997
0.04139999999999994,-0.13668940579295985
0.040399999999999936,-0.1421784856364362
0.039399999999999935,-0.14783733083589634
0.038399999999999934,-0.15307176264539696
0.03739999999999993,-0.15816472332491108
0.03639999999999993,-0.1629747417444522
0.03539999999999993,-0.16778476016399335
0.03439999999999993,-0.17245330745354798
0.03339999999999993,-0.1771218547431026
0.03239999999999993,-0.18164893090267073
0.03139999999999993,-0.1860345359322523
0.030399999999999927,-0.19056161209182043
0.029399999999999926,-0.19494721712140206
0.028399999999999925,-0.19933282215098366
0.027399999999999924,-0.20329401379060577
0.026399999999999924,-0.2075381476902009
0.025399999999999923,-0.21149933932982298
0.024399999999999922,-0.2156020020994316
0.02339999999999992,-0.21970466486904017
0.02239999999999992,-0.22338291424868928
0.02139999999999992,-0.2273441058883114
0.020399999999999918,-0.2313052975279335
0.019399999999999917,-0.23512501803756908
0.018399999999999916,-0.2388032674172182
0.017399999999999916,-0.24248151679686727
0.016399999999999915,-0.2460182950465299
0.015399999999999914,-0.24969654442617895
0.014399999999999913,-0.25337479380582806
0.013399999999999912,-0.25691157205549064
0.012399999999999911,-0.26030687917516676
0.01139999999999991,-0.26356071516485635
0.01039999999999991,-0.26709749341451894
0.009399999999999908,-0.2706342716641816
0.008399999999999908,-0.2738881076538711
0.007399999999999907,-0.2771419436435607
0.006399999999999906,-0.2803957796332503
0.005399999999999905,-0.28364961562293983
0.004399999999999904,-0.2869034516126294
0.003399999999999903,-0.29001581647233254
0.002399999999999902,-0.2931281813320356
0.0013999999999999013,-0.2960990750617522
0.00039999999999990044,-0.2993529110514418
-0.0006000000000001005,-0.3024652759111448
-0.0016000000000001013,-0.30543616964086145
-0.0026000000000001022,-0.308407063370578
-0.003600000000000103,-0.31123648597030806
-0.004600000000000104,-0.31406590857003813
-0.005600000000000105,-0.3171782734297412
-0.006600000000000106,-0.32000769602947127
-0.007600000000000107,-0.32269564749921487
-0.008600000000000108,-0.32552507009894494
-0.009600000000000108,-0.32821302156868853
-0.01060000000000011,-0.3311839152984051
-0.01160000000000011,-0.3340133378981352
-0.012600000000000111,-0.33670128936787874
-0.013600000000000112,-0.3393892408376223
-0.014600000000000113,-0.3419357211773794
-0.015600000000000114,-0.34462367264712296
-0.016600000000000115,-0.3473116241168665
-0.017600000000000116,-0.3497166333266371
-0.018600000000000116,-0.35212164253640765
-0.019600000000000117,-0.3548095940061512
-0.020600000000000118,-0.35735607434590827
-0.02160000000000012,-0.35990255468566534
-0.02260000000000012,-0.36216609276544937
-0.02360000000000012,-0.36442963084523344
-0.024600000000000122,-0.36683464005500405
-0.025600000000000123,-0.3692396492647746
-0.026600000000000124,-0.37164465847454514
-0.027600000000000124,-0.3737667254243427
-0.028600000000000125,-0.37588879237414025
-0.029600000000000126,-0.37829380158391085
-0.030600000000000127,-0.38055733966369487
-0.03160000000000013,-0.3828208777434789
-0.03260000000000013,-0.38494294469327645
-0.03360000000000013,-0.387065011643074
-0.03460000000000002,-0.3893285497228581
-0.03560000000000002,-0.3915920878026421
-0.03660000000000002,-0.39357268362245323
-0.03760000000000002,-0.39555327944226426
-0.03860000000000002,-0.39739240413208876
-0.039600000000000024,-0.39951447108188637
-0.040600000000000025,-0.4017780091616704
-0.041600000000000026,-0.40361713385149495
-0.04260000000000003,-0.40559772967130603
-0.04360000000000003,-0.4074368543611306
-0.04460000000000003,-0.40941745018094167
-0.04560000000000003,-0.4115395171307392
-0.04660000000000003,-0.41352011295055024
-0.04760000000000003,-0.4152177665103883
-0.04860000000000003,-0.41719836233019936
-0.04960000000000003,-0.4188960158900374
-0.050600000000000034,-0.42087661170984847
-0.051600000000000035,-0.4228572075296595
-0.052600000000000036,-0.42441338995951106
-0.053600000000000037,-0.42625251464933556
-0.05460000000000004,-0.4279501682091736
-0.05560000000000004,-0.42978929289899814
-0.05660000000000004,-0.43176988871880917
-0.05760000000000004,-0.4333260711486608
-0.05860000000000004,-0.4350237247084988
-0.05960000000000004,-0.43686284939832337
-0.06060000000000004,-0.4385605029581614
-0.061600000000000044,-0.44025815651799943
-0.06260000000000004,-0.44195581007783746
-0.06360000000000005,-0.443511992507689
-0.06460000000000005,-0.44520964606752705
-0.06560000000000005,-0.4469072996273651
-0.06660000000000005,-0.4484634820572166
-0.06760000000000005,-0.4500196644870682
-0.06860000000000005,-0.4515758469169197
-0.06960000000000005,-0.45341497160674427
-0.07060000000000005,-0.4549711540365957
-0.07160000000000005,-0.45652733646644733
-0.07260000000000005,-0.45808351889629884
-0.07360000000000005,-0.4594982301961639
-0.07460000000000006,-0.46105441262601543
-0.07560000000000006,-0.4627520661858534
-0.07660000000000006,-0.4641667774857185
-0.07760000000000006,-0.4657229599155701
-0.07860000000000006,-0.46699620008544857
-0.07960000000000006,-0.4685523825153001
-0.08060000000000006,-0.47025003607513816
-0.08160000000000006,-0.47166474737500325
-0.08260000000000006,-0.4730794586748682
-0.08360000000000006,-0.4744941699747333
-0.08460000000000006,-0.4757674101446118
-0.08560000000000006,-0.4773235925744634
-0.08660000000000007,-0.4787383038743284
-0.08760000000000007,-0.48001154404420693
-0.08860000000000007,-0.4815677264740585
-0.08960000000000007,-0.4826994955139505
-0.09060000000000007,-0.4842556779438021
-0.09160000000000007,-0.4858118603736536
-0.09260000000000007,-0.48694362941354563
-0.09360000000000007,-0.48835834071341067
-0.09460000000000007,-0.4896315808832892
-0.09560000000000007,-0.49104629218315415
-0.09660000000000007,-0.49246100348301924
-0.09760000000000008,-0.4935927725229112
-0.09860000000000008,-0.4948660126927898
-0.09960000000000008,-0.4962807239926549
-0.10060000000000008,-0.49755396416253334
-0.10160000000000008,-0.49882720433241184
-0.10260000000000008,-0.4999589733723039
-0.10360000000000008,-0.5012322135421824
-0.10460000000000008,-0.502505453712061
-0.10560000000000008,-0.5037786938819395
-0.10660000000000008,-0.505051934051818
-0.10760000000000008,-0.5063251742216967
-0.10860000000000009,-0.5073154721316021
-0.10960000000000009,-0.5085887123014806
-0.11060000000000009,-0.5098619524713591
-0.11160000000000009,-0.5111351926412377
-0.11260000000000009,-0.5122669616811297
-0.11360000000000009,-0.5132572595910353
-0.11460000000000009,-0.5148134420208869
-0.11560000000000009,-0.5160866821907654
-0.11660000000000009,-0.5170769801006708
-0.1176000000000001,-0.518208749140563
-0.1186000000000001,-0.5191990470504685
-0.1196000000000001,-0.5203308160903605
-0.1206000000000001,-0.5216040562602391
-0.1216000000000001,-0.5227358253001311
-0.1226000000000001,-0.5238675943400232
-0.1236000000000001,-0.5248578922499286
-0.1246000000000001,-0.5259896612898207
-0.1256000000000001,-0.5272629014596992
-0.1266000000000001,-0.5283946704995912
-0.1276000000000001,-0.5293849684094968
-0.1286000000000001,-0.5305167374493888
-0.1296000000000001,-0.5315070353592943
-0.1306000000000001,-0.5327802755291728
-0.1316000000000001,-0.5339120445690649
-0.1326000000000001,-0.5347608713489839
-0.1336000000000001,-0.535892640388876
-0.1346000000000001,-0.5368829382987814
-0.1356000000000001,-0.5380147073386735
-0.1366000000000001,-0.5391464763785655
-0.1376000000000001,-0.5399953031584845
-0.1386000000000001,-0.5409856010683901
-0.1396000000000001,-0.5421173701082821
-0.1406000000000001,-0.5432491391481741
-0.14160000000000011,-0.5442394370580796
-0.14260000000000012,-0.5453712060979717
-0.14360000000000012,-0.5462200328778907
-0.14460000000000012,-0.5473518019177827
-0.14560000000000012,-0.5483420998276882
-0.14660000000000012,-0.5493323977375938
-0.14760000000000012,-0.5503226956474992
-0.14860000000000012,-0.5510300512974318
-0.14960000000000012,-0.5521618203373237
-0.15060000000000012,-0.5531521182472294
-0.15160000000000012,-0.5542838872871214
-0.15260000000000012,-0.5552741851970269
-0.15360000000000013,-0.5561230119769459
-0.15460000000000013,-0.5571133098868515
-0.15560000000000013,-0.5581036077967569
-0.15660000000000013,-0.5590939057066625
-0.15760000000000013,-0.5600842036165681
-0.15860000000000013,-0.5609330303964871
-0.15960000000000002,-0.561781857176406
-0.16060000000000002,-0.562913626216298
-0.16160000000000002,-0.5637624529962171
-0.16260000000000002,-0.5647527509061226
-0.16360000000000002,-0.5656015776860417
-0.16460000000000002,-0.5665918755959471
-0.16560000000000002,-0.5680065868958123
-0.16660000000000003,-0.5691383559357043
-0.16760000000000003,-0.5695627693256637
-0.16860000000000003,-0.5704115961055828
-0.16960000000000003,-0.5712604228855018
-0.17060000000000003,-0.5722507207954074
-0.17160000000000003,-0.5732410187053129
-0.17260000000000003,-0.5740898454852319
-0.17360000000000003,-0.5747972011351644
-0.17460000000000003,-0.57578749904507
-0.17560000000000003,-0.576636325824989
-0.17660000000000003,-0.577768094864881
-0.17760000000000004,-0.5784754505148135
-0.17860000000000004,-0.5794657484247191
-0.17960000000000004,-0.580314575204638
-0.18060000000000004,-0.5811634019845571
-0.18160000000000004,-0.5821536998944625
-0.18260000000000004,-0.5830025266743816
-0.18360000000000004,-0.5837098823243142
-0.18460000000000004,-0.5848416513642062
-0.18560000000000004,-0.5858319492741116
-0.18660000000000004,-0.5866807760540307
-0.18760000000000004,-0.5873881317039633
-0.18860000000000005,-0.5882369584838822
-0.18960000000000005,-0.5892272563937878
-0.19060000000000005,-0.5900760831737067
-0.19160000000000005,-0.5909249099536259
-0.19260000000000005,-0.5917737367335448
-0.19360000000000005,-0.5924810923834773
-0.19460000000000005,-0.5933299191633964
-0.19560000000000005,-0.5943202170733018
-0.19660000000000005,-0.595169043853221
-0.19760000000000005,-0.5961593417631265
-0.19860000000000005,-0.596866697413059
-0.19960000000000006,-0.5975740530629915
-0.20060000000000006,-0.5987058221028836
-0.20160000000000006,-0.5995546488828025
-0.20260000000000006,-0.6004034756627216
-0.20360000000000006,-0.6012523024426406
-0.20460000000000006,-0.601959658092573
-0.20560000000000006,-0.6030914271324651
-0.20660000000000006,-0.6039402539123842
-0.20760000000000006,-0.6046476095623167
-0.20860000000000006,-0.6057793786022087
-0.20960000000000006,-0.6066282053821278
-0.21060000000000006,-0.6076185032920333
-0.21160000000000007,-0.6086088012019387
-0.21260000000000007,-0.6091746857218847
-0.21360000000000007,-0.6101649836317904
-0.21460000000000007,-0.6108723392817229
-0.21560000000000007,-0.6120041083216149
-0.21660000000000007,-0.6129944062315204
-0.21760000000000007,-0.6139847041414259
-0.21860000000000007,-0.6145505886613719
-0.21960000000000007,-0.6155408865712775
-0.22060000000000007,-0.6163897133511964
-0.22160000000000007,-0.6172385401311155
-0.22260000000000008,-0.6180873669110345
-0.22360000000000008,-0.618794722560967
-0.22460000000000008,-0.6197850204708726
-0.22560000000000008,-0.620775318380778
-0.22660000000000008,-0.6217656162906836
-0.22760000000000008,-0.6227559142005892
-0.22860000000000008,-0.6234632698505217
-0.22960000000000008,-0.6247365100204001
-0.23060000000000008,-0.6257268079303058
-0.23160000000000008,-0.6267171058402112
-0.23260000000000008,-0.6275659326201303
-0.23360000000000009,-0.6284147594000492
-0.2346000000000001,-0.6294050573099549
-0.2356000000000001,-0.6305368263498469
-0.2366000000000001,-0.6315271242597523
-0.2376000000000001,-0.6326588932996443
-0.2386000000000001,-0.63364919120955
-0.2396000000000001,-0.6344980179894689
-0.2406000000000001,-0.6357712581593474
-0.2416000000000001,-0.6366200849392665
-0.2426000000000001,-0.637893325109145
-0.2436000000000001,-0.6388836230190506
-0.2446000000000001,-0.639873920928956
-0.2456000000000001,-0.6410056899688481
-0.2466000000000001,-0.6422789301387266
-0.2476000000000001,-0.6432692280486321
-0.2486000000000001,-0.6444009970885242
-0.2496000000000001,-0.6453912949984297
-0.2506000000000001,-0.6466645351683082
-0.2516000000000001,-0.6477963042082002
-0.2526000000000001,-0.6487866021181058
-0.2536000000000001,-0.6500598422879843
-0.2546000000000001,-0.6511916113278763
-0.2556000000000001,-0.6524648514977549
-0.2566000000000001,-0.6537380916676334
-0.2576000000000001,-0.6548698607075254
-0.2586000000000001,-0.6560016297474174
-0.2596000000000001,-0.657274869917296
-0.2606000000000001,-0.658689581217161
-0.2616000000000001,-0.6601042925170262
-0.2626000000000001,-0.6612360615569182
-0.2636000000000001,-0.6625093017267967
-0.2646000000000001,-0.6639240130266617
-0.2656000000000001,-0.6651972531965403
-0.2666000000000001,-0.6667534356263918
-0.2676000000000001,-0.6680266757962704
-0.2686000000000001,-0.6694413870961354
-0.2696000000000001,-0.6708560983960004
-0.2706000000000001,-0.6722708096958655
-0.2716000000000001,-0.6738269921257171
-0.2726000000000001,-0.6753831745555685
-0.2736000000000001,-0.6766564147254471
-0.2746000000000001,-0.6782125971552986
-0.2756000000000001,-0.6799102507151367
-0.2766000000000001,-0.6814664331449882
-0.2776000000000001,-0.6830226155748397
-0.2786000000000001,-0.6845787980046913
-0.2796000000000001,-0.6859935093045563
-0.2806000000000001,-0.6878326339943809
-0.28160000000000013,-0.6895302875542189
-0.28260000000000013,-0.691227941114057
-0.28360000000000013,-0.6927841235439085
-0.2846,-0.69434030597376
-0.2856,-0.6964623729235576
-0.2866,-0.6983014976133821
-0.2876,-0.6998576800432337
-0.2886,-0.7015553336030717
-0.2896,-0.7033944582928963
-0.2906,-0.7053750541127073
-0.2916,-0.7073556499325184
-0.2926,-0.7091947746223429
-0.2936,-0.7110338993121675
-0.29460000000000003,-0.7130144951319785
-0.29560000000000003,-0.7149950909517896
-0.29660000000000003,-0.7172586290315736
-0.29760000000000003,-0.7190977537213982
-0.29860000000000003,-0.7210783495412092
-0.29960000000000003,-0.7232004164910067
-0.30060000000000003,-0.7254639545707907
-0.30160000000000003,-0.7277274926505749
-0.30260000000000004,-0.7297080884703859
-0.30360000000000004,-0.7318301554201835
-0.30460000000000004,-0.7340936934999676
-0.30560000000000004,-0.7363572315797515
-0.30660000000000004,-0.7389037119195087
-0.30760000000000004,-0.7411672499992927
-0.30860000000000004,-0.7432893169490903
-0.30960000000000004,-0.7458357972888473
-0.31060000000000004,-0.7482408064986178
-0.31160000000000004,-0.7507872868383749
-0.31260000000000004,-0.753333767178132
-0.31360000000000005,-0.7554558341279295
-0.31460000000000005,-0.7582852567276597
-0.31560000000000005,-0.7608317370674167
-0.31660000000000005,-0.7635196885371602
-0.31760000000000005,-0.7660661688769174
-0.31860000000000005,-0.7686126492166745
-0.31960000000000005,-0.7717250140763775
-0.32060000000000005,-0.7745544366761076
-0.32160000000000005,-0.7772423881458511
-0.32260000000000005,-0.7800718107455812
-0.32360000000000005,-0.7827597622153247
-0.32460000000000006,-0.7855891848150548
-0.32560000000000006,-0.7888430208047444
-0.32660000000000006,-0.791813914534461
-0.32760000000000006,-0.7947848082641775
-0.32860000000000006,-0.7977557019938941
-0.32960000000000006,-0.8007265957236107
-0.33060000000000006,-0.8039804317133004
-0.33160000000000006,-0.8072342677029899
-0.33260000000000006,-0.810346632562693
-0.33360000000000006,-0.813458997422396
-0.33460000000000006,-0.8164298911521127
-0.33560000000000006,-0.8199666694017753
-0.33660000000000007,-0.8235034476514379
-0.33760000000000007,-0.8267572836411275
-0.33860000000000007,-0.8300111196308171
-0.33960000000000007,-0.8335478978804797
-0.34060000000000007,-0.8373676183901153
-0.34160000000000007,-0.8409043966397778
-0.34260000000000007,-0.8441582326294674
-0.34360000000000007,-0.8478364820091164
-0.3446000000000001,-0.8516562025187521
-0.3456000000000001,-0.8553344518984012
-0.3466000000000001,-0.8592956435380232
-0.34759999999999996,-0.8631153640476589
-0.3486000000000001,-0.866793613427308
-0.34959999999999997,-0.8707548050669301
-0.3506000000000001,-0.8747159967065521
-0.35159999999999997,-0.8788186594761607
-0.3526000000000001,-0.8830627933757559
-0.35359999999999997,-0.8868825138853914
-0.3546000000000001,-0.8909851766550001
-0.35559999999999997,-0.8953707816845817
-0.3566000000000001,-0.8997563867141634
-0.3576,-0.904141991743745
-0.3586000000000001,-0.90838612564334
-0.3596,-0.9127717306729216
-0.3606000000000001,-0.9175817490924627
-0.3616,-0.9219673541220444
-0.3626000000000001,-0.9266359014115991
-0.3636,-0.9311629775711672
-0.3646000000000001,-0.9358315248607216
-0.3656,-0.9407830144102494
-0.3666000000000001,-0.9455930328297906
-0.3676,-0.9504030512493317
-0.3686000000000001,-0.9552130696688728
-0.3696,-0.9601645592184004
-0.3706000000000001,-0.9655404621578876
-0.3716,-0.9707748939673883
-0.3726000000000001,-0.9757263835169159
-0.3736,-0.9812437575863894
-0.3746000000000001,-0.9863367182659035
-0.3756,-0.9915711500754043
-0.3766000000000001,-0.9972299952748643
-0.3776,-1.0024644270843648
-0.3786000000000001,-1.0081232722838251
-0.3796,-1.0139235886132718
-0.3806000000000001,-1.0194409626827452
-0.3816,-1.0253827501421786
-0.3826000000000001,-1.0313245376016118
-0.3836,-1.036983382801072
-0.3846000000000001,-1.0432081125204782
-0.3856,-1.0491498999799111
-0.3866000000000001,-1.0553746296993174
-0.3876,-1.0615993594187236
-0.3886000000000001,-1.0675411468781568
-0.3896,-1.0740488188575361
-0.3906000000000001,-1.0804150197069284
-0.3916,-1.0870641628162943
-0.3926000000000001,-1.0937133059256599
-0.3936,-1.1000795067750526
-0.3946000000000001,-1.1068701210144047
-0.3956,-1.11394367751373
-0.3966000000000001,-1.121017234013055
-0.3976,-1.1280907905123805
-0.3986000000000001,-1.1350228758817187
-0.3996,-1.1420964323810439
-0.4006000000000001,-1.1495944022703288
-0.4016,-1.156950901029627
-0.4026000000000001,-1.1644488709189116
-0.4036,-1.1720883119381829
-0.4046000000000001,-1.1795862818274676
-0.4056,-1.1875086651067117
-0.40660000000000013,-1.1954310483859558
-0.4076,-1.2032119605352136
-0.40860000000000013,-1.2112758149444443
-0.4096,-1.219339669353675
-0.41060000000000013,-1.2278279371528653
-0.4116,-1.236457676082042
-0.41260000000000013,-1.244804472751246
-0.4136,-1.2532927405504362
-0.41460000000000014,-1.2620639506095992
-0.4156,-1.2708351606687625
-0.41660000000000014,-1.280030784117885
-0.4176,-1.2886605230470618
-0.41860000000000014,-1.2978561464961846
-0.41960000000000003,-1.306910298815321
-0.42060000000000014,-1.31624739339443
-0.42160000000000003,-1.3260089013634988
-0.42260000000000014,-1.3356289382025812
-0.42360000000000003,-1.3452489750416634
-0.42460000000000014,-1.3552934252707052
-0.42560000000000003,-1.3651964043697604
-0.42660000000000015,-1.3753823257287887
-0.42760000000000004,-1.3857097182178033
-0.42860000000000015,-1.3958956395768316
-0.42960000000000004,-1.406364503195833
-0.43060000000000015,-1.4175407224647667
-0.43160000000000004,-1.427443701563822
-0.43260000000000015,-1.4387613919627424
-0.43360000000000004,-1.4500790823616625
-0.43460000000000015,-1.461396772760583
-0.43560000000000004,-1.472714463159503
-0.43660000000000015,-1.4840321535584236
-0.43760000000000004,-1.4953498439573436
-0.43860000000000016,-1.506667534356264
-0.43960000000000005,-1.5179852247551844
-0.44060000000000016,-1.5307176264539697
-0.44160000000000005,-1.543450028152755
-0.44260000000000016,-1.5547677185516753
-0.44360000000000005,-1.5675001202504606
-0.44460000000000016,-1.580232521949246
-0.44560000000000005,-1.5929649236480312
-0.44660000000000016,-1.6056973253468165
