Potential V vs RHE, Current mA cm-2
0.013299999999999867,-0.0635629787029361
0.012299999999999978,-0.07966239329540022
0.011299999999999866,-0.08677839113372135
0.010299999999999976,-0.09184305758723818
0.009299999999999864,-0.09615792705182655
0.008299999999999974,-0.0999069119964689
0.007299999999999862,-0.10358516137611798
0.006299999999999972,-0.10672582046181836
0.00529999999999986,-0.10955524306154844
0.0042999999999999705,-0.11135192641237703
0.0032999999999998586,-0.1138418183001395
0.0022999999999999687,-0.11640244575289523
0.0012999999999998568,-0.11825571755571843
0.00029999999999996696,-0.12047681429650652
-0.000700000000000145,-0.12138222952842014
-0.0017000000000000348,-0.12480583087409354
-0.0027000000000001467,-0.12624883639995585
-0.0037000000000000366,-0.12770598903881686
-0.0047000000000001485,-0.1301251453615861
-0.005700000000000038,-0.1324877132323607
-0.00670000000000015,-0.13400145432321628
-0.00770000000000004,-0.13585472612603947
-0.008700000000000152,-0.13891050253374798
-0.009700000000000042,-0.13985835910465752
-0.010700000000000154,-0.1411457463875347
-0.011700000000000044,-0.1426028990263957
-0.012700000000000156,-0.14387613919627423
-0.013700000000000045,-0.14472496597619325
-0.014700000000000157,-0.1465640906660178
-0.015700000000000047,-0.14925204213576138
-0.01670000000000016,-0.14854468648582883
-0.01770000000000005,-0.15179852247551845
-0.01870000000000016,-0.15321323377538346
-0.01970000000000005,-0.15448647394526202
-0.020700000000000163,-0.15703295428501907
-0.021700000000000053,-0.1584476655848841
-0.022700000000000164,-0.16099414592464115
-0.023700000000000054,-0.1617015015745737
-0.024700000000000166,-0.1625503283544927
-0.025700000000000056,-0.16467239530429026
-0.026700000000000168,-0.1659456354741688
-0.027700000000000058,-0.1693409425938449
-0.02870000000000017,-0.17160448067362896
-0.02970000000000006,-0.1731606631034805
-0.03070000000000017,-0.17499978779330505
-0.03170000000000006,-0.1768389124831296
-0.03270000000000017,-0.18009274847281917
-0.03370000000000006,-0.18278069994256274
-0.034700000000000175,-0.1844783535024008
-0.035700000000000065,-0.1847612957623738
-0.03670000000000018,-0.18914690079195542
-0.03770000000000007,-0.1936739769515235
-0.03870000000000018,-0.19523015938137506
-0.03970000000000007,-0.1973522263311726
-0.04070000000000018,-0.19933282215098366
-0.04170000000000007,-0.2037184271805653
-0.04270000000000018,-0.2076796188201874
-0.04370000000000007,-0.21036757028993097
-0.044700000000000184,-0.21263110836971502
-0.045700000000000074,-0.21432876192955308
-0.046700000000000186,-0.21715818452928315
-0.047700000000000076,-0.21701671339929662
-0.04870000000000019,-0.22012907825899972
-0.04970000000000008,-0.2242317410286083
-0.05070000000000019,-0.2279099904082574
-0.05170000000000008,-0.2307394130079875
-0.05270000000000019,-0.23639825820744764
-0.05370000000000008,-0.23781296950731265
-0.05470000000000019,-0.24163269001694826
-0.05570000000000008,-0.24672565069646235
-0.056700000000000195,-0.2523844958959225
-0.057700000000000085,-0.2571945143154637
-0.058700000000000196,-0.2588921678753017
-0.059700000000000086,-0.2637021862948429
-0.0607000000000002,-0.26837073358439745
-0.06170000000000009,-0.27120015618412757
-0.0627000000000002,-0.2751613478237496
-0.06370000000000009,-0.27841518381343927
-0.0647000000000002,-0.2812446064131693
-0.06570000000000009,-0.2871863938726024
-0.0667000000000002,-0.2914305277721975
-0.0677000000000001,-0.2960990750617522
-0.0687000000000002,-0.29878702653149575
-0.0697000000000001,-0.3033141026910639
-0.07070000000000021,-0.3067094098107399
-0.0717000000000001,-0.30897294789052404
-0.07270000000000021,-0.3146317930899841
-0.0737000000000001,-0.31958328263951175
-0.07470000000000021,-0.3249591855789989
-0.0757000000000001,-0.3290618483486075
-0.07670000000000021,-0.33217421320831064
-0.0777000000000001,-0.33655981823789227
-0.07870000000000021,-0.3386818851876898
-0.0797000000000001,-0.3426430768273119
-0.08070000000000022,-0.34886780654671806
-0.0817000000000001,-0.35693166095594875
-0.08270000000000022,-0.3587707856457733
-0.08370000000000011,-0.3640052174552739
-0.08470000000000022,-0.36994700491470706
-0.08570000000000011,-0.3760302635041267
-0.08670000000000022,-0.3815476375736004
-0.08770000000000011,-0.386499127123128
-0.08870000000000022,-0.3913091455426691
-0.08970000000000011,-0.3982412309120078
-0.09070000000000022,-0.40573920080129255
-0.09170000000000011,-0.40941745018094167
-0.09270000000000023,-0.4147933531204288
-0.09370000000000012,-0.4194619004099834
-0.09470000000000023,-0.42865752385910616
-0.09570000000000012,-0.4370043205283098
-0.09670000000000023,-0.44308757911772945
-0.09770000000000012,-0.4501611356170546
-0.09870000000000023,-0.45299055821678474
-0.09970000000000012,-0.4573761632463663
-0.10070000000000023,-0.464308248615705
-0.10170000000000012,-0.4727965164148953
-0.10270000000000024,-0.4790212461343014
-0.10370000000000013,-0.4848215624637481
-0.10470000000000024,-0.4950074838227763
-0.10570000000000013,-0.49981750224231747
-0.10670000000000024,-0.5057592897017505
-0.10770000000000013,-0.5139646152409678
-0.10870000000000024,-0.5166525667107114
-0.10970000000000013,-0.5218869985202121
-0.11070000000000024,-0.5289605550195372
-0.11170000000000013,-0.5412685433283632
-0.11270000000000002,-0.5482006286977017
-0.11370000000000013,-0.5576791944067975
-0.11470000000000002,-0.5630550973462846
-0.11570000000000014,-0.5704115961055828
-0.11670000000000003,-0.576070441305043
-0.11770000000000014,-0.5861148915340847
-0.11870000000000003,-0.596300812893113
-0.11970000000000014,-0.6045061384323301
-0.12070000000000003,-0.6139847041414259
-0.12170000000000014,-0.6238876832404812
-0.12270000000000003,-0.6306782974798333
-0.12370000000000014,-0.6434106991786186
-0.12470000000000003,-0.6514745535878493
-0.12570000000000014,-0.658123696697215
-0.12670000000000003,-0.6636410707666887
-0.12770000000000015,-0.6657631377164863
-0.12870000000000004,-0.6760905302055011
-0.12970000000000015,-0.6847202691346778
-0.13070000000000004,-0.6922182390239625
-0.13170000000000015,-0.7045262273327882
-0.13270000000000004,-0.7127315528720055
-0.13370000000000015,-0.7142877353018571
-0.13470000000000004,-0.7230589453610202
-0.13570000000000015,-0.7357913470598055
-0.13670000000000004,-0.7387622407895221
-0.13770000000000016,-0.7497969889284695
-0.13870000000000005,-0.7594170257675517
-0.13970000000000016,-0.7704517739064989
-0.14070000000000005,-0.7819109354354057
-0.14170000000000016,-0.7878527228948389
-0.14270000000000005,-0.7950677505241506
-0.14370000000000016,-0.8021413070234757
-0.14470000000000005,-0.8104881036926795
-0.14570000000000016,-0.8177031313219912
-0.14670000000000005,-0.8259084568612085
-0.14770000000000016,-0.8317087731906551
-0.14870000000000005,-0.8362358493502232
-0.14970000000000017,-0.8430264635895753
-0.15070000000000006,-0.8486853087890355
-0.15170000000000017,-0.8633983063076318
-0.15270000000000006,-0.8658033155174024
-0.15370000000000017,-0.8762721791364039
-0.15470000000000006,-0.8837701490256885
-0.15570000000000017,-0.8959366662045278
-0.15670000000000006,-0.9048493473936775
-0.15770000000000017,-0.9168743934425302
-0.15870000000000006,-0.9228161809019634
-0.15970000000000018,-0.9290409106213695
-0.16070000000000007,-0.9386609474604518
-0.16170000000000018,-0.9434709658799929
-0.16270000000000007,-0.9526665893291157
-0.16370000000000018,-0.9628525106881439
-0.16470000000000007,-0.9716237207473072
-0.16570000000000018,-0.9744531433470374
-0.16670000000000007,-0.9789802195066053
-0.16770000000000018,-0.9873270161758091
-0.16870000000000007,-0.9912882078154313
-0.16970000000000018,-0.9922785057253367
-0.17070000000000007,-1.0017570714344324
-0.17170000000000019,-1.0071329743739197
-0.17270000000000008,-1.0190165492927858
-0.1737000000000002,-1.025807163532138
-0.17470000000000008,-1.0245339233622595
-0.1757000000000002,-1.0311830664716253
-0.17670000000000008,-1.04151045896064
-0.1777000000000002,-1.0470278330301137
-0.17870000000000008,-1.0570722832591555
-0.1797000000000002,-1.064853195408413
-0.18070000000000008,-1.0661264355782916
-0.1817000000000002,-1.0699461560879273
-0.18270000000000008,-1.0734829343375898
-0.1837000000000002,-1.072492636427684
-0.1847000000000001,-1.0832444423066585
-0.1857000000000002,-1.0867812205563212
-0.1867000000000001,-1.0896106431560515
-0.1877000000000002,-1.0952694883555114
-0.1887000000000001,-1.103050400504769
-0.1897000000000002,-1.100786862424985
-0.1907000000000001,-1.101918631464877
-0.1917000000000001,-1.1118216105639322
-0.19269999999999998,-1.1154998599435815
-0.1937000000000001,-1.1208757628830686
-0.19469999999999998,-1.1271004926024746
-0.1957000000000001,-1.1269590214724883
-0.19669999999999999,-1.1265346080825285
-0.1977000000000001,-1.1271004926024746
-0.1987,-1.1299299152022049
-0.1997000000000001,-1.1351643470117054
-0.2007,-1.141530547861098
-0.2017000000000001,-1.1487455754904097
-0.2027,-1.1491699888803693
-0.2037000000000001,-1.1522823537400724
-0.2047,-1.1490285177503827
-0.2057000000000001,-1.158082670069519
-0.2067,-1.155253247469789
-0.2077000000000001,-1.155536189729762
-0.2087,-1.1662879956087364
-0.2097000000000001,-1.1710980140282774
-0.2107,-1.176898330357724
-0.2117000000000001,-1.1691174182084663
-0.2127,-1.1716638985482233
-0.2137000000000001,-1.1624682750991004
-0.2147,-1.156385016509681
-0.2157000000000001,-1.155253247469789
-0.2167,-1.157516785549573
-0.21770000000000012,-1.1593559102393975
-0.2187,-1.16572211108879
-0.21970000000000012,-1.1705321295083313
-0.2207,-1.1684100625585339
-0.22170000000000012,-1.1668538801286823
-0.2227,-1.1675612357786147
-0.22370000000000012,-1.1678441780385878
-0.2247,-1.1712394851582637
-0.22570000000000012,-1.1729371387181018
-0.2267,-1.1733615521080614
-0.22770000000000012,-1.1801521663474135
-0.22870000000000001,-1.1822742332972112
-0.22970000000000013,-1.1815668776472785
-0.23070000000000002,-1.1825571755571842
-0.23170000000000013,-1.1787374550475485
-0.23270000000000002,-1.1776056860076565
-0.23370000000000013,-1.1846792425069816
-0.23470000000000002,-1.1947236927360234
-0.23570000000000013,-1.191752799006307
-0.23670000000000002,-1.1882160207566443
-0.2376999999999999,-1.1889233764065767
-0.23870000000000002,-1.1875086651067117
-0.2396999999999999,-1.1927430969162125
-0.24070000000000003,-1.1921772123962666
-0.24169999999999991,-1.197977528725713
-0.24270000000000003,-1.2033534316652001
-0.24369999999999992,-1.205192556355025
-0.24470000000000003,-1.2105684592945118
-0.24569999999999992,-1.2009484224554297
-0.24670000000000003,-1.2037778450551597
-0.24769999999999992,-1.2037778450551597
-0.24870000000000003,-1.2050510852250382
-0.24969999999999992,-1.2119831705943769
-0.25070000000000003,-1.21226611285435
-0.2516999999999999,-1.212831997374296
-0.25270000000000004,-1.2173590735338642
-0.2536999999999999,-1.2269791103729464
-0.25470000000000004,-1.2341941380022579
-0.2556999999999999,-1.2354673781721366
-0.25670000000000004,-1.2374479739919477
-0.25769999999999993,-1.2265546969829868
-0.25870000000000004,-1.2327794267023928
-0.25969999999999993,-1.2357503204321096
-0.26070000000000004,-1.2384382719018532
-0.26169999999999993,-1.2374479739919477
-0.26270000000000004,-1.2472094819610162
-0.26369999999999993,-1.2442385882312998
-0.26470000000000005,-1.2452288861412053
-0.26569999999999994,-1.251312144730625
-0.26670000000000005,-1.244521530491273
-0.26769999999999994,-1.2408432811116237
-0.26870000000000005,-1.2518780292505711
-0.26969999999999994,-1.2603662970497613
-0.27070000000000005,-1.2637616041694373
-0.27169999999999994,-1.2736645832684925
-0.27270000000000005,-1.279464899597939
-0.27369999999999994,-1.2784746016880337
-0.27470000000000006,-1.2791819573379661
-0.27569999999999995,-1.2701278050188298
-0.27670000000000006,-1.2828602067176154
-0.27769999999999995,-1.2902167054769134
-0.27870000000000006,-1.2994123289260362
-0.27969999999999995,-1.3077591255952399
-0.28070000000000006,-1.3142667975746192
-0.28169999999999995,-1.3073347122052805
-0.28270000000000006,-1.3209159406839848
-0.28369999999999995,-1.3161059222644436
-0.28470000000000006,-1.319925642774079
-0.28569999999999995,-1.328838323963229
-0.28670000000000007,-1.3326580444728646
-0.28769999999999996,-1.3412877834020411
-0.28870000000000007,-1.3460978018215823
-0.28969999999999996,-1.343692792611812
-0.29070000000000007,-1.3390242453222572
-0.29169999999999996,-1.3390242453222572
-0.29270000000000007,-1.3533128294508943
-0.29369999999999996,-1.3606693282101925
-0.2947000000000001,-1.3657622888897063
-0.29569999999999996,-1.3705723073092475
-0.2967000000000001,-1.3865585449977225
-0.29769999999999996,-1.4031106672061433
-0.2987000000000001,-1.412306290655266
-0.29969999999999997,-1.4016959559062783
-0.3007000000000001,-1.4134380596951581
-0.30169999999999997,-1.420370145064497
-0.3027000000000001,-1.420370145064497
-0.30369999999999997,-1.433102546763282
-0.3047000000000001,-1.4415908145624723
-0.30569999999999997,-1.4514937936615278
-0.3067000000000001,-1.471299751859638
-0.3077,-1.4698850405597732
-0.3087000000000001,-1.4783733083589634
-0.3097,-1.4925204213576138
-0.3107000000000001,-1.4967645552572086
-0.3117,-1.5151558021554543
-0.3127000000000001,-1.5236440699546445
-0.3137,-1.5293029151541047
-0.3147000000000001,-1.5575971411514054
-0.3157,-1.5689148315503256
-0.3167000000000001,-1.5731589654499207
-0.3177,-1.5901355010483011
-0.3187000000000001,-1.6099414592464116
-0.3197,-1.6226738609451972
-0.3207000000000001,-1.6410651078434426
-0.3217,-1.6651151999411482
-0.3227000000000001,-1.6764328903400685
-0.3237,-1.6891652920388538
-0.3247000000000001,-1.696238848538179
-0.3257,-1.6990682711379093
-0.3267000000000001,-1.72736249713521
-0.3277,-1.7372654762342652
-0.3287000000000001,-1.7415096101338603
-0.3297,-1.7641449909317006
-0.3307000000000001,-1.7839509491298113
-0.3317,-1.8065863299276517
-0.3327000000000001,-1.8164893090267071
-0.3337,-1.8292217107254924
-0.3347000000000001,-1.8263922881257622
-0.3357,-1.8377099785246829
-0.3367000000000001,-1.850442380223468
-0.3377,-1.8660042045219833
-0.3387000000000001,-1.8603453593225232
-0.3397,-1.892883719219419
-0.3407000000000001,-1.9155191000172598
-0.3417,-1.92117794521672
-0.3427000000000001,-1.9494721712140204
-0.3437,-1.972107552011861
-0.3447000000000001,-1.993328221509837
-0.3457,-2.0032312006088917
-0.3467000000000001,-2.0216224475071374
-0.3477,-2.0371842718056525
-0.3487000000000001,-2.051331384804303
-0.3497,-2.081040322101469
-0.3507000000000001,-2.102260991599445
-0.3517,-2.127725794997015
-0.3527000000000001,-2.158849443594046
-0.3537,-2.1758259791924264
-0.3547000000000001,-2.208364339089322
-0.3557,-2.2479762554855434
-0.35670000000000013,-2.2748557701829792
-0.3577,-2.284758749282034
-0.35870000000000013,-2.30880884137974
-0.3597,-2.3427619125765005
-0.36070000000000013,-2.3724708498736664
-0.3617,-2.4106680549700226
-0.3626999999999999,-2.436132858367593
-0.3637,-2.464427084364894
-0.3646999999999999,-2.49979486686152
-0.3657,-2.5295038041586855
-0.3666999999999999,-2.5804334109538267
-0.3677,-2.610142348250993
-0.3686999999999999,-2.6469248420474836
-0.36970000000000003,-2.6780484906445143
-0.3706999999999999,-2.719075118340601
-0.37170000000000003,-2.740295787838576
-0.3726999999999999,-2.8067872189322327
-0.37370000000000003,-2.8294225997300737
-0.3746999999999999,-2.866205093526564
-0.37570000000000003,-2.9058170099227856
-0.3766999999999999,-2.9440142150191413
-0.37770000000000004,-3.0119203574126634
-0.3786999999999999,-3.0755823659065897
-0.37970000000000004,-3.08972947890524
-0.3806999999999999,-3.1463179308998415
-0.38170000000000004,-3.1915886924955226
-0.38269999999999993,-3.243933010590529
-0.38370000000000004,-3.2920331947859403
-0.38469999999999993,-3.325986265982701
-0.38570000000000004,-3.3981365422758185
-0.38669999999999993,-3.3655981823789225
-0.38570000000000004,-3.2948626173856703
-0.38469999999999993,-3.2297858975918787
-0.38370000000000004,-3.167538600397817
-0.38269999999999993,-3.1180237049025408
-0.38170000000000004,-3.054361696408614
-0.3806999999999999,-3.013335068712528
-0.37970000000000004,-2.9510877715184667
-0.3786999999999999,-2.9072317212226504
-0.37770000000000004,-2.854887403127644
-0.3766999999999999,-2.8166901980312877
-0.37570000000000003,-2.788395972033987
-0.3746999999999999,-2.734636942639116
-0.37370000000000003,-2.6808779132442444
-0.3726999999999999,-2.629948306449103
-0.37170000000000003,-2.5634568753554463
-0.3706999999999999,-2.5111125572604402
-0.36970000000000003,-2.460182950465299
-0.3686999999999999,-2.433303435767863
-0.3677,-2.383788540272587
-0.3666999999999999,-2.3455913351762305
-0.3657,-2.2776851927827093
-0.3646999999999999,-2.2465615441856785
-0.3637,-2.1913878034909415
-0.3626999999999999,-2.151775887094721
-0.3617,-2.1206522384976902
-0.36070000000000013,-2.071137343002414
-0.3597,-2.0244518701068674
-0.35870000000000013,-2.0060606232086218
-0.3577,-1.9579604390132106
-0.35670000000000013,-1.9169338113171246
-0.3557,-1.8744924723211736
-0.3547000000000001,-1.8419541124242775
-0.3537,-1.8122451751271118
-0.3527000000000001,-1.768389124831296
-0.3517,-1.7330213423346699
-0.3507000000000001,-1.693409425938449
-0.3497,-1.6594563547416883
-0.3487000000000001,-1.6410651078434426
-0.3477,-1.6000384801473564
-0.3467000000000001,-1.5675001202504606
-0.3457,-1.5377911829532949
-0.3447000000000001,-1.5151558021554543
-0.3437,-1.4797880196588282
-0.3427000000000001,-1.4401761032626073
-0.3417,-1.4161260111649017
-0.3407000000000001,-1.3794849884983973
-0.3397,-1.3584057901304083
-0.3387000000000001,-1.3359118804625543
-0.3377,-1.3087494235051453
-0.3367000000000001,-1.2750792945683578
-0.3357,-1.2476338953509758
-0.3347000000000001,-1.237589445121934
-0.3337,-1.206041383134944
-0.3327000000000001,-1.1790203973075215
-0.3317,-1.152706767130032
-0.3307000000000001,-1.1215831185330012
-0.3297,-1.097391555305309
-0.3287000000000001,-1.0716438096477652
-0.3277,-1.0515549091896819
-0.3267000000000001,-1.0286365861318683
-0.3257,-1.0118015216634741
-0.3247000000000001,-0.9888831986056607
-0.3237,-0.9714822496173208
-0.3227000000000001,-0.9388024185904382
-0.3217,-0.9221088252520309
-0.3207000000000001,-0.9056981741735964
-0.3197,-0.8815066109459044
-0.3187000000000001,-0.8609932970978613
-0.3177,-0.8392067430799398
-0.3167000000000001,-0.8216643229616133
-0.3157,-0.8051122007531923
-0.3147000000000001,-0.7838915312552168
-0.3137,-0.769037062606634
-0.3127000000000001,-0.7575779010777272
-0.3117,-0.7427234324291443
-0.3107000000000001,-0.7248980700508447
-0.3097,-0.7022626892530042
-0.3087000000000001,-0.6913694122440435
-0.3077,-0.6670363778863648
-0.3067000000000001,-0.6506257268079303
-0.30569999999999997,-0.634215075729496
-0.3047000000000001,-0.619360607080913
-0.30369999999999997,-0.6033743693924382
-0.3027000000000001,-0.5876710739639363
-0.30169999999999997,-0.5695627693256637
-0.3007000000000001,-0.5562644831069326
-0.29969999999999997,-0.540419716548444
-0.2987000000000001,-0.5242920077299826
-0.29769999999999996,-0.5098619524713591
-0.2967000000000001,-0.49896867546239837
-0.29569999999999996,-0.49161217670310015
-0.2947000000000001,-0.4851045047237211
-0.29369999999999996,-0.4744941699747333
-0.29270000000000007,-0.46246912392588047
-0.29169999999999996,-0.4542637983866633
-0.29070000000000007,-0.44464376154758106
-0.28969999999999996,-0.4348822535785123
-0.28870000000000007,-0.4197448426699564
-0.28769999999999996,-0.4078612677510901
-0.28670000000000007,-0.3982412309120078
-0.28569999999999995,-0.387347953903047
-0.28470000000000006,-0.3823964643535194
-0.28369999999999995,-0.37022994717468005
-0.28270000000000006,-0.36641022666504447
-0.28169999999999995,-0.3502825178465831
-0.28070000000000006,-0.3419357211773794
-0.27969999999999995,-0.3342962801581082
-0.27870000000000006,-0.31930034037953875
-0.27769999999999995,-0.31632944664982215
-0.27670000000000006,-0.3102461880604025
-0.27569999999999995,-0.30232380478115833
-0.27470000000000006,-0.29100611438223806
