Mar. 15, 2025   17:45:32
Linear Sweep Voltammetry
File: c:/users/guazh/data/banditlqround7_x0exp891_r5/2025-03-03-exp904\1acid_1ac-2025-03-15t17_42_21-lsvinphos\1acid_1ac_lsv_50mvs_efin_-2100mv.bin
Data Source:  Experiment
Instrument Model:  CHI760E
Header: LSV ran at 50 mVs with Efin at -2100mV
Note: 

Init E (V) = -0.6
Final E (V) = -2.1
Scan Rate (V/s) = 0.05
Sample Interval (V) = 0.001
Quiet Time (sec) = 2
Sensitivity (A/V) = 1e-4
Comp R (ohm) = 9.6

Results:

Channel 1:
Ep = -1.833V
ip = 7.731e-4A
Ah = 9.448e-4C

Potential/V, Current/A

-0.600, 9.861e-6
-0.601, 1.002e-5
-0.602, 1.011e-5
-0.603, 1.021e-5
-0.604, 1.028e-5
-0.605, 1.032e-5
-0.606, 1.041e-5
-0.607, 1.044e-5
-0.608, 1.046e-5
-0.609, 1.051e-5
-0.610, 1.058e-5
-0.611, 1.062e-5
-0.612, 1.065e-5
-0.613, 1.069e-5
-0.614, 1.077e-5
-0.615, 1.080e-5
-0.616, 1.083e-5
-0.617, 1.090e-5
-0.618, 1.092e-5
-0.619, 1.095e-5
-0.620, 1.100e-5
-0.621, 1.104e-5
-0.622, 1.108e-5
-0.623, 1.113e-5
-0.624, 1.117e-5
-0.625, 1.124e-5
-0.626, 1.128e-5
-0.627, 1.130e-5
-0.628, 1.131e-5
-0.629, 1.135e-5
-0.630, 1.142e-5
-0.631, 1.150e-5
-0.632, 1.153e-5
-0.633, 1.158e-5
-0.634, 1.164e-5
-0.635, 1.170e-5
-0.636, 1.175e-5
-0.637, 1.176e-5
-0.638, 1.180e-5
-0.639, 1.186e-5
-0.640, 1.193e-5
-0.641, 1.198e-5
-0.642, 1.204e-5
-0.643, 1.207e-5
-0.644, 1.212e-5
-0.645, 1.218e-5
-0.646, 1.228e-5
-0.647, 1.230e-5
-0.648, 1.231e-5
-0.649, 1.236e-5
-0.650, 1.242e-5
-0.651, 1.250e-5
-0.652, 1.254e-5
-0.653, 1.259e-5
-0.654, 1.268e-5
-0.655, 1.272e-5
-0.656, 1.274e-5
-0.657, 1.278e-5
-0.658, 1.286e-5
-0.659, 1.296e-5
-0.660, 1.300e-5
-0.661, 1.310e-5
-0.662, 1.319e-5
-0.663, 1.327e-5
-0.664, 1.331e-5
-0.665, 1.336e-5
-0.666, 1.348e-5
-0.667, 1.352e-5
-0.668, 1.359e-5
-0.669, 1.363e-5
-0.670, 1.369e-5
-0.671, 1.377e-5
-0.672, 1.383e-5
-0.673, 1.389e-5
-0.674, 1.395e-5
-0.675, 1.401e-5
-0.676, 1.409e-5
-0.677, 1.414e-5
-0.678, 1.418e-5
-0.679, 1.423e-5
-0.680, 1.427e-5
-0.681, 1.438e-5
-0.682, 1.443e-5
-0.683, 1.449e-5
-0.684, 1.455e-5
-0.685, 1.465e-5
-0.686, 1.473e-5
-0.687, 1.476e-5
-0.688, 1.482e-5
-0.689, 1.488e-5
-0.690, 1.494e-5
-0.691, 1.501e-5
-0.692, 1.505e-5
-0.693, 1.513e-5
-0.694, 1.521e-5
-0.695, 1.527e-5
-0.696, 1.535e-5
-0.697, 1.541e-5
-0.698, 1.550e-5
-0.699, 1.558e-5
-0.700, 1.563e-5
-0.701, 1.574e-5
-0.702, 1.578e-5
-0.703, 1.585e-5
-0.704, 1.592e-5
-0.705, 1.603e-5
-0.706, 1.615e-5
-0.707, 1.625e-5
-0.708, 1.635e-5
-0.709, 1.644e-5
-0.710, 1.652e-5
-0.711, 1.663e-5
-0.712, 1.671e-5
-0.713, 1.681e-5
-0.714, 1.690e-5
-0.715, 1.697e-5
-0.716, 1.700e-5
-0.717, 1.705e-5
-0.718, 1.718e-5
-0.719, 1.723e-5
-0.720, 1.730e-5
-0.721, 1.738e-5
-0.722, 1.745e-5
-0.723, 1.756e-5
-0.724, 1.761e-5
-0.725, 1.766e-5
-0.726, 1.781e-5
-0.727, 1.787e-5
-0.728, 1.792e-5
-0.729, 1.798e-5
-0.730, 1.805e-5
-0.731, 1.811e-5
-0.732, 1.819e-5
-0.733, 1.824e-5
-0.734, 1.835e-5
-0.735, 1.850e-5
-0.736, 1.858e-5
-0.737, 1.864e-5
-0.738, 1.874e-5
-0.739, 1.885e-5
-0.740, 1.896e-5
-0.741, 1.908e-5
-0.742, 1.912e-5
-0.743, 1.926e-5
-0.744, 1.930e-5
-0.745, 1.933e-5
-0.746, 1.936e-5
-0.747, 1.949e-5
-0.748, 1.963e-5
-0.749, 1.974e-5
-0.750, 1.979e-5
-0.751, 1.984e-5
-0.752, 1.994e-5
-0.753, 2.003e-5
-0.754, 2.008e-5
-0.755, 2.015e-5
-0.756, 2.017e-5
-0.757, 2.030e-5
-0.758, 2.043e-5
-0.759, 2.051e-5
-0.760, 2.058e-5
-0.761, 2.074e-5
-0.762, 2.090e-5
-0.763, 2.092e-5
-0.764, 2.098e-5
-0.765, 2.111e-5
-0.766, 2.120e-5
-0.767, 2.124e-5
-0.768, 2.132e-5
-0.769, 2.143e-5
-0.770, 2.153e-5
-0.771, 2.164e-5
-0.772, 2.176e-5
-0.773, 2.187e-5
-0.774, 2.189e-5
-0.775, 2.191e-5
-0.776, 2.202e-5
-0.777, 2.210e-5
-0.778, 2.220e-5
-0.779, 2.239e-5
-0.780, 2.250e-5
-0.781, 2.257e-5
-0.782, 2.270e-5
-0.783, 2.280e-5
-0.784, 2.286e-5
-0.785, 2.299e-5
-0.786, 2.311e-5
-0.787, 2.315e-5
-0.788, 2.313e-5
-0.789, 2.316e-5
-0.790, 2.329e-5
-0.791, 2.342e-5
-0.792, 2.362e-5
-0.793, 2.369e-5
-0.794, 2.376e-5
-0.795, 2.383e-5
-0.796, 2.402e-5
-0.797, 2.404e-5
-0.798, 2.411e-5
-0.799, 2.427e-5
-0.800, 2.438e-5
-0.801, 2.447e-5
-0.802, 2.463e-5
-0.803, 2.473e-5
-0.804, 2.478e-5
-0.805, 2.481e-5
-0.806, 2.490e-5
-0.807, 2.496e-5
-0.808, 2.500e-5
-0.809, 2.499e-5
-0.810, 2.510e-5
-0.811, 2.515e-5
-0.812, 2.514e-5
-0.813, 2.516e-5
-0.814, 2.505e-5
-0.815, 2.522e-5
-0.816, 2.540e-5
-0.817, 2.554e-5
-0.818, 2.553e-5
-0.819, 2.559e-5
-0.820, 2.574e-5
-0.821, 2.589e-5
-0.822, 2.592e-5
-0.823, 2.595e-5
-0.824, 2.614e-5
-0.825, 2.627e-5
-0.826, 2.636e-5
-0.827, 2.638e-5
-0.828, 2.637e-5
-0.829, 2.641e-5
-0.830, 2.658e-5
-0.831, 2.670e-5
-0.832, 2.686e-5
-0.833, 2.698e-5
-0.834, 2.707e-5
-0.835, 2.709e-5
-0.836, 2.713e-5
-0.837, 2.712e-5
-0.838, 2.721e-5
-0.839, 2.734e-5
-0.840, 2.741e-5
-0.841, 2.744e-5
-0.842, 2.752e-5
-0.843, 2.769e-5
-0.844, 2.774e-5
-0.845, 2.783e-5
-0.846, 2.787e-5
-0.847, 2.795e-5
-0.848, 2.797e-5
-0.849, 2.809e-5
-0.850, 2.822e-5
-0.851, 2.830e-5
-0.852, 2.830e-5
-0.853, 2.834e-5
-0.854, 2.836e-5
-0.855, 2.840e-5
-0.856, 2.850e-5
-0.857, 2.849e-5
-0.858, 2.847e-5
-0.859, 2.851e-5
-0.860, 2.855e-5
-0.861, 2.852e-5
-0.862, 2.860e-5
-0.863, 2.867e-5
-0.864, 2.878e-5
-0.865, 2.889e-5
-0.866, 2.896e-5
-0.867, 2.908e-5
-0.868, 2.914e-5
-0.869, 2.917e-5
-0.870, 2.934e-5
-0.871, 2.951e-5
-0.872, 2.961e-5
-0.873, 2.974e-5
-0.874, 2.984e-5
-0.875, 2.995e-5
-0.876, 3.001e-5
-0.877, 3.002e-5
-0.878, 3.012e-5
-0.879, 3.022e-5
-0.880, 3.034e-5
-0.881, 3.034e-5
-0.882, 3.050e-5
-0.883, 3.059e-5
-0.884, 3.054e-5
-0.885, 3.055e-5
-0.886, 3.055e-5
-0.887, 3.066e-5
-0.888, 3.062e-5
-0.889, 3.062e-5
-0.890, 3.057e-5
-0.891, 3.050e-5
-0.892, 3.049e-5
-0.893, 3.055e-5
-0.894, 3.064e-5
-0.895, 3.069e-5
-0.896, 3.074e-5
-0.897, 3.081e-5
-0.898, 3.082e-5
-0.899, 3.080e-5
-0.900, 3.097e-5
-0.901, 3.104e-5
-0.902, 3.098e-5
-0.903, 3.104e-5
-0.904, 3.125e-5
-0.905, 3.128e-5
-0.906, 3.118e-5
-0.907, 3.132e-5
-0.908, 3.140e-5
-0.909, 3.173e-5
-0.910, 3.189e-5
-0.911, 3.196e-5
-0.912, 3.201e-5
-0.913, 3.201e-5
-0.914, 3.195e-5
-0.915, 3.196e-5
-0.916, 3.204e-5
-0.917, 3.206e-5
-0.918, 3.191e-5
-0.919, 3.195e-5
-0.920, 3.204e-5
-0.921, 3.224e-5
-0.922, 3.250e-5
-0.923, 3.249e-5
-0.924, 3.250e-5
-0.925, 3.259e-5
-0.926, 3.275e-5
-0.927, 3.270e-5
-0.928, 3.267e-5
-0.929, 3.277e-5
-0.930, 3.282e-5
-0.931, 3.288e-5
-0.932, 3.302e-5
-0.933, 3.307e-5
-0.934, 3.322e-5
-0.935, 3.327e-5
-0.936, 3.357e-5
-0.937, 3.356e-5
-0.938, 3.375e-5
-0.939, 3.387e-5
-0.940, 3.386e-5
-0.941, 3.370e-5
-0.942, 3.365e-5
-0.943, 3.350e-5
-0.944, 3.340e-5
-0.945, 3.352e-5
-0.946, 3.367e-5
-0.947, 3.372e-5
-0.948, 3.372e-5
-0.949, 3.375e-5
-0.950, 3.386e-5
-0.951, 3.392e-5
-0.952, 3.390e-5
-0.953, 3.398e-5
-0.954, 3.413e-5
-0.955, 3.414e-5
-0.956, 3.416e-5
-0.957, 3.422e-5
-0.958, 3.428e-5
-0.959, 3.440e-5
-0.960, 3.440e-5
-0.961, 3.442e-5
-0.962, 3.448e-5
-0.963, 3.457e-5
-0.964, 3.461e-5
-0.965, 3.487e-5
-0.966, 3.510e-5
-0.967, 3.519e-5
-0.968, 3.513e-5
-0.969, 3.492e-5
-0.970, 3.481e-5
-0.971, 3.497e-5
-0.972, 3.511e-5
-0.973, 3.516e-5
-0.974, 3.515e-5
-0.975, 3.517e-5
-0.976, 3.533e-5
-0.977, 3.543e-5
-0.978, 3.548e-5
-0.979, 3.558e-5
-0.980, 3.560e-5
-0.981, 3.552e-5
-0.982, 3.570e-5
-0.983, 3.576e-5
-0.984, 3.579e-5
-0.985, 3.595e-5
-0.986, 3.599e-5
-0.987, 3.598e-5
-0.988, 3.575e-5
-0.989, 3.560e-5
-0.990, 3.558e-5
-0.991, 3.569e-5
-0.992, 3.585e-5
-0.993, 3.589e-5
-0.994, 3.592e-5
-0.995, 3.592e-5
-0.996, 3.593e-5
-0.997, 3.574e-5
-0.998, 3.585e-5
-0.999, 3.598e-5
-1.000, 3.607e-5
-1.001, 3.618e-5
-1.002, 3.618e-5
-1.003, 3.618e-5
-1.004, 3.625e-5
-1.005, 3.622e-5
-1.006, 3.623e-5
-1.007, 3.640e-5
-1.008, 3.653e-5
-1.009, 3.645e-5
-1.010, 3.633e-5
-1.011, 3.640e-5
-1.012, 3.662e-5
-1.013, 3.669e-5
-1.014, 3.675e-5
-1.015, 3.677e-5
-1.016, 3.681e-5
-1.017, 3.704e-5
-1.018, 3.702e-5
-1.019, 3.724e-5
-1.020, 3.731e-5
-1.021, 3.708e-5
-1.022, 3.686e-5
-1.023, 3.677e-5
-1.024, 3.718e-5
-1.025, 3.716e-5
-1.026, 3.715e-5
-1.027, 3.716e-5
-1.028, 3.710e-5
-1.029, 3.698e-5
-1.030, 3.718e-5
-1.031, 3.729e-5
-1.032, 3.756e-5
-1.033, 3.766e-5
-1.034, 3.770e-5
-1.035, 3.776e-5
-1.036, 3.811e-5
-1.037, 3.780e-5
-1.038, 3.765e-5
-1.039, 3.790e-5
-1.040, 3.769e-5
-1.041, 3.784e-5
-1.042, 3.756e-5
-1.043, 3.745e-5
-1.044, 3.770e-5
-1.045, 3.774e-5
-1.046, 3.758e-5
-1.047, 3.763e-5
-1.048, 3.768e-5
-1.049, 3.788e-5
-1.050, 3.814e-5
-1.051, 3.807e-5
-1.052, 3.825e-5
-1.053, 3.821e-5
-1.054, 3.828e-5
-1.055, 3.835e-5
-1.056, 3.818e-5
-1.057, 3.786e-5
-1.058, 3.777e-5
-1.059, 3.789e-5
-1.060, 3.815e-5
-1.061, 3.828e-5
-1.062, 3.829e-5
-1.063, 3.832e-5
-1.064, 3.831e-5
-1.065, 3.842e-5
-1.066, 3.850e-5
-1.067, 3.851e-5
-1.068, 3.869e-5
-1.069, 3.868e-5
-1.070, 3.860e-5
-1.071, 3.836e-5
-1.072, 3.816e-5
-1.073, 3.857e-5
-1.074, 3.864e-5
-1.075, 3.864e-5
-1.076, 3.865e-5
-1.077, 3.881e-5
-1.078, 3.909e-5
-1.079, 3.926e-5
-1.080, 3.927e-5
-1.081, 3.915e-5
-1.082, 3.934e-5
-1.083, 3.937e-5
-1.084, 3.924e-5
-1.085, 3.940e-5
-1.086, 3.943e-5
-1.087, 3.960e-5
-1.088, 3.956e-5
-1.089, 3.919e-5
-1.090, 3.920e-5
-1.091, 3.956e-5
-1.092, 3.959e-5
-1.093, 3.942e-5
-1.094, 3.944e-5
-1.095, 3.962e-5
-1.096, 3.968e-5
-1.097, 3.964e-5
-1.098, 3.988e-5
-1.099, 3.997e-5
-1.100, 3.998e-5
-1.101, 4.025e-5
-1.102, 4.063e-5
-1.103, 4.061e-5
-1.104, 4.050e-5
-1.105, 4.060e-5
-1.106, 4.064e-5
-1.107, 4.060e-5
-1.108, 4.067e-5
-1.109, 4.067e-5
-1.110, 4.081e-5
-1.111, 4.071e-5
-1.112, 4.056e-5
-1.113, 4.033e-5
-1.114, 4.017e-5
-1.115, 3.994e-5
-1.116, 4.000e-5
-1.117, 4.014e-5
-1.118, 4.047e-5
-1.119, 4.045e-5
-1.120, 4.027e-5
-1.121, 4.054e-5
-1.122, 4.053e-5
-1.123, 4.053e-5
-1.124, 4.043e-5
-1.125, 4.040e-5
-1.126, 4.053e-5
-1.127, 4.038e-5
-1.128, 4.052e-5
-1.129, 4.069e-5
-1.130, 4.098e-5
-1.131, 4.133e-5
-1.132, 4.115e-5
-1.133, 4.126e-5
-1.134, 4.123e-5
-1.135, 4.115e-5
-1.136, 4.119e-5
-1.137, 4.118e-5
-1.138, 4.143e-5
-1.139, 4.133e-5
-1.140, 4.097e-5
-1.141, 4.102e-5
-1.142, 4.119e-5
-1.143, 4.116e-5
-1.144, 4.125e-5
-1.145, 4.124e-5
-1.146, 4.124e-5
-1.147, 4.139e-5
-1.148, 4.144e-5
-1.149, 4.144e-5
-1.150, 4.131e-5
-1.151, 4.112e-5
-1.152, 4.101e-5
-1.153, 4.113e-5
-1.154, 4.135e-5
-1.155, 4.119e-5
-1.156, 4.162e-5
-1.157, 4.209e-5
-1.158, 4.209e-5
-1.159, 4.240e-5
-1.160, 4.209e-5
-1.161, 4.161e-5
-1.162, 4.151e-5
-1.163, 4.149e-5
-1.164, 4.155e-5
-1.165, 4.164e-5
-1.166, 4.177e-5
-1.167, 4.212e-5
-1.168, 4.219e-5
-1.169, 4.210e-5
-1.170, 4.227e-5
-1.171, 4.250e-5
-1.172, 4.279e-5
-1.173, 4.263e-5
-1.174, 4.236e-5
-1.175, 4.226e-5
-1.176, 4.198e-5
-1.177, 4.111e-5
-1.178, 4.098e-5
-1.179, 4.108e-5
-1.180, 4.137e-5
-1.181, 4.155e-5
-1.182, 4.155e-5
-1.183, 4.138e-5
-1.184, 4.159e-5
-1.185, 4.143e-5
-1.186, 4.131e-5
-1.187, 4.095e-5
-1.188, 4.075e-5
-1.189, 4.096e-5
-1.190, 4.133e-5
-1.191, 4.123e-5
-1.192, 4.150e-5
-1.193, 4.151e-5
-1.194, 4.174e-5
-1.195, 4.215e-5
-1.196, 4.263e-5
-1.197, 4.265e-5
-1.198, 4.237e-5
-1.199, 4.241e-5
-1.200, 4.262e-5
-1.201, 4.269e-5
-1.202, 4.254e-5
-1.203, 4.257e-5
-1.204, 4.281e-5
-1.205, 4.309e-5
-1.206, 4.300e-5
-1.207, 4.297e-5
-1.208, 4.332e-5
-1.209, 4.313e-5
-1.210, 4.343e-5
-1.211, 4.377e-5
-1.212, 4.374e-5
-1.213, 4.373e-5
-1.214, 4.383e-5
-1.215, 4.400e-5
-1.216, 4.408e-5
-1.217, 4.372e-5
-1.218, 4.344e-5
-1.219, 4.323e-5
-1.220, 4.323e-5
-1.221, 4.348e-5
-1.222, 4.305e-5
-1.223, 4.311e-5
-1.224, 4.320e-5
-1.225, 4.280e-5
-1.226, 4.279e-5
-1.227, 4.291e-5
-1.228, 4.308e-5
-1.229, 4.336e-5
-1.230, 4.340e-5
-1.231, 4.364e-5
-1.232, 4.395e-5
-1.233, 4.375e-5
-1.234, 4.380e-5
-1.235, 4.381e-5
-1.236, 4.387e-5
-1.237, 4.374e-5
-1.238, 4.367e-5
-1.239, 4.387e-5
-1.240, 4.407e-5
-1.241, 4.400e-5
-1.242, 4.409e-5
-1.243, 4.434e-5
-1.244, 4.438e-5
-1.245, 4.444e-5
-1.246, 4.450e-5
-1.247, 4.473e-5
-1.248, 4.476e-5
-1.249, 4.491e-5
-1.250, 4.477e-5
-1.251, 4.509e-5
-1.252, 4.521e-5
-1.253, 4.501e-5
-1.254, 4.504e-5
-1.255, 4.488e-5
-1.256, 4.481e-5
-1.257, 4.470e-5
-1.258, 4.497e-5
-1.259, 4.472e-5
-1.260, 4.458e-5
-1.261, 4.467e-5
-1.262, 4.495e-5
-1.263, 4.522e-5
-1.264, 4.551e-5
-1.265, 4.575e-5
-1.266, 4.562e-5
-1.267, 4.590e-5
-1.268, 4.559e-5
-1.269, 4.541e-5
-1.270, 4.546e-5
-1.271, 4.552e-5
-1.272, 4.552e-5
-1.273, 4.560e-5
-1.274, 4.592e-5
-1.275, 4.611e-5
-1.276, 4.604e-5
-1.277, 4.592e-5
-1.278, 4.606e-5
-1.279, 4.572e-5
-1.280, 4.586e-5
-1.281, 4.615e-5
-1.282, 4.620e-5
-1.283, 4.632e-5
-1.284, 4.641e-5
-1.285, 4.625e-5
-1.286, 4.622e-5
-1.287, 4.626e-5
-1.288, 4.631e-5
-1.289, 4.643e-5
-1.290, 4.661e-5
-1.291, 4.656e-5
-1.292, 4.679e-5
-1.293, 4.668e-5
-1.294, 4.667e-5
-1.295, 4.644e-5
-1.296, 4.628e-5
-1.297, 4.672e-5
-1.298, 4.702e-5
-1.299, 4.701e-5
-1.300, 4.716e-5
-1.301, 4.761e-5
-1.302, 4.778e-5
-1.303, 4.750e-5
-1.304, 4.715e-5
-1.305, 4.734e-5
-1.306, 4.751e-5
-1.307, 4.761e-5
-1.308, 4.765e-5
-1.309, 4.750e-5
-1.310, 4.781e-5
-1.311, 4.792e-5
-1.312, 4.829e-5
-1.313, 4.812e-5
-1.314, 4.773e-5
-1.315, 4.799e-5
-1.316, 4.818e-5
-1.317, 4.812e-5
-1.318, 4.815e-5
-1.319, 4.844e-5
-1.320, 4.829e-5
-1.321, 4.839e-5
-1.322, 4.856e-5
-1.323, 4.877e-5
-1.324, 4.892e-5
-1.325, 4.877e-5
-1.326, 4.900e-5
-1.327, 4.839e-5
-1.328, 4.838e-5
-1.329, 4.843e-5
-1.330, 4.841e-5
-1.331, 4.848e-5
-1.332, 4.799e-5
-1.333, 4.779e-5
-1.334, 4.773e-5
-1.335, 4.764e-5
-1.336, 4.769e-5
-1.337, 4.790e-5
-1.338, 4.824e-5
-1.339, 4.835e-5
-1.340, 4.854e-5
-1.341, 4.903e-5
-1.342, 4.916e-5
-1.343, 4.921e-5
-1.344, 4.881e-5
-1.345, 4.854e-5
-1.346, 4.892e-5
-1.347, 4.856e-5
-1.348, 4.849e-5
-1.349, 4.917e-5
-1.350, 4.920e-5
-1.351, 4.945e-5
-1.352, 4.925e-5
-1.353, 4.912e-5
-1.354, 4.939e-5
-1.355, 4.951e-5
-1.356, 4.973e-5
-1.357, 4.986e-5
-1.358, 4.974e-5
-1.359, 4.965e-5
-1.360, 4.982e-5
-1.361, 4.984e-5
-1.362, 4.955e-5
-1.363, 4.960e-5
-1.364, 5.003e-5
-1.365, 5.061e-5
-1.366, 5.063e-5
-1.367, 5.089e-5
-1.368, 5.117e-5
-1.369, 5.111e-5
-1.370, 5.100e-5
-1.371, 5.119e-5
-1.372, 5.121e-5
-1.373, 5.152e-5
-1.374, 5.159e-5
-1.375, 5.136e-5
-1.376, 5.171e-5
-1.377, 5.135e-5
-1.378, 5.156e-5
-1.379, 5.167e-5
-1.380, 5.177e-5
-1.381, 5.183e-5
-1.382, 5.165e-5
-1.383, 5.175e-5
-1.384, 5.164e-5
-1.385, 5.153e-5
-1.386, 5.174e-5
-1.387, 5.187e-5
-1.388, 5.175e-5
-1.389, 5.193e-5
-1.390, 5.221e-5
-1.391, 5.196e-5
-1.392, 5.204e-5
-1.393, 5.225e-5
-1.394, 5.232e-5
-1.395, 5.270e-5
-1.396, 5.284e-5
-1.397, 5.276e-5
-1.398, 5.302e-5
-1.399, 5.355e-5
-1.400, 5.443e-5
-1.401, 5.448e-5
-1.402, 5.473e-5
-1.403, 5.486e-5
-1.404, 5.526e-5
-1.405, 5.554e-5
-1.406, 5.549e-5
-1.407, 5.561e-5
-1.408, 5.565e-5
-1.409, 5.585e-5
-1.410, 5.587e-5
-1.411, 5.609e-5
-1.412, 5.624e-5
-1.413, 5.664e-5
-1.414, 5.702e-5
-1.415, 5.728e-5
-1.416, 5.753e-5
-1.417, 5.744e-5
-1.418, 5.762e-5
-1.419, 5.778e-5
-1.420, 5.794e-5
-1.421, 5.802e-5
-1.422, 5.849e-5
-1.423, 5.874e-5
-1.424, 5.943e-5
-1.425, 5.923e-5
-1.426, 5.909e-5
-1.427, 5.925e-5
-1.428, 5.926e-5
-1.429, 5.928e-5
-1.430, 5.927e-5
-1.431, 5.976e-5
-1.432, 5.988e-5
-1.433, 5.952e-5
-1.434, 5.972e-5
-1.435, 5.945e-5
-1.436, 5.961e-5
-1.437, 5.997e-5
-1.438, 6.011e-5
-1.439, 5.996e-5
-1.440, 6.040e-5
-1.441, 6.083e-5
-1.442, 6.113e-5
-1.443, 6.080e-5
-1.444, 6.082e-5
-1.445, 6.106e-5
-1.446, 6.112e-5
-1.447, 6.097e-5
-1.448, 6.110e-5
-1.449, 6.071e-5
-1.450, 6.089e-5
-1.451, 6.177e-5
-1.452, 6.191e-5
-1.453, 6.208e-5
-1.454, 6.240e-5
-1.455, 6.237e-5
-1.456, 6.188e-5
-1.457, 6.221e-5
-1.458, 6.288e-5
-1.459, 6.336e-5
-1.460, 6.367e-5
-1.461, 6.407e-5
-1.462, 6.379e-5
-1.463, 6.379e-5
-1.464, 6.423e-5
-1.465, 6.430e-5
-1.466, 6.444e-5
-1.467, 6.434e-5
-1.468, 6.446e-5
-1.469, 6.510e-5
-1.470, 6.505e-5
-1.471, 6.553e-5
-1.472, 6.616e-5
-1.473, 6.670e-5
-1.474, 6.713e-5
-1.475, 6.726e-5
-1.476, 6.739e-5
-1.477, 6.768e-5
-1.478, 6.772e-5
-1.479, 6.748e-5
-1.480, 6.758e-5
-1.481, 6.831e-5
-1.482, 6.876e-5
-1.483, 6.876e-5
-1.484, 6.919e-5
-1.485, 6.949e-5
-1.486, 6.989e-5
-1.487, 6.985e-5
-1.488, 6.985e-5
-1.489, 6.974e-5
-1.490, 6.962e-5
-1.491, 6.973e-5
-1.492, 6.988e-5
-1.493, 7.019e-5
-1.494, 7.013e-5
-1.495, 7.003e-5
-1.496, 7.027e-5
-1.497, 7.067e-5
-1.498, 7.079e-5
-1.499, 7.120e-5
-1.500, 7.183e-5
-1.501, 7.225e-5
-1.502, 7.242e-5
-1.503, 7.260e-5
-1.504, 7.299e-5
-1.505, 7.331e-5
-1.506, 7.329e-5
-1.507, 7.358e-5
-1.508, 7.365e-5
-1.509, 7.387e-5
-1.510, 7.463e-5
-1.511, 7.448e-5
-1.512, 7.472e-5
-1.513, 7.514e-5
-1.514, 7.595e-5
-1.515, 7.651e-5
-1.516, 7.627e-5
-1.517, 7.667e-5
-1.518, 7.689e-5
-1.519, 7.709e-5
-1.520, 7.769e-5
-1.521, 7.786e-5
-1.522, 7.756e-5
-1.523, 7.758e-5
-1.524, 7.741e-5
-1.525, 7.702e-5
-1.526, 7.754e-5
-1.527, 7.750e-5
-1.528, 7.724e-5
-1.529, 7.783e-5
-1.530, 7.923e-5
-1.531, 7.996e-5
-1.532, 7.993e-5
-1.533, 8.032e-5
-1.534, 8.021e-5
-1.535, 8.080e-5
-1.536, 8.158e-5
-1.537, 8.204e-5
-1.538, 8.246e-5
-1.539, 8.261e-5
-1.540, 8.342e-5
-1.541, 8.389e-5
-1.542, 8.391e-5
-1.543, 8.358e-5
-1.544, 8.369e-5
-1.545, 8.372e-5
-1.546, 8.434e-5
-1.547, 8.491e-5
-1.548, 8.538e-5
-1.549, 8.636e-5
-1.550, 8.655e-5
-1.551, 8.686e-5
-1.552, 8.709e-5
-1.553, 8.726e-5
-1.554, 8.744e-5
-1.555, 8.799e-5
-1.556, 8.831e-5
-1.557, 8.890e-5
-1.558, 9.028e-5
-1.559, 9.048e-5
-1.560, 9.075e-5
-1.561, 9.172e-5
-1.562, 9.212e-5
-1.563, 9.210e-5
-1.564, 9.217e-5
-1.565, 9.302e-5
-1.566, 9.401e-5
-1.567, 9.504e-5
-1.568, 9.553e-5
-1.569, 9.560e-5
-1.570, 9.603e-5
-1.571, 9.659e-5
-1.572, 9.724e-5
-1.573, 9.759e-5
-1.574, 9.813e-5
-1.575, 9.829e-5
-1.576, 9.873e-5
-1.577, 9.853e-5
-1.578, 9.824e-5
-1.579, 9.832e-5
-1.580, 9.863e-5
-1.581, 9.957e-5
-1.582, 1.007e-4
-1.583, 1.012e-4
-1.584, 1.020e-4
-1.585, 1.024e-4
-1.586, 1.030e-4
-1.587, 1.042e-4
-1.588, 1.041e-4
-1.589, 1.045e-4
-1.590, 1.055e-4
-1.591, 1.065e-4
-1.592, 1.074e-4
-1.593, 1.085e-4
-1.594, 1.088e-4
-1.595, 1.088e-4
-1.596, 1.091e-4
-1.597, 1.097e-4
-1.598, 1.102e-4
-1.599, 1.103e-4
-1.600, 1.109e-4
-1.601, 1.118e-4
-1.602, 1.127e-4
-1.603, 1.135e-4
-1.604, 1.136e-4
-1.605, 1.134e-4
-1.606, 1.137e-4
-1.607, 1.140e-4
-1.608, 1.141e-4
-1.609, 1.147e-4
-1.610, 1.155e-4
-1.611, 1.163e-4
-1.612, 1.167e-4
-1.613, 1.178e-4
-1.614, 1.187e-4
-1.615, 1.191e-4
-1.616, 1.199e-4
-1.617, 1.204e-4
-1.618, 1.206e-4
-1.619, 1.216e-4
-1.620, 1.226e-4
-1.621, 1.232e-4
-1.622, 1.237e-4
-1.623, 1.246e-4
-1.624, 1.256e-4
-1.625, 1.266e-4
-1.626, 1.273e-4
-1.627, 1.284e-4
-1.628, 1.296e-4
-1.629, 1.308e-4
-1.630, 1.329e-4
-1.631, 1.345e-4
-1.632, 1.355e-4
-1.633, 1.375e-4
-1.634, 1.385e-4
-1.635, 1.393e-4
-1.636, 1.404e-4
-1.637, 1.408e-4
-1.638, 1.411e-4
-1.639, 1.420e-4
-1.640, 1.426e-4
-1.641, 1.431e-4
-1.642, 1.434e-4
-1.643, 1.452e-4
-1.644, 1.467e-4
-1.645, 1.482e-4
-1.646, 1.489e-4
-1.647, 1.499e-4
-1.648, 1.504e-4
-1.649, 1.516e-4
-1.650, 1.528e-4
-1.651, 1.535e-4
-1.652, 1.540e-4
-1.653, 1.543e-4
-1.654, 1.551e-4
-1.655, 1.561e-4
-1.656, 1.571e-4
-1.657, 1.582e-4
-1.658, 1.596e-4
-1.659, 1.610e-4
-1.660, 1.622e-4
-1.661, 1.636e-4
-1.662, 1.651e-4
-1.663, 1.662e-4
-1.664, 1.674e-4
-1.665, 1.689e-4
-1.666, 1.705e-4
-1.667, 1.724e-4
-1.668, 1.738e-4
-1.669, 1.753e-4
-1.670, 1.770e-4
-1.671, 1.785e-4
-1.672, 1.799e-4
-1.673, 1.814e-4
-1.674, 1.833e-4
-1.675, 1.852e-4
-1.676, 1.874e-4
-1.677, 1.889e-4
-1.678, 1.899e-4
-1.679, 1.912e-4
-1.680, 1.927e-4
-1.681, 1.942e-4
-1.682, 1.960e-4
-1.683, 1.977e-4
-1.684, 1.999e-4
-1.685, 2.023e-4
-1.686, 2.042e-4
-1.687, 2.067e-4
-1.688, 2.091e-4
-1.689, 2.111e-4
-1.690, 2.133e-4
-1.691, 2.145e-4
-1.692, 2.161e-4
-1.693, 2.184e-4
-1.694, 2.204e-4
-1.695, 2.224e-4
-1.696, 2.244e-4
-1.697, 2.267e-4
-1.698, 2.290e-4
-1.699, 2.316e-4
-1.700, 2.343e-4
-1.701, 2.370e-4
-1.702, 2.392e-4
-1.703, 2.421e-4
-1.704, 2.442e-4
-1.705, 2.465e-4
-1.706, 2.492e-4
-1.707, 2.512e-4
-1.708, 2.536e-4
-1.709, 2.566e-4
-1.710, 2.595e-4
-1.711, 2.618e-4
-1.712, 2.645e-4
-1.713, 2.674e-4
-1.714, 2.701e-4
-1.715, 2.725e-4
-1.716, 2.754e-4
-1.717, 2.783e-4
-1.718, 2.811e-4
-1.719, 2.846e-4
-1.720, 2.882e-4
-1.721, 2.915e-4
-1.722, 2.948e-4
-1.723, 2.981e-4
-1.724, 3.013e-4
-1.725, 3.048e-4
-1.726, 3.081e-4
-1.727, 3.113e-4
-1.728, 3.149e-4
-1.729, 3.182e-4
-1.730, 3.213e-4
-1.731, 3.247e-4
-1.732, 3.283e-4
-1.733, 3.321e-4
-1.734, 3.360e-4
-1.735, 3.398e-4
-1.736, 3.438e-4
-1.737, 3.480e-4
-1.738, 3.519e-4
-1.739, 3.557e-4
-1.740, 3.599e-4
-1.741, 3.642e-4
-1.742, 3.682e-4
-1.743, 3.726e-4
-1.744, 3.773e-4
-1.745, 3.825e-4
-1.746, 3.875e-4
-1.747, 3.923e-4
-1.748, 3.969e-4
-1.749, 4.017e-4
-1.750, 4.063e-4
-1.751, 4.112e-4
-1.752, 4.158e-4
-1.753, 4.207e-4
-1.754, 4.260e-4
-1.755, 4.306e-4
-1.756, 4.361e-4
-1.757, 4.413e-4
-1.758, 4.461e-4
-1.759, 4.518e-4
-1.760, 4.576e-4
-1.761, 4.632e-4
-1.762, 4.680e-4
-1.763, 4.735e-4
-1.764, 4.792e-4
-1.765, 4.854e-4
-1.766, 4.917e-4
-1.767, 4.975e-4
-1.768, 5.030e-4
-1.769, 5.086e-4
-1.770, 5.146e-4
-1.771, 5.207e-4
-1.772, 5.270e-4
-1.773, 5.334e-4
-1.774, 5.400e-4
-1.775, 5.464e-4
-1.776, 5.527e-4
-1.777, 5.591e-4
-1.778, 5.656e-4
-1.779, 5.724e-4
-1.780, 5.790e-4
-1.781, 5.859e-4
-1.782, 5.925e-4
-1.783, 5.996e-4
-1.784, 6.069e-4
-1.785, 6.136e-4
-1.786, 6.210e-4
-1.787, 6.284e-4
-1.788, 6.354e-4
-1.789, 6.421e-4
-1.790, 6.489e-4
-1.791, 6.565e-4
-1.792, 6.641e-4
-1.793, 6.721e-4
-1.794, 6.791e-4
-1.795, 6.861e-4
-1.796, 6.938e-4
-1.797, 7.012e-4
-1.798, 7.084e-4
-1.799, 7.163e-4
-1.800, 7.249e-4
-1.801, 7.341e-4
-1.802, 7.426e-4
-1.803, 7.508e-4
-1.804, 7.588e-4
-1.805, 7.668e-4
-1.806, 7.749e-4
-1.807, 7.839e-4
-1.808, 7.929e-4
-1.809, 8.006e-4
-1.810, 8.088e-4
-1.811, 8.170e-4
-1.812, 8.250e-4
-1.813, 8.334e-4
-1.814, 8.415e-4
-1.815, 8.504e-4
-1.816, 8.600e-4
-1.817, 8.691e-4
-1.818, 8.778e-4
-1.819, 8.865e-4
-1.820, 8.957e-4
-1.821, 9.050e-4
-1.822, 9.145e-4
-1.823, 9.236e-4
-1.824, 9.328e-4
-1.825, 9.423e-4
-1.826, 9.508e-4
-1.827, 9.603e-4
-1.828, 9.701e-4
-1.829, 9.795e-4
-1.830, 9.889e-4
-1.831, 9.984e-4
-1.832, 1.008e-3
-1.833, 1.011e-3
-1.834, 1.011e-3
-1.835, 1.011e-3
-1.836, 1.011e-3
-1.837, 1.011e-3
-1.838, 1.011e-3
-1.839, 1.011e-3
-1.840, 1.011e-3
-1.841, 1.011e-3
-1.842, 1.011e-3
-1.843, 1.011e-3
-1.844, 1.011e-3
-1.845, 1.011e-3
-1.846, 1.011e-3
-1.847, 1.011e-3
-1.848, 1.011e-3
-1.849, 1.011e-3
-1.850, 1.011e-3
-1.851, 1.011e-3
-1.852, 1.011e-3
-1.853, 1.011e-3
-1.854, 1.011e-3
-1.855, 1.011e-3
-1.856, 1.011e-3
-1.857, 1.011e-3
-1.858, 1.011e-3
-1.859, 1.011e-3
-1.860, 1.011e-3
-1.861, 1.011e-3
-1.862, 1.011e-3
-1.863, 1.011e-3
-1.864, 1.011e-3
-1.865, 1.011e-3
-1.866, 1.011e-3
-1.867, 1.011e-3
-1.868, 1.011e-3
-1.869, 1.011e-3
-1.870, 1.011e-3
-1.871, 1.011e-3
-1.872, 1.011e-3
-1.873, 1.011e-3
-1.874, 1.011e-3
-1.875, 1.011e-3
-1.876, 1.011e-3
-1.877, 1.011e-3
-1.878, 1.011e-3
-1.879, 1.011e-3
-1.880, 1.011e-3
-1.881, 1.011e-3
-1.882, 1.011e-3
-1.883, 1.011e-3
-1.884, 1.011e-3
-1.885, 1.011e-3
-1.886, 1.011e-3
-1.887, 1.011e-3
-1.888, 1.011e-3
-1.889, 1.011e-3
-1.890, 1.011e-3
-1.891, 1.011e-3
-1.892, 1.011e-3
-1.893, 1.011e-3
-1.894, 1.011e-3
-1.895, 1.011e-3
-1.896, 1.011e-3
-1.897, 1.011e-3
-1.898, 1.011e-3
-1.899, 1.011e-3
-1.900, 1.011e-3
-1.901, 1.011e-3
-1.902, 1.011e-3
-1.903, 1.011e-3
-1.904, 1.011e-3
-1.905, 1.011e-3
-1.906, 1.011e-3
-1.907, 1.011e-3
-1.908, 1.011e-3
-1.909, 1.011e-3
-1.910, 1.011e-3
-1.911, 1.011e-3
-1.912, 1.011e-3
-1.913, 1.011e-3
-1.914, 1.011e-3
-1.915, 1.011e-3
-1.916, 1.011e-3
-1.917, 1.011e-3
-1.918, 1.011e-3
-1.919, 1.011e-3
-1.920, 1.011e-3
-1.921, 1.011e-3
-1.922, 1.011e-3
-1.923, 1.011e-3
-1.924, 1.011e-3
-1.925, 1.011e-3
-1.926, 1.011e-3
-1.927, 1.011e-3
-1.928, 1.011e-3
-1.929, 1.011e-3
-1.930, 1.011e-3
-1.931, 1.011e-3
-1.932, 1.011e-3
-1.933, 1.011e-3
-1.934, 1.011e-3
-1.935, 1.011e-3
-1.936, 1.011e-3
-1.937, 1.011e-3
-1.938, 1.011e-3
-1.939, 1.011e-3
-1.940, 1.011e-3
-1.941, 1.011e-3
-1.942, 1.011e-3
-1.943, 1.011e-3
-1.944, 1.011e-3
-1.945, 1.011e-3
-1.946, 1.011e-3
-1.947, 1.011e-3
-1.948, 1.011e-3
-1.949, 1.011e-3
-1.950, 1.011e-3
-1.951, 1.011e-3
-1.952, 1.011e-3
-1.953, 1.011e-3
-1.954, 1.011e-3
-1.955, 1.011e-3
-1.956, 1.011e-3
-1.957, 1.011e-3
-1.958, 1.011e-3
-1.959, 1.011e-3
-1.960, 1.011e-3
-1.961, 1.011e-3
-1.962, 1.011e-3
-1.963, 1.011e-3
-1.964, 1.011e-3
-1.965, 1.011e-3
-1.966, 1.011e-3
-1.967, 1.011e-3
-1.968, 1.011e-3
-1.969, 1.011e-3
-1.970, 1.011e-3
-1.971, 1.011e-3
-1.972, 1.011e-3
-1.973, 1.011e-3
-1.974, 1.011e-3
-1.975, 1.011e-3
-1.976, 1.011e-3
-1.977, 1.011e-3
-1.978, 1.011e-3
-1.979, 1.011e-3
-1.980, 1.011e-3
-1.981, 1.011e-3
-1.982, 1.011e-3
-1.983, 1.011e-3
-1.984, 1.011e-3
-1.985, 1.011e-3
-1.986, 1.011e-3
-1.987, 1.011e-3
-1.988, 1.011e-3
-1.989, 1.011e-3
-1.990, 1.011e-3
-1.991, 1.011e-3
-1.992, 1.011e-3
-1.993, 1.011e-3
-1.994, 1.011e-3
-1.995, 1.011e-3
-1.996, 1.011e-3
-1.997, 1.011e-3
-1.998, 1.011e-3
-1.999, 1.011e-3
-2.000, 1.011e-3
-2.001, 1.011e-3
-2.002, 1.011e-3
-2.003, 1.011e-3
-2.004, 1.011e-3
-2.005, 1.011e-3
-2.006, 1.011e-3
-2.007, 1.011e-3
-2.008, 1.011e-3
-2.009, 1.011e-3
-2.010, 1.011e-3
-2.011, 1.011e-3
-2.012, 1.011e-3
-2.013, 1.011e-3
-2.014, 1.011e-3
-2.015, 1.011e-3
-2.016, 1.011e-3
-2.017, 1.011e-3
-2.018, 1.011e-3
-2.019, 1.011e-3
-2.020, 1.011e-3
-2.021, 1.011e-3
-2.022, 1.011e-3
-2.023, 1.011e-3
-2.024, 1.011e-3
-2.025, 1.011e-3
-2.026, 1.011e-3
-2.027, 1.011e-3
-2.028, 1.011e-3
-2.029, 1.011e-3
-2.030, 1.011e-3
-2.031, 1.011e-3
-2.032, 1.011e-3
-2.033, 1.011e-3
-2.034, 1.011e-3
-2.035, 1.011e-3
-2.036, 1.011e-3
-2.037, 1.011e-3
-2.038, 1.011e-3
-2.039, 1.011e-3
-2.040, 1.011e-3
-2.041, 1.011e-3
-2.042, 1.011e-3
-2.043, 1.011e-3
-2.044, 1.011e-3
-2.045, 1.011e-3
-2.046, 1.011e-3
-2.047, 1.011e-3
-2.048, 1.011e-3
-2.049, 1.011e-3
-2.050, 1.011e-3
-2.051, 1.011e-3
-2.052, 1.011e-3
-2.053, 1.011e-3
-2.054, 1.011e-3
-2.055, 1.011e-3
-2.056, 1.011e-3
-2.057, 1.011e-3
-2.058, 1.011e-3
-2.059, 1.011e-3
-2.060, 1.011e-3
-2.061, 1.011e-3
-2.062, 1.011e-3
-2.063, 1.011e-3
-2.064, 1.011e-3
-2.065, 1.011e-3
-2.066, 1.011e-3
-2.067, 1.011e-3
-2.068, 1.011e-3
-2.069, 1.011e-3
-2.070, 1.011e-3
-2.071, 1.011e-3
-2.072, 1.011e-3
-2.073, 1.011e-3
-2.074, 1.011e-3
-2.075, 1.011e-3
-2.076, 1.011e-3
-2.077, 1.011e-3
-2.078, 1.011e-3
-2.079, 1.011e-3
-2.080, 1.011e-3
-2.081, 1.011e-3
-2.082, 1.011e-3
-2.083, 1.011e-3
-2.084, 1.011e-3
-2.085, 1.011e-3
-2.086, 1.011e-3
-2.087, 1.011e-3
-2.088, 1.011e-3
-2.089, 1.011e-3
-2.090, 1.011e-3
-2.091, 1.011e-3
-2.092, 1.011e-3
-2.093, 1.011e-3
-2.094, 1.011e-3
-2.095, 1.011e-3
-2.096, 1.011e-3
-2.097, 1.011e-3
-2.098, 1.011e-3
-2.099, 1.011e-3
