Sept. 26, 2024   09:14:50
Linear Sweep Voltammetry
File: c:/users/guazh/data/20240922_batch_417_500/2024-09-22-exp452\pre-regen-2024-09-26t09_11_46-lsvinphos\pre-regen_lsv_50mvs_efin_-1900mv.bin
Data Source:  Experiment
Instrument Model:  CHI760E
Header: LSV ran at 50 mVs with Efin at -1900mV
Note: 

Init E (V) = -0.6
Final E (V) = -1.9
Scan Rate (V/s) = 0.05
Sample Interval (V) = 0.001
Quiet Time (sec) = 2
Sensitivity (A/V) = 1e-4
Comp R (ohm) = 13.1

Results:

Channel 1:
Ep = -1.242V
ip = 2.894e-5A
Ah = 4.789e-5C

Ep = -1.798V
ip = 4.826e-4A
Ah = 6.554e-4C

Potential/V, Current/A

-0.600, 3.513e-5
-0.601, 3.544e-5
-0.602, 3.561e-5
-0.603, 3.574e-5
-0.604, 3.584e-5
-0.605, 3.595e-5
-0.606, 3.602e-5
-0.607, 3.612e-5
-0.608, 3.622e-5
-0.609, 3.627e-5
-0.610, 3.629e-5
-0.611, 3.631e-5
-0.612, 3.641e-5
-0.613, 3.648e-5
-0.614, 3.659e-5
-0.615, 3.657e-5
-0.616, 3.651e-5
-0.617, 3.658e-5
-0.618, 3.673e-5
-0.619, 3.675e-5
-0.620, 3.670e-5
-0.621, 3.682e-5
-0.622, 3.689e-5
-0.623, 3.693e-5
-0.624, 3.700e-5
-0.625, 3.704e-5
-0.626, 3.708e-5
-0.627, 3.711e-5
-0.628, 3.714e-5
-0.629, 3.715e-5
-0.630, 3.713e-5
-0.631, 3.718e-5
-0.632, 3.724e-5
-0.633, 3.722e-5
-0.634, 3.727e-5
-0.635, 3.731e-5
-0.636, 3.732e-5
-0.637, 3.738e-5
-0.638, 3.740e-5
-0.639, 3.742e-5
-0.640, 3.738e-5
-0.641, 3.739e-5
-0.642, 3.741e-5
-0.643, 3.747e-5
-0.644, 3.753e-5
-0.645, 3.749e-5
-0.646, 3.748e-5
-0.647, 3.748e-5
-0.648, 3.753e-5
-0.649, 3.759e-5
-0.650, 3.763e-5
-0.651, 3.763e-5
-0.652, 3.765e-5
-0.653, 3.760e-5
-0.654, 3.754e-5
-0.655, 3.757e-5
-0.656, 3.757e-5
-0.657, 3.765e-5
-0.658, 3.772e-5
-0.659, 3.773e-5
-0.660, 3.769e-5
-0.661, 3.769e-5
-0.662, 3.770e-5
-0.663, 3.773e-5
-0.664, 3.768e-5
-0.665, 3.768e-5
-0.666, 3.778e-5
-0.667, 3.777e-5
-0.668, 3.778e-5
-0.669, 3.778e-5
-0.670, 3.784e-5
-0.671, 3.785e-5
-0.672, 3.783e-5
-0.673, 3.786e-5
-0.674, 3.787e-5
-0.675, 3.789e-5
-0.676, 3.784e-5
-0.677, 3.784e-5
-0.678, 3.780e-5
-0.679, 3.780e-5
-0.680, 3.783e-5
-0.681, 3.779e-5
-0.682, 3.781e-5
-0.683, 3.789e-5
-0.684, 3.782e-5
-0.685, 3.782e-5
-0.686, 3.782e-5
-0.687, 3.782e-5
-0.688, 3.781e-5
-0.689, 3.778e-5
-0.690, 3.776e-5
-0.691, 3.776e-5
-0.692, 3.775e-5
-0.693, 3.771e-5
-0.694, 3.774e-5
-0.695, 3.767e-5
-0.696, 3.768e-5
-0.697, 3.768e-5
-0.698, 3.762e-5
-0.699, 3.756e-5
-0.700, 3.751e-5
-0.701, 3.749e-5
-0.702, 3.749e-5
-0.703, 3.746e-5
-0.704, 3.743e-5
-0.705, 3.740e-5
-0.706, 3.736e-5
-0.707, 3.730e-5
-0.708, 3.728e-5
-0.709, 3.726e-5
-0.710, 3.722e-5
-0.711, 3.719e-5
-0.712, 3.716e-5
-0.713, 3.714e-5
-0.714, 3.708e-5
-0.715, 3.705e-5
-0.716, 3.703e-5
-0.717, 3.693e-5
-0.718, 3.691e-5
-0.719, 3.683e-5
-0.720, 3.680e-5
-0.721, 3.677e-5
-0.722, 3.670e-5
-0.723, 3.666e-5
-0.724, 3.664e-5
-0.725, 3.662e-5
-0.726, 3.659e-5
-0.727, 3.651e-5
-0.728, 3.646e-5
-0.729, 3.645e-5
-0.730, 3.639e-5
-0.731, 3.636e-5
-0.732, 3.633e-5
-0.733, 3.630e-5
-0.734, 3.626e-5
-0.735, 3.620e-5
-0.736, 3.612e-5
-0.737, 3.606e-5
-0.738, 3.598e-5
-0.739, 3.591e-5
-0.740, 3.590e-5
-0.741, 3.584e-5
-0.742, 3.578e-5
-0.743, 3.574e-5
-0.744, 3.567e-5
-0.745, 3.563e-5
-0.746, 3.556e-5
-0.747, 3.552e-5
-0.748, 3.542e-5
-0.749, 3.534e-5
-0.750, 3.528e-5
-0.751, 3.521e-5
-0.752, 3.514e-5
-0.753, 3.505e-5
-0.754, 3.502e-5
-0.755, 3.496e-5
-0.756, 3.486e-5
-0.757, 3.480e-5
-0.758, 3.476e-5
-0.759, 3.468e-5
-0.760, 3.460e-5
-0.761, 3.453e-5
-0.762, 3.444e-5
-0.763, 3.438e-5
-0.764, 3.429e-5
-0.765, 3.424e-5
-0.766, 3.418e-5
-0.767, 3.417e-5
-0.768, 3.418e-5
-0.769, 3.415e-5
-0.770, 3.407e-5
-0.771, 3.402e-5
-0.772, 3.390e-5
-0.773, 3.381e-5
-0.774, 3.379e-5
-0.775, 3.374e-5
-0.776, 3.366e-5
-0.777, 3.356e-5
-0.778, 3.349e-5
-0.779, 3.341e-5
-0.780, 3.327e-5
-0.781, 3.321e-5
-0.782, 3.319e-5
-0.783, 3.315e-5
-0.784, 3.314e-5
-0.785, 3.307e-5
-0.786, 3.305e-5
-0.787, 3.305e-5
-0.788, 3.302e-5
-0.789, 3.301e-5
-0.790, 3.295e-5
-0.791, 3.286e-5
-0.792, 3.277e-5
-0.793, 3.268e-5
-0.794, 3.267e-5
-0.795, 3.265e-5
-0.796, 3.263e-5
-0.797, 3.260e-5
-0.798, 3.260e-5
-0.799, 3.256e-5
-0.800, 3.252e-5
-0.801, 3.240e-5
-0.802, 3.237e-5
-0.803, 3.240e-5
-0.804, 3.236e-5
-0.805, 3.232e-5
-0.806, 3.231e-5
-0.807, 3.224e-5
-0.808, 3.224e-5
-0.809, 3.220e-5
-0.810, 3.219e-5
-0.811, 3.214e-5
-0.812, 3.213e-5
-0.813, 3.218e-5
-0.814, 3.213e-5
-0.815, 3.213e-5
-0.816, 3.212e-5
-0.817, 3.214e-5
-0.818, 3.213e-5
-0.819, 3.210e-5
-0.820, 3.202e-5
-0.821, 3.195e-5
-0.822, 3.193e-5
-0.823, 3.190e-5
-0.824, 3.187e-5
-0.825, 3.183e-5
-0.826, 3.183e-5
-0.827, 3.185e-5
-0.828, 3.187e-5
-0.829, 3.189e-5
-0.830, 3.191e-5
-0.831, 3.186e-5
-0.832, 3.186e-5
-0.833, 3.186e-5
-0.834, 3.189e-5
-0.835, 3.190e-5
-0.836, 3.193e-5
-0.837, 3.197e-5
-0.838, 3.198e-5
-0.839, 3.194e-5
-0.840, 3.194e-5
-0.841, 3.193e-5
-0.842, 3.198e-5
-0.843, 3.206e-5
-0.844, 3.211e-5
-0.845, 3.213e-5
-0.846, 3.213e-5
-0.847, 3.218e-5
-0.848, 3.219e-5
-0.849, 3.218e-5
-0.850, 3.222e-5
-0.851, 3.227e-5
-0.852, 3.229e-5
-0.853, 3.232e-5
-0.854, 3.238e-5
-0.855, 3.240e-5
-0.856, 3.244e-5
-0.857, 3.247e-5
-0.858, 3.253e-5
-0.859, 3.256e-5
-0.860, 3.254e-5
-0.861, 3.253e-5
-0.862, 3.255e-5
-0.863, 3.256e-5
-0.864, 3.257e-5
-0.865, 3.258e-5
-0.866, 3.261e-5
-0.867, 3.265e-5
-0.868, 3.268e-5
-0.869, 3.273e-5
-0.870, 3.274e-5
-0.871, 3.276e-5
-0.872, 3.283e-5
-0.873, 3.286e-5
-0.874, 3.285e-5
-0.875, 3.287e-5
-0.876, 3.286e-5
-0.877, 3.291e-5
-0.878, 3.294e-5
-0.879, 3.295e-5
-0.880, 3.295e-5
-0.881, 3.299e-5
-0.882, 3.304e-5
-0.883, 3.301e-5
-0.884, 3.301e-5
-0.885, 3.302e-5
-0.886, 3.307e-5
-0.887, 3.310e-5
-0.888, 3.310e-5
-0.889, 3.312e-5
-0.890, 3.309e-5
-0.891, 3.308e-5
-0.892, 3.314e-5
-0.893, 3.314e-5
-0.894, 3.315e-5
-0.895, 3.314e-5
-0.896, 3.313e-5
-0.897, 3.312e-5
-0.898, 3.318e-5
-0.899, 3.319e-5
-0.900, 3.325e-5
-0.901, 3.327e-5
-0.902, 3.317e-5
-0.903, 3.308e-5
-0.904, 3.312e-5
-0.905, 3.318e-5
-0.906, 3.320e-5
-0.907, 3.322e-5
-0.908, 3.324e-5
-0.909, 3.324e-5
-0.910, 3.328e-5
-0.911, 3.329e-5
-0.912, 3.329e-5
-0.913, 3.326e-5
-0.914, 3.328e-5
-0.915, 3.346e-5
-0.916, 3.341e-5
-0.917, 3.340e-5
-0.918, 3.345e-5
-0.919, 3.334e-5
-0.920, 3.323e-5
-0.921, 3.325e-5
-0.922, 3.328e-5
-0.923, 3.331e-5
-0.924, 3.332e-5
-0.925, 3.330e-5
-0.926, 3.334e-5
-0.927, 3.336e-5
-0.928, 3.338e-5
-0.929, 3.341e-5
-0.930, 3.347e-5
-0.931, 3.353e-5
-0.932, 3.352e-5
-0.933, 3.352e-5
-0.934, 3.350e-5
-0.935, 3.332e-5
-0.936, 3.331e-5
-0.937, 3.333e-5
-0.938, 3.335e-5
-0.939, 3.339e-5
-0.940, 3.345e-5
-0.941, 3.348e-5
-0.942, 3.355e-5
-0.943, 3.359e-5
-0.944, 3.359e-5
-0.945, 3.361e-5
-0.946, 3.364e-5
-0.947, 3.369e-5
-0.948, 3.367e-5
-0.949, 3.367e-5
-0.950, 3.369e-5
-0.951, 3.372e-5
-0.952, 3.376e-5
-0.953, 3.383e-5
-0.954, 3.378e-5
-0.955, 3.383e-5
-0.956, 3.383e-5
-0.957, 3.384e-5
-0.958, 3.385e-5
-0.959, 3.385e-5
-0.960, 3.388e-5
-0.961, 3.388e-5
-0.962, 3.387e-5
-0.963, 3.395e-5
-0.964, 3.399e-5
-0.965, 3.400e-5
-0.966, 3.403e-5
-0.967, 3.408e-5
-0.968, 3.413e-5
-0.969, 3.419e-5
-0.970, 3.428e-5
-0.971, 3.434e-5
-0.972, 3.435e-5
-0.973, 3.443e-5
-0.974, 3.450e-5
-0.975, 3.453e-5
-0.976, 3.460e-5
-0.977, 3.470e-5
-0.978, 3.476e-5
-0.979, 3.480e-5
-0.980, 3.481e-5
-0.981, 3.488e-5
-0.982, 3.497e-5
-0.983, 3.505e-5
-0.984, 3.513e-5
-0.985, 3.520e-5
-0.986, 3.523e-5
-0.987, 3.520e-5
-0.988, 3.533e-5
-0.989, 3.545e-5
-0.990, 3.554e-5
-0.991, 3.569e-5
-0.992, 3.579e-5
-0.993, 3.591e-5
-0.994, 3.595e-5
-0.995, 3.604e-5
-0.996, 3.621e-5
-0.997, 3.626e-5
-0.998, 3.626e-5
-0.999, 3.636e-5
-1.000, 3.650e-5
-1.001, 3.660e-5
-1.002, 3.668e-5
-1.003, 3.679e-5
-1.004, 3.695e-5
-1.005, 3.706e-5
-1.006, 3.712e-5
-1.007, 3.721e-5
-1.008, 3.730e-5
-1.009, 3.735e-5
-1.010, 3.746e-5
-1.011, 3.764e-5
-1.012, 3.776e-5
-1.013, 3.783e-5
-1.014, 3.796e-5
-1.015, 3.806e-5
-1.016, 3.819e-5
-1.017, 3.831e-5
-1.018, 3.853e-5
-1.019, 3.866e-5
-1.020, 3.879e-5
-1.021, 3.881e-5
-1.022, 3.893e-5
-1.023, 3.904e-5
-1.024, 3.919e-5
-1.025, 3.940e-5
-1.026, 3.952e-5
-1.027, 3.978e-5
-1.028, 3.984e-5
-1.029, 3.992e-5
-1.030, 3.998e-5
-1.031, 4.004e-5
-1.032, 4.008e-5
-1.033, 4.026e-5
-1.034, 4.032e-5
-1.035, 4.052e-5
-1.036, 4.065e-5
-1.037, 4.087e-5
-1.038, 4.094e-5
-1.039, 4.108e-5
-1.040, 4.128e-5
-1.041, 4.127e-5
-1.042, 4.141e-5
-1.043, 4.153e-5
-1.044, 4.171e-5
-1.045, 4.175e-5
-1.046, 4.196e-5
-1.047, 4.208e-5
-1.048, 4.199e-5
-1.049, 4.203e-5
-1.050, 4.215e-5
-1.051, 4.193e-5
-1.052, 4.184e-5
-1.053, 4.170e-5
-1.054, 4.173e-5
-1.055, 4.179e-5
-1.056, 4.173e-5
-1.057, 4.171e-5
-1.058, 4.173e-5
-1.059, 4.185e-5
-1.060, 4.202e-5
-1.061, 4.210e-5
-1.062, 4.220e-5
-1.063, 4.222e-5
-1.064, 4.217e-5
-1.065, 4.225e-5
-1.066, 4.223e-5
-1.067, 4.242e-5
-1.068, 4.255e-5
-1.069, 4.257e-5
-1.070, 4.258e-5
-1.071, 4.280e-5
-1.072, 4.298e-5
-1.073, 4.302e-5
-1.074, 4.303e-5
-1.075, 4.316e-5
-1.076, 4.318e-5
-1.077, 4.319e-5
-1.078, 4.322e-5
-1.079, 4.319e-5
-1.080, 4.335e-5
-1.081, 4.352e-5
-1.082, 4.361e-5
-1.083, 4.370e-5
-1.084, 4.378e-5
-1.085, 4.382e-5
-1.086, 4.380e-5
-1.087, 4.396e-5
-1.088, 4.413e-5
-1.089, 4.421e-5
-1.090, 4.425e-5
-1.091, 4.442e-5
-1.092, 4.471e-5
-1.093, 4.476e-5
-1.094, 4.495e-5
-1.095, 4.592e-5
-1.096, 4.701e-5
-1.097, 4.695e-5
-1.098, 4.697e-5
-1.099, 4.706e-5
-1.100, 4.717e-5
-1.101, 4.731e-5
-1.102, 4.753e-5
-1.103, 4.773e-5
-1.104, 4.795e-5
-1.105, 4.803e-5
-1.106, 4.829e-5
-1.107, 4.849e-5
-1.108, 4.871e-5
-1.109, 4.881e-5
-1.110, 4.898e-5
-1.111, 4.900e-5
-1.112, 4.903e-5
-1.113, 4.897e-5
-1.114, 4.926e-5
-1.115, 4.944e-5
-1.116, 4.958e-5
-1.117, 4.983e-5
-1.118, 5.004e-5
-1.119, 5.032e-5
-1.120, 5.050e-5
-1.121, 5.061e-5
-1.122, 5.086e-5
-1.123, 5.114e-5
-1.124, 5.132e-5
-1.125, 5.141e-5
-1.126, 5.152e-5
-1.127, 5.175e-5
-1.128, 5.190e-5
-1.129, 5.227e-5
-1.130, 5.349e-5
-1.131, 5.395e-5
-1.132, 5.418e-5
-1.133, 5.439e-5
-1.134, 5.449e-5
-1.135, 5.475e-5
-1.136, 5.500e-5
-1.137, 5.513e-5
-1.138, 5.524e-5
-1.139, 5.567e-5
-1.140, 5.593e-5
-1.141, 5.600e-5
-1.142, 5.619e-5
-1.143, 5.646e-5
-1.144, 5.585e-5
-1.145, 5.565e-5
-1.146, 5.610e-5
-1.147, 5.646e-5
-1.148, 5.699e-5
-1.149, 5.737e-5
-1.150, 5.748e-5
-1.151, 5.761e-5
-1.152, 5.790e-5
-1.153, 5.816e-5
-1.154, 5.856e-5
-1.155, 5.887e-5
-1.156, 5.911e-5
-1.157, 5.944e-5
-1.158, 5.959e-5
-1.159, 5.976e-5
-1.160, 5.964e-5
-1.161, 5.992e-5
-1.162, 6.029e-5
-1.163, 6.066e-5
-1.164, 6.090e-5
-1.165, 6.108e-5
-1.166, 6.138e-5
-1.167, 6.180e-5
-1.168, 6.222e-5
-1.169, 6.260e-5
-1.170, 6.303e-5
-1.171, 6.329e-5
-1.172, 6.361e-5
-1.173, 6.399e-5
-1.174, 6.421e-5
-1.175, 6.442e-5
-1.176, 6.461e-5
-1.177, 6.500e-5
-1.178, 6.525e-5
-1.179, 6.554e-5
-1.180, 6.576e-5
-1.181, 6.579e-5
-1.182, 6.606e-5
-1.183, 6.632e-5
-1.184, 6.667e-5
-1.185, 6.688e-5
-1.186, 6.725e-5
-1.187, 6.752e-5
-1.188, 6.786e-5
-1.189, 6.809e-5
-1.190, 6.831e-5
-1.191, 6.868e-5
-1.192, 6.909e-5
-1.193, 6.932e-5
-1.194, 6.968e-5
-1.195, 7.018e-5
-1.196, 7.044e-5
-1.197, 7.059e-5
-1.198, 7.086e-5
-1.199, 7.098e-5
-1.200, 7.128e-5
-1.201, 7.154e-5
-1.202, 7.185e-5
-1.203, 7.209e-5
-1.204, 7.233e-5
-1.205, 7.260e-5
-1.206, 7.291e-5
-1.207, 7.318e-5
-1.208, 7.326e-5
-1.209, 7.353e-5
-1.210, 7.368e-5
-1.211, 7.403e-5
-1.212, 7.425e-5
-1.213, 7.443e-5
-1.214, 7.462e-5
-1.215, 7.485e-5
-1.216, 7.511e-5
-1.217, 7.509e-5
-1.218, 7.514e-5
-1.219, 7.539e-5
-1.220, 7.564e-5
-1.221, 7.581e-5
-1.222, 7.593e-5
-1.223, 7.614e-5
-1.224, 7.624e-5
-1.225, 7.633e-5
-1.226, 7.656e-5
-1.227, 7.659e-5
-1.228, 7.674e-5
-1.229, 7.662e-5
-1.230, 7.685e-5
-1.231, 7.709e-5
-1.232, 7.712e-5
-1.233, 7.735e-5
-1.234, 7.768e-5
-1.235, 7.781e-5
-1.236, 7.787e-5
-1.237, 7.820e-5
-1.238, 7.845e-5
-1.239, 7.829e-5
-1.240, 7.842e-5
-1.241, 7.877e-5
-1.242, 7.888e-5
-1.243, 7.885e-5
-1.244, 7.865e-5
-1.245, 7.826e-5
-1.246, 7.830e-5
-1.247, 7.838e-5
-1.248, 7.826e-5
-1.249, 7.815e-5
-1.250, 7.809e-5
-1.251, 7.828e-5
-1.252, 7.812e-5
-1.253, 7.801e-5
-1.254, 7.793e-5
-1.255, 7.802e-5
-1.256, 7.788e-5
-1.257, 7.785e-5
-1.258, 7.771e-5
-1.259, 7.762e-5
-1.260, 7.754e-5
-1.261, 7.736e-5
-1.262, 7.727e-5
-1.263, 7.719e-5
-1.264, 7.721e-5
-1.265, 7.703e-5
-1.266, 7.692e-5
-1.267, 7.680e-5
-1.268, 7.671e-5
-1.269, 7.661e-5
-1.270, 7.661e-5
-1.271, 7.639e-5
-1.272, 7.623e-5
-1.273, 7.619e-5
-1.274, 7.619e-5
-1.275, 7.612e-5
-1.276, 7.595e-5
-1.277, 7.582e-5
-1.278, 7.588e-5
-1.279, 7.581e-5
-1.280, 7.584e-5
-1.281, 7.565e-5
-1.282, 7.559e-5
-1.283, 7.553e-5
-1.284, 7.545e-5
-1.285, 7.544e-5
-1.286, 7.532e-5
-1.287, 7.525e-5
-1.288, 7.520e-5
-1.289, 7.495e-5
-1.290, 7.489e-5
-1.291, 7.485e-5
-1.292, 7.471e-5
-1.293, 7.460e-5
-1.294, 7.448e-5
-1.295, 7.439e-5
-1.296, 7.435e-5
-1.297, 7.422e-5
-1.298, 7.420e-5
-1.299, 7.417e-5
-1.300, 7.411e-5
-1.301, 7.392e-5
-1.302, 7.383e-5
-1.303, 7.374e-5
-1.304, 7.369e-5
-1.305, 7.407e-5
-1.306, 7.416e-5
-1.307, 7.397e-5
-1.308, 7.370e-5
-1.309, 7.391e-5
-1.310, 7.457e-5
-1.311, 7.441e-5
-1.312, 7.423e-5
-1.313, 7.378e-5
-1.314, 7.377e-5
-1.315, 7.410e-5
-1.316, 7.424e-5
-1.317, 7.413e-5
-1.318, 7.414e-5
-1.319, 7.418e-5
-1.320, 7.413e-5
-1.321, 7.412e-5
-1.322, 7.427e-5
-1.323, 7.451e-5
-1.324, 7.447e-5
-1.325, 7.450e-5
-1.326, 7.458e-5
-1.327, 7.465e-5
-1.328, 7.467e-5
-1.329, 7.468e-5
-1.330, 7.477e-5
-1.331, 7.478e-5
-1.332, 7.485e-5
-1.333, 7.491e-5
-1.334, 7.502e-5
-1.335, 7.506e-5
-1.336, 7.514e-5
-1.337, 7.525e-5
-1.338, 7.537e-5
-1.339, 7.559e-5
-1.340, 7.570e-5
-1.341, 7.583e-5
-1.342, 7.592e-5
-1.343, 7.606e-5
-1.344, 7.716e-5
-1.345, 7.791e-5
-1.346, 7.738e-5
-1.347, 7.661e-5
-1.348, 7.681e-5
-1.349, 7.690e-5
-1.350, 7.699e-5
-1.351, 7.709e-5
-1.352, 7.716e-5
-1.353, 7.709e-5
-1.354, 7.724e-5
-1.355, 7.703e-5
-1.356, 7.735e-5
-1.357, 7.746e-5
-1.358, 7.768e-5
-1.359, 7.810e-5
-1.360, 7.856e-5
-1.361, 7.828e-5
-1.362, 7.797e-5
-1.363, 7.826e-5
-1.364, 7.830e-5
-1.365, 7.840e-5
-1.366, 7.851e-5
-1.367, 7.850e-5
-1.368, 7.875e-5
-1.369, 7.889e-5
-1.370, 7.890e-5
-1.371, 7.898e-5
-1.372, 7.918e-5
-1.373, 7.927e-5
-1.374, 7.949e-5
-1.375, 7.961e-5
-1.376, 7.976e-5
-1.377, 8.013e-5
-1.378, 8.063e-5
-1.379, 8.078e-5
-1.380, 8.067e-5
-1.381, 8.098e-5
-1.382, 8.137e-5
-1.383, 8.142e-5
-1.384, 8.142e-5
-1.385, 8.151e-5
-1.386, 8.148e-5
-1.387, 8.163e-5
-1.388, 8.191e-5
-1.389, 8.228e-5
-1.390, 8.248e-5
-1.391, 8.272e-5
-1.392, 8.275e-5
-1.393, 8.277e-5
-1.394, 8.299e-5
-1.395, 8.324e-5
-1.396, 8.335e-5
-1.397, 8.333e-5
-1.398, 8.336e-5
-1.399, 8.349e-5
-1.400, 8.369e-5
-1.401, 8.393e-5
-1.402, 8.416e-5
-1.403, 8.448e-5
-1.404, 8.465e-5
-1.405, 8.475e-5
-1.406, 8.478e-5
-1.407, 8.486e-5
-1.408, 8.535e-5
-1.409, 8.583e-5
-1.410, 8.587e-5
-1.411, 8.588e-5
-1.412, 8.624e-5
-1.413, 8.646e-5
-1.414, 8.660e-5
-1.415, 8.668e-5
-1.416, 8.684e-5
-1.417, 8.689e-5
-1.418, 8.712e-5
-1.419, 8.717e-5
-1.420, 8.729e-5
-1.421, 8.788e-5
-1.422, 8.829e-5
-1.423, 8.835e-5
-1.424, 8.843e-5
-1.425, 8.867e-5
-1.426, 8.896e-5
-1.427, 8.944e-5
-1.428, 8.990e-5
-1.429, 9.009e-5
-1.430, 9.045e-5
-1.431, 9.062e-5
-1.432, 9.097e-5
-1.433, 9.132e-5
-1.434, 9.146e-5
-1.435, 9.144e-5
-1.436, 9.167e-5
-1.437, 9.202e-5
-1.438, 9.228e-5
-1.439, 9.257e-5
-1.440, 9.294e-5
-1.441, 9.331e-5
-1.442, 9.375e-5
-1.443, 9.415e-5
-1.444, 9.438e-5
-1.445, 9.464e-5
-1.446, 9.499e-5
-1.447, 9.558e-5
-1.448, 9.617e-5
-1.449, 9.661e-5
-1.450, 9.701e-5
-1.451, 9.744e-5
-1.452, 9.781e-5
-1.453, 9.821e-5
-1.454, 9.878e-5
-1.455, 9.926e-5
-1.456, 9.965e-5
-1.457, 1.001e-4
-1.458, 1.005e-4
-1.459, 1.008e-4
-1.460, 1.012e-4
-1.461, 1.016e-4
-1.462, 1.023e-4
-1.463, 1.029e-4
-1.464, 1.035e-4
-1.465, 1.041e-4
-1.466, 1.046e-4
-1.467, 1.052e-4
-1.468, 1.058e-4
-1.469, 1.065e-4
-1.470, 1.072e-4
-1.471, 1.077e-4
-1.472, 1.081e-4
-1.473, 1.087e-4
-1.474, 1.093e-4
-1.475, 1.099e-4
-1.476, 1.105e-4
-1.477, 1.112e-4
-1.478, 1.119e-4
-1.479, 1.125e-4
-1.480, 1.130e-4
-1.481, 1.137e-4
-1.482, 1.145e-4
-1.483, 1.150e-4
-1.484, 1.157e-4
-1.485, 1.165e-4
-1.486, 1.172e-4
-1.487, 1.179e-4
-1.488, 1.186e-4
-1.489, 1.193e-4
-1.490, 1.202e-4
-1.491, 1.212e-4
-1.492, 1.221e-4
-1.493, 1.231e-4
-1.494, 1.240e-4
-1.495, 1.249e-4
-1.496, 1.257e-4
-1.497, 1.266e-4
-1.498, 1.278e-4
-1.499, 1.287e-4
-1.500, 1.296e-4
-1.501, 1.304e-4
-1.502, 1.313e-4
-1.503, 1.322e-4
-1.504, 1.333e-4
-1.505, 1.344e-4
-1.506, 1.353e-4
-1.507, 1.362e-4
-1.508, 1.372e-4
-1.509, 1.382e-4
-1.510, 1.393e-4
-1.511, 1.404e-4
-1.512, 1.413e-4
-1.513, 1.421e-4
-1.514, 1.433e-4
-1.515, 1.443e-4
-1.516, 1.454e-4
-1.517, 1.464e-4
-1.518, 1.475e-4
-1.519, 1.485e-4
-1.520, 1.496e-4
-1.521, 1.508e-4
-1.522, 1.519e-4
-1.523, 1.532e-4
-1.524, 1.542e-4
-1.525, 1.553e-4
-1.526, 1.566e-4
-1.527, 1.578e-4
-1.528, 1.589e-4
-1.529, 1.601e-4
-1.530, 1.614e-4
-1.531, 1.628e-4
-1.532, 1.641e-4
-1.533, 1.654e-4
-1.534, 1.667e-4
-1.535, 1.680e-4
-1.536, 1.693e-4
-1.537, 1.707e-4
-1.538, 1.720e-4
-1.539, 1.732e-4
-1.540, 1.744e-4
-1.541, 1.758e-4
-1.542, 1.771e-4
-1.543, 1.783e-4
-1.544, 1.796e-4
-1.545, 1.810e-4
-1.546, 1.823e-4
-1.547, 1.837e-4
-1.548, 1.850e-4
-1.549, 1.863e-4
-1.550, 1.877e-4
-1.551, 1.889e-4
-1.552, 1.901e-4
-1.553, 1.915e-4
-1.554, 1.929e-4
-1.555, 1.942e-4
-1.556, 1.955e-4
-1.557, 1.968e-4
-1.558, 1.984e-4
-1.559, 1.997e-4
-1.560, 2.009e-4
-1.561, 2.020e-4
-1.562, 2.033e-4
-1.563, 2.046e-4
-1.564, 2.060e-4
-1.565, 2.073e-4
-1.566, 2.089e-4
-1.567, 2.104e-4
-1.568, 2.119e-4
-1.569, 2.135e-4
-1.570, 2.148e-4
-1.571, 2.159e-4
-1.572, 2.173e-4
-1.573, 2.188e-4
-1.574, 2.203e-4
-1.575, 2.214e-4
-1.576, 2.229e-4
-1.577, 2.242e-4
-1.578, 2.257e-4
-1.579, 2.270e-4
-1.580, 2.283e-4
-1.581, 2.299e-4
-1.582, 2.315e-4
-1.583, 2.330e-4
-1.584, 2.345e-4
-1.585, 2.360e-4
-1.586, 2.375e-4
-1.587, 2.390e-4
-1.588, 2.406e-4
-1.589, 2.424e-4
-1.590, 2.441e-4
-1.591, 2.457e-4
-1.592, 2.472e-4
-1.593, 2.488e-4
-1.594, 2.504e-4
-1.595, 2.521e-4
-1.596, 2.540e-4
-1.597, 2.558e-4
-1.598, 2.574e-4
-1.599, 2.591e-4
-1.600, 2.609e-4
-1.601, 2.625e-4
-1.602, 2.641e-4
-1.603, 2.658e-4
-1.604, 2.676e-4
-1.605, 2.694e-4
-1.606, 2.711e-4
-1.607, 2.729e-4
-1.608, 2.747e-4
-1.609, 2.765e-4
-1.610, 2.782e-4
-1.611, 2.798e-4
-1.612, 2.815e-4
-1.613, 2.831e-4
-1.614, 2.848e-4
-1.615, 2.867e-4
-1.616, 2.885e-4
-1.617, 2.903e-4
-1.618, 2.920e-4
-1.619, 2.938e-4
-1.620, 2.958e-4
-1.621, 2.978e-4
-1.622, 2.998e-4
-1.623, 3.019e-4
-1.624, 3.042e-4
-1.625, 3.064e-4
-1.626, 3.083e-4
-1.627, 3.105e-4
-1.628, 3.128e-4
-1.629, 3.147e-4
-1.630, 3.167e-4
-1.631, 3.190e-4
-1.632, 3.212e-4
-1.633, 3.231e-4
-1.634, 3.251e-4
-1.635, 3.275e-4
-1.636, 3.299e-4
-1.637, 3.323e-4
-1.638, 3.347e-4
-1.639, 3.370e-4
-1.640, 3.394e-4
-1.641, 3.417e-4
-1.642, 3.441e-4
-1.643, 3.464e-4
-1.644, 3.488e-4
-1.645, 3.511e-4
-1.646, 3.534e-4
-1.647, 3.559e-4
-1.648, 3.583e-4
-1.649, 3.606e-4
-1.650, 3.630e-4
-1.651, 3.656e-4
-1.652, 3.682e-4
-1.653, 3.707e-4
-1.654, 3.733e-4
-1.655, 3.759e-4
-1.656, 3.787e-4
-1.657, 3.814e-4
-1.658, 3.840e-4
-1.659, 3.867e-4
-1.660, 3.895e-4
-1.661, 3.922e-4
-1.662, 3.952e-4
-1.663, 3.981e-4
-1.664, 4.009e-4
-1.665, 4.038e-4
-1.666, 4.069e-4
-1.667, 4.099e-4
-1.668, 4.129e-4
-1.669, 4.159e-4
-1.670, 4.189e-4
-1.671, 4.219e-4
-1.672, 4.248e-4
-1.673, 4.277e-4
-1.674, 4.308e-4
-1.675, 4.340e-4
-1.676, 4.371e-4
-1.677, 4.401e-4
-1.678, 4.431e-4
-1.679, 4.462e-4
-1.680, 4.495e-4
-1.681, 4.527e-4
-1.682, 4.558e-4
-1.683, 4.590e-4
-1.684, 4.624e-4
-1.685, 4.655e-4
-1.686, 4.685e-4
-1.687, 4.718e-4
-1.688, 4.751e-4
-1.689, 4.786e-4
-1.690, 4.820e-4
-1.691, 4.853e-4
-1.692, 4.888e-4
-1.693, 4.924e-4
-1.694, 4.959e-4
-1.695, 4.995e-4
-1.696, 5.030e-4
-1.697, 5.067e-4
-1.698, 5.105e-4
-1.699, 5.143e-4
-1.700, 5.178e-4
-1.701, 5.214e-4
-1.702, 5.250e-4
-1.703, 5.288e-4
-1.704, 5.327e-4
-1.705, 5.366e-4
-1.706, 5.404e-4
-1.707, 5.441e-4
-1.708, 5.481e-4
-1.709, 5.522e-4
-1.710, 5.562e-4
-1.711, 5.602e-4
-1.712, 5.642e-4
-1.713, 5.682e-4
-1.714, 5.723e-4
-1.715, 5.764e-4
-1.716, 5.804e-4
-1.717, 5.845e-4
-1.718, 5.887e-4
-1.719, 5.928e-4
-1.720, 5.969e-4
-1.721, 6.012e-4
-1.722, 6.057e-4
-1.723, 6.098e-4
-1.724, 6.140e-4
-1.725, 6.185e-4
-1.726, 6.230e-4
-1.727, 6.274e-4
-1.728, 6.320e-4
-1.729, 6.364e-4
-1.730, 6.408e-4
-1.731, 6.454e-4
-1.732, 6.500e-4
-1.733, 6.547e-4
-1.734, 6.592e-4
-1.735, 6.639e-4
-1.736, 6.687e-4
-1.737, 6.734e-4
-1.738, 6.781e-4
-1.739, 6.830e-4
-1.740, 6.877e-4
-1.741, 6.924e-4
-1.742, 6.973e-4
-1.743, 7.022e-4
-1.744, 7.072e-4
-1.745, 7.120e-4
-1.746, 7.169e-4
-1.747, 7.220e-4
-1.748, 7.272e-4
-1.749, 7.323e-4
-1.750, 7.373e-4
-1.751, 7.425e-4
-1.752, 7.476e-4
-1.753, 7.527e-4
-1.754, 7.576e-4
-1.755, 7.629e-4
-1.756, 7.683e-4
-1.757, 7.735e-4
-1.758, 7.786e-4
-1.759, 7.839e-4
-1.760, 7.894e-4
-1.761, 7.948e-4
-1.762, 8.002e-4
-1.763, 8.056e-4
-1.764, 8.112e-4
-1.765, 8.169e-4
-1.766, 8.223e-4
-1.767, 8.281e-4
-1.768, 8.339e-4
-1.769, 8.396e-4
-1.770, 8.453e-4
-1.771, 8.509e-4
-1.772, 8.568e-4
-1.773, 8.626e-4
-1.774, 8.683e-4
-1.775, 8.742e-4
-1.776, 8.801e-4
-1.777, 8.863e-4
-1.778, 8.921e-4
-1.779, 8.980e-4
-1.780, 9.040e-4
-1.781, 9.101e-4
-1.782, 9.163e-4
-1.783, 9.224e-4
-1.784, 9.285e-4
-1.785, 9.347e-4
-1.786, 9.409e-4
-1.787, 9.472e-4
-1.788, 9.537e-4
-1.789, 9.599e-4
-1.790, 9.662e-4
-1.791, 9.726e-4
-1.792, 9.791e-4
-1.793, 9.856e-4
-1.794, 9.917e-4
-1.795, 9.982e-4
-1.796, 1.005e-3
-1.797, 1.010e-3
-1.798, 1.011e-3
-1.799, 1.011e-3
-1.800, 1.011e-3
-1.801, 1.011e-3
-1.802, 1.011e-3
-1.803, 1.011e-3
-1.804, 1.011e-3
-1.805, 1.011e-3
-1.806, 1.011e-3
-1.807, 1.011e-3
-1.808, 1.011e-3
-1.809, 1.011e-3
-1.810, 1.011e-3
-1.811, 1.011e-3
-1.812, 1.011e-3
-1.813, 1.011e-3
-1.814, 1.011e-3
-1.815, 1.011e-3
-1.816, 1.011e-3
-1.817, 1.011e-3
-1.818, 1.011e-3
-1.819, 1.011e-3
-1.820, 1.011e-3
-1.821, 1.011e-3
-1.822, 1.011e-3
-1.823, 1.011e-3
-1.824, 1.011e-3
-1.825, 1.011e-3
-1.826, 1.011e-3
-1.827, 1.011e-3
-1.828, 1.011e-3
-1.829, 1.011e-3
-1.830, 1.011e-3
-1.831, 1.011e-3
-1.832, 1.011e-3
-1.833, 1.011e-3
-1.834, 1.011e-3
-1.835, 1.011e-3
-1.836, 1.011e-3
-1.837, 1.011e-3
-1.838, 1.011e-3
-1.839, 1.011e-3
-1.840, 1.011e-3
-1.841, 1.011e-3
-1.842, 1.011e-3
-1.843, 1.011e-3
-1.844, 1.011e-3
-1.845, 1.011e-3
-1.846, 1.011e-3
-1.847, 1.011e-3
-1.848, 1.011e-3
-1.849, 1.011e-3
-1.850, 1.011e-3
-1.851, 1.011e-3
-1.852, 1.011e-3
-1.853, 1.011e-3
-1.854, 1.011e-3
-1.855, 1.011e-3
-1.856, 1.011e-3
-1.857, 1.011e-3
-1.858, 1.011e-3
-1.859, 1.011e-3
-1.860, 1.011e-3
-1.861, 1.011e-3
-1.862, 1.011e-3
-1.863, 1.011e-3
-1.864, 1.011e-3
-1.865, 1.011e-3
-1.866, 1.011e-3
-1.867, 1.011e-3
-1.868, 1.011e-3
-1.869, 1.011e-3
-1.870, 1.011e-3
-1.871, 1.011e-3
-1.872, 1.011e-3
-1.873, 1.011e-3
-1.874, 1.011e-3
-1.875, 1.011e-3
-1.876, 1.011e-3
-1.877, 1.011e-3
-1.878, 1.011e-3
-1.879, 1.011e-3
-1.880, 1.011e-3
-1.881, 1.011e-3
-1.882, 1.011e-3
-1.883, 1.011e-3
-1.884, 1.011e-3
-1.885, 1.011e-3
-1.886, 1.011e-3
-1.887, 1.011e-3
-1.888, 1.011e-3
-1.889, 1.011e-3
-1.890, 1.011e-3
-1.891, 1.011e-3
-1.892, 1.011e-3
-1.893, 1.011e-3
-1.894, 1.011e-3
-1.895, 1.011e-3
-1.896, 1.011e-3
-1.897, 1.011e-3
-1.898, 1.011e-3
-1.899, 1.011e-3
