Apr. 26, 2025   02:36:42
Cyclic Voltammetry
File: c:/users/guazh/data/banditlqround7_x0exp590_r20/2025-04-16-exp1191\exp1191-2025-04-26t02_26_25-arkoh\exp1191_cv_sr_300mvs_efin_-1500mv.bin
Data Source:  Experiment
Instrument Model:  CHI760E
Header: CV ran at 300 mVs
Note: 

Init E (V) = -1
High E (V) = -1
Low E (V) = -1.5
Final E (V) = -1
Init P/N = N
Scan Rate (V/s) = 0.3
Segment = 3
Sample Interval (V) = 0.001
Quiet Time (sec) = 2
Sensitivity (A/V) = 0.01
Comp R (ohm) = 3.0

Results:

Channel 1:
Segment 1:
Ep = -1.191V
ip = 2.446e-5A
Ah = 3.423e-6C

Segment 2:

Segment 3:

Potential/V, Current/A

-1.000, 3.099e-5
-1.001, 8.032e-5
-1.002, 9.573e-5
-1.003, 9.573e-5
-1.004, 1.019e-4
-1.005, 1.111e-4
-1.006, 1.204e-4
-1.007, 1.204e-4
-1.008, 1.173e-4
-1.009, 1.173e-4
-1.010, 1.266e-4
-1.011, 1.327e-4
-1.012, 1.327e-4
-1.013, 1.266e-4
-1.014, 1.266e-4
-1.015, 1.327e-4
-1.016, 1.389e-4
-1.017, 1.389e-4
-1.018, 1.327e-4
-1.019, 1.358e-4
-1.020, 1.420e-4
-1.021, 1.451e-4
-1.022, 1.451e-4
-1.023, 1.420e-4
-1.024, 1.420e-4
-1.025, 1.481e-4
-1.026, 1.543e-4
-1.027, 1.512e-4
-1.028, 1.481e-4
-1.029, 1.451e-4
-1.030, 1.512e-4
-1.031, 1.605e-4
-1.032, 1.574e-4
-1.033, 1.512e-4
-1.034, 1.512e-4
-1.035, 1.574e-4
-1.036, 1.636e-4
-1.037, 1.605e-4
-1.038, 1.574e-4
-1.039, 1.574e-4
-1.040, 1.636e-4
-1.041, 1.697e-4
-1.042, 1.666e-4
-1.043, 1.605e-4
-1.044, 1.605e-4
-1.045, 1.666e-4
-1.046, 1.728e-4
-1.047, 1.728e-4
-1.048, 1.666e-4
-1.049, 1.666e-4
-1.050, 1.728e-4
-1.051, 1.790e-4
-1.052, 1.759e-4
-1.053, 1.728e-4
-1.054, 1.697e-4
-1.055, 1.790e-4
-1.056, 1.821e-4
-1.057, 1.821e-4
-1.058, 1.759e-4
-1.059, 1.728e-4
-1.060, 1.821e-4
-1.061, 1.851e-4
-1.062, 1.851e-4
-1.063, 1.790e-4
-1.064, 1.790e-4
-1.065, 1.851e-4
-1.066, 1.913e-4
-1.067, 1.882e-4
-1.068, 1.821e-4
-1.069, 1.821e-4
-1.070, 1.882e-4
-1.071, 1.944e-4
-1.072, 1.913e-4
-1.073, 1.882e-4
-1.074, 1.882e-4
-1.075, 1.913e-4
-1.076, 1.975e-4
-1.077, 1.975e-4
-1.078, 1.882e-4
-1.079, 1.882e-4
-1.080, 1.944e-4
-1.081, 2.006e-4
-1.082, 1.975e-4
-1.083, 1.944e-4
-1.084, 1.913e-4
-1.085, 1.975e-4
-1.086, 2.036e-4
-1.087, 2.036e-4
-1.088, 1.975e-4
-1.089, 1.975e-4
-1.090, 2.036e-4
-1.091, 2.067e-4
-1.092, 2.067e-4
-1.093, 2.006e-4
-1.094, 2.006e-4
-1.095, 2.067e-4
-1.096, 2.098e-4
-1.097, 2.098e-4
-1.098, 2.036e-4
-1.099, 2.036e-4
-1.100, 2.098e-4
-1.101, 2.160e-4
-1.102, 2.129e-4
-1.103, 2.067e-4
-1.104, 2.067e-4
-1.105, 2.129e-4
-1.106, 2.191e-4
-1.107, 2.160e-4
-1.108, 2.129e-4
-1.109, 2.098e-4
-1.110, 2.160e-4
-1.111, 2.221e-4
-1.112, 2.191e-4
-1.113, 2.160e-4
-1.114, 2.129e-4
-1.115, 2.191e-4
-1.116, 2.252e-4
-1.117, 2.252e-4
-1.118, 2.191e-4
-1.119, 2.191e-4
-1.120, 2.221e-4
-1.121, 2.314e-4
-1.122, 2.283e-4
-1.123, 2.221e-4
-1.124, 2.221e-4
-1.125, 2.283e-4
-1.126, 2.345e-4
-1.127, 2.345e-4
-1.128, 2.283e-4
-1.129, 2.283e-4
-1.130, 2.345e-4
-1.131, 2.376e-4
-1.132, 2.376e-4
-1.133, 2.314e-4
-1.134, 2.314e-4
-1.135, 2.376e-4
-1.136, 2.437e-4
-1.137, 2.437e-4
-1.138, 2.376e-4
-1.139, 2.376e-4
-1.140, 2.437e-4
-1.141, 2.499e-4
-1.142, 2.468e-4
-1.143, 2.437e-4
-1.144, 2.406e-4
-1.145, 2.499e-4
-1.146, 2.530e-4
-1.147, 2.530e-4
-1.148, 2.468e-4
-1.149, 2.468e-4
-1.150, 2.530e-4
-1.151, 2.591e-4
-1.152, 2.591e-4
-1.153, 2.530e-4
-1.154, 2.530e-4
-1.155, 2.591e-4
-1.156, 2.653e-4
-1.157, 2.622e-4
-1.158, 2.591e-4
-1.159, 2.591e-4
-1.160, 2.622e-4
-1.161, 2.684e-4
-1.162, 2.684e-4
-1.163, 2.622e-4
-1.164, 2.622e-4
-1.165, 2.653e-4
-1.166, 2.746e-4
-1.167, 2.746e-4
-1.168, 2.684e-4
-1.169, 2.653e-4
-1.170, 2.715e-4
-1.171, 2.776e-4
-1.172, 2.776e-4
-1.173, 2.715e-4
-1.174, 2.715e-4
-1.175, 2.776e-4
-1.176, 2.838e-4
-1.177, 2.807e-4
-1.178, 2.746e-4
-1.179, 2.746e-4
-1.180, 2.807e-4
-1.181, 2.869e-4
-1.182, 2.869e-4
-1.183, 2.807e-4
-1.184, 2.776e-4
-1.185, 2.838e-4
-1.186, 2.900e-4
-1.187, 2.869e-4
-1.188, 2.838e-4
-1.189, 2.807e-4
-1.190, 2.869e-4
-1.191, 2.931e-4
-1.192, 2.900e-4
-1.193, 2.838e-4
-1.194, 2.838e-4
-1.195, 2.869e-4
-1.196, 2.931e-4
-1.197, 2.900e-4
-1.198, 2.838e-4
-1.199, 2.838e-4
-1.200, 2.869e-4
-1.201, 2.931e-4
-1.202, 2.931e-4
-1.203, 2.838e-4
-1.204, 2.807e-4
-1.205, 2.869e-4
-1.206, 2.931e-4
-1.207, 2.900e-4
-1.208, 2.807e-4
-1.209, 2.807e-4
-1.210, 2.838e-4
-1.211, 2.900e-4
-1.212, 2.869e-4
-1.213, 2.807e-4
-1.214, 2.776e-4
-1.215, 2.807e-4
-1.216, 2.869e-4
-1.217, 2.838e-4
-1.218, 2.746e-4
-1.219, 2.715e-4
-1.220, 2.776e-4
-1.221, 2.838e-4
-1.222, 2.807e-4
-1.223, 2.715e-4
-1.224, 2.684e-4
-1.225, 2.746e-4
-1.226, 2.776e-4
-1.227, 2.746e-4
-1.228, 2.684e-4
-1.229, 2.653e-4
-1.230, 2.715e-4
-1.231, 2.746e-4
-1.232, 2.715e-4
-1.233, 2.653e-4
-1.234, 2.622e-4
-1.235, 2.653e-4
-1.236, 2.715e-4
-1.237, 2.684e-4
-1.238, 2.622e-4
-1.239, 2.591e-4
-1.240, 2.622e-4
-1.241, 2.684e-4
-1.242, 2.653e-4
-1.243, 2.561e-4
-1.244, 2.561e-4
-1.245, 2.591e-4
-1.246, 2.653e-4
-1.247, 2.622e-4
-1.248, 2.561e-4
-1.249, 2.530e-4
-1.250, 2.561e-4
-1.251, 2.622e-4
-1.252, 2.591e-4
-1.253, 2.530e-4
-1.254, 2.499e-4
-1.255, 2.561e-4
-1.256, 2.591e-4
-1.257, 2.591e-4
-1.258, 2.499e-4
-1.259, 2.499e-4
-1.260, 2.530e-4
-1.261, 2.561e-4
-1.262, 2.561e-4
-1.263, 2.499e-4
-1.264, 2.468e-4
-1.265, 2.530e-4
-1.266, 2.561e-4
-1.267, 2.530e-4
-1.268, 2.468e-4
-1.269, 2.468e-4
-1.270, 2.499e-4
-1.271, 2.561e-4
-1.272, 2.530e-4
-1.273, 2.468e-4
-1.274, 2.437e-4
-1.275, 2.499e-4
-1.276, 2.561e-4
-1.277, 2.530e-4
-1.278, 2.468e-4
-1.279, 2.437e-4
-1.280, 2.499e-4
-1.281, 2.530e-4
-1.282, 2.530e-4
-1.283, 2.437e-4
-1.284, 2.437e-4
-1.285, 2.468e-4
-1.286, 2.530e-4
-1.287, 2.499e-4
-1.288, 2.437e-4
-1.289, 2.437e-4
-1.290, 2.468e-4
-1.291, 2.530e-4
-1.292, 2.499e-4
-1.293, 2.437e-4
-1.294, 2.437e-4
-1.295, 2.468e-4
-1.296, 2.530e-4
-1.297, 2.499e-4
-1.298, 2.437e-4
-1.299, 2.437e-4
-1.300, 2.499e-4
-1.301, 2.530e-4
-1.302, 2.530e-4
-1.303, 2.468e-4
-1.304, 2.437e-4
-1.305, 2.499e-4
-1.306, 2.530e-4
-1.307, 2.499e-4
-1.308, 2.468e-4
-1.309, 2.437e-4
-1.310, 2.499e-4
-1.311, 2.561e-4
-1.312, 2.530e-4
-1.313, 2.468e-4
-1.314, 2.437e-4
-1.315, 2.499e-4
-1.316, 2.561e-4
-1.317, 2.561e-4
-1.318, 2.499e-4
-1.319, 2.468e-4
-1.320, 2.530e-4
-1.321, 2.591e-4
-1.322, 2.561e-4
-1.323, 2.499e-4
-1.324, 2.499e-4
-1.325, 2.561e-4
-1.326, 2.622e-4
-1.327, 2.591e-4
-1.328, 2.561e-4
-1.329, 2.530e-4
-1.330, 2.622e-4
-1.331, 2.653e-4
-1.332, 2.653e-4
-1.333, 2.591e-4
-1.334, 2.591e-4
-1.335, 2.653e-4
-1.336, 2.684e-4
-1.337, 2.684e-4
-1.338, 2.653e-4
-1.339, 2.622e-4
-1.340, 2.684e-4
-1.341, 2.776e-4
-1.342, 2.746e-4
-1.343, 2.684e-4
-1.344, 2.715e-4
-1.345, 2.776e-4
-1.346, 2.838e-4
-1.347, 2.838e-4
-1.348, 2.776e-4
-1.349, 2.776e-4
-1.350, 2.869e-4
-1.351, 2.931e-4
-1.352, 2.900e-4
-1.353, 2.869e-4
-1.354, 2.869e-4
-1.355, 2.961e-4
-1.356, 3.023e-4
-1.357, 3.023e-4
-1.358, 2.992e-4
-1.359, 2.992e-4
-1.360, 3.085e-4
-1.361, 3.146e-4
-1.362, 3.146e-4
-1.363, 3.115e-4
-1.364, 3.146e-4
-1.365, 3.208e-4
-1.366, 3.300e-4
-1.367, 3.300e-4
-1.368, 3.300e-4
-1.369, 3.331e-4
-1.370, 3.424e-4
-1.371, 3.485e-4
-1.372, 3.516e-4
-1.373, 3.485e-4
-1.374, 3.516e-4
-1.375, 3.609e-4
-1.376, 3.732e-4
-1.377, 3.732e-4
-1.378, 3.732e-4
-1.379, 3.763e-4
-1.380, 3.886e-4
-1.381, 3.979e-4
-1.382, 4.010e-4
-1.383, 4.010e-4
-1.384, 4.071e-4
-1.385, 4.195e-4
-1.386, 4.287e-4
-1.387, 4.349e-4
-1.388, 4.380e-4
-1.389, 4.441e-4
-1.390, 4.565e-4
-1.391, 4.719e-4
-1.392, 4.750e-4
-1.393, 4.811e-4
-1.394, 4.873e-4
-1.395, 5.027e-4
-1.396, 5.181e-4
-1.397, 5.274e-4
-1.398, 5.335e-4
-1.399, 5.459e-4
-1.400, 5.644e-4
-1.401, 5.798e-4
-1.402, 5.921e-4
-1.403, 6.014e-4
-1.404, 6.168e-4
-1.405, 6.384e-4
-1.406, 6.599e-4
-1.407, 6.754e-4
-1.408, 6.877e-4
-1.409, 7.093e-4
-1.410, 7.339e-4
-1.411, 7.617e-4
-1.412, 7.863e-4
-1.413, 8.048e-4
-1.414, 8.326e-4
-1.415, 8.665e-4
-1.416, 9.035e-4
-1.417, 9.343e-4
-1.418, 9.621e-4
-1.419, 9.991e-4
-1.420, 1.045e-3
-1.421, 1.092e-3
-1.422, 1.135e-3
-1.423, 1.181e-3
-1.424, 1.230e-3
-1.425, 1.289e-3
-1.426, 1.357e-3
-1.427, 1.415e-3
-1.428, 1.480e-3
-1.429, 1.551e-3
-1.430, 1.637e-3
-1.431, 1.727e-3
-1.432, 1.816e-3
-1.433, 1.906e-3
-1.434, 2.004e-3
-1.435, 2.115e-3
-1.436, 2.238e-3
-1.437, 2.359e-3
-1.438, 2.485e-3
-1.439, 2.615e-3
-1.440, 2.763e-3
-1.441, 2.917e-3
-1.442, 3.071e-3
-1.443, 3.228e-3
-1.444, 3.392e-3
-1.445, 3.564e-3
-1.446, 3.743e-3
-1.447, 3.919e-3
-1.448, 4.088e-3
-1.449, 4.258e-3
-1.450, 4.437e-3
-1.451, 4.616e-3
-1.452, 4.788e-3
-1.453, 4.952e-3
-1.454, 5.109e-3
-1.455, 5.272e-3
-1.456, 5.436e-3
-1.457, 5.590e-3
-1.458, 5.735e-3
-1.459, 5.873e-3
-1.460, 6.018e-3
-1.461, 6.166e-3
-1.462, 6.305e-3
-1.463, 6.435e-3
-1.464, 6.561e-3
-1.465, 6.697e-3
-1.466, 6.832e-3
-1.467, 6.962e-3
-1.468, 7.088e-3
-1.469, 7.208e-3
-1.470, 7.335e-3
-1.471, 7.464e-3
-1.472, 7.588e-3
-1.473, 7.705e-3
-1.474, 7.822e-3
-1.475, 7.942e-3
-1.476, 8.069e-3
-1.477, 8.192e-3
-1.478, 8.312e-3
-1.479, 8.426e-3
-1.480, 8.547e-3
-1.481, 8.673e-3
-1.482, 8.799e-3
-1.483, 8.917e-3
-1.484, 9.031e-3
-1.485, 9.154e-3
-1.486, 9.283e-3
-1.487, 9.413e-3
-1.488, 9.530e-3
-1.489, 9.647e-3
-1.490, 9.767e-3
-1.491, 9.903e-3
-1.492, 1.003e-2
-1.493, 1.015e-2
-1.494, 1.027e-2
-1.495, 1.039e-2
-1.496, 1.052e-2
-1.497, 1.065e-2
-1.498, 1.076e-2
-1.499, 1.088e-2
-1.500, 1.091e-2
-1.499, 1.082e-2
-1.498, 1.072e-2
-1.497, 1.061e-2
-1.496, 1.050e-2
-1.495, 1.040e-2
-1.494, 1.030e-2
-1.493, 1.020e-2
-1.492, 1.009e-2
-1.491, 9.971e-3
-1.490, 9.872e-3
-1.489, 9.777e-3
-1.488, 9.675e-3
-1.487, 9.567e-3
-1.486, 9.456e-3
-1.485, 9.357e-3
-1.484, 9.262e-3
-1.483, 9.160e-3
-1.482, 9.055e-3
-1.481, 8.944e-3
-1.480, 8.849e-3
-1.479, 8.753e-3
-1.478, 8.658e-3
-1.477, 8.553e-3
-1.476, 8.445e-3
-1.475, 8.349e-3
-1.474, 8.260e-3
-1.473, 8.164e-3
-1.472, 8.062e-3
-1.471, 7.955e-3
-1.470, 7.856e-3
-1.469, 7.767e-3
-1.468, 7.674e-3
-1.467, 7.575e-3
-1.466, 7.474e-3
-1.465, 7.384e-3
-1.464, 7.298e-3
-1.463, 7.208e-3
-1.462, 7.110e-3
-1.461, 7.014e-3
-1.460, 6.928e-3
-1.459, 6.845e-3
-1.458, 6.761e-3
-1.457, 6.666e-3
-1.456, 6.573e-3
-1.455, 6.487e-3
-1.454, 6.404e-3
-1.453, 6.314e-3
-1.452, 6.222e-3
-1.451, 6.129e-3
-1.450, 6.043e-3
-1.449, 5.963e-3
-1.448, 5.883e-3
-1.447, 5.793e-3
-1.446, 5.704e-3
-1.445, 5.621e-3
-1.444, 5.541e-3
-1.443, 5.457e-3
-1.442, 5.371e-3
-1.441, 5.282e-3
-1.440, 5.201e-3
-1.439, 5.127e-3
-1.438, 5.047e-3
-1.437, 4.964e-3
-1.436, 4.881e-3
-1.435, 4.807e-3
-1.434, 4.736e-3
-1.433, 4.659e-3
-1.432, 4.582e-3
-1.431, 4.501e-3
-1.430, 4.431e-3
-1.429, 4.366e-3
-1.428, 4.295e-3
-1.427, 4.215e-3
-1.426, 4.141e-3
-1.425, 4.073e-3
-1.424, 4.008e-3
-1.423, 3.940e-3
-1.422, 3.866e-3
-1.421, 3.795e-3
-1.420, 3.731e-3
-1.419, 3.669e-3
-1.418, 3.604e-3
-1.417, 3.533e-3
-1.416, 3.466e-3
-1.415, 3.404e-3
-1.414, 3.345e-3
-1.413, 3.284e-3
-1.412, 3.219e-3
-1.411, 3.154e-3
-1.410, 3.096e-3
-1.409, 3.040e-3
-1.408, 2.982e-3
-1.407, 2.920e-3
-1.406, 2.861e-3
-1.405, 2.806e-3
-1.404, 2.753e-3
-1.403, 2.698e-3
-1.402, 2.639e-3
-1.401, 2.584e-3
-1.400, 2.531e-3
-1.399, 2.485e-3
-1.398, 2.433e-3
-1.397, 2.377e-3
-1.396, 2.322e-3
-1.395, 2.275e-3
-1.394, 2.232e-3
-1.393, 2.183e-3
-1.392, 2.131e-3
-1.391, 2.081e-3
-1.390, 2.038e-3
-1.389, 1.995e-3
-1.388, 1.952e-3
-1.387, 1.906e-3
-1.386, 1.856e-3
-1.385, 1.816e-3
-1.384, 1.779e-3
-1.383, 1.739e-3
-1.382, 1.690e-3
-1.381, 1.650e-3
-1.380, 1.613e-3
-1.379, 1.579e-3
-1.378, 1.539e-3
-1.377, 1.495e-3
-1.376, 1.458e-3
-1.375, 1.425e-3
-1.374, 1.394e-3
-1.373, 1.357e-3
-1.372, 1.320e-3
-1.371, 1.283e-3
-1.370, 1.252e-3
-1.369, 1.224e-3
-1.368, 1.193e-3
-1.367, 1.159e-3
-1.366, 1.125e-3
-1.365, 1.101e-3
-1.364, 1.073e-3
-1.363, 1.042e-3
-1.362, 1.008e-3
-1.361, 9.806e-4
-1.360, 9.590e-4
-1.359, 9.343e-4
-1.358, 9.066e-4
-1.357, 8.788e-4
-1.356, 8.511e-4
-1.355, 8.295e-4
-1.354, 8.110e-4
-1.353, 7.863e-4
-1.352, 7.555e-4
-1.351, 7.339e-4
-1.350, 7.154e-4
-1.349, 6.969e-4
-1.348, 6.754e-4
-1.347, 6.507e-4
-1.346, 6.291e-4
-1.345, 6.137e-4
-1.344, 5.983e-4
-1.343, 5.767e-4
-1.342, 5.551e-4
-1.341, 5.366e-4
-1.340, 5.212e-4
-1.339, 5.089e-4
-1.338, 4.904e-4
-1.337, 4.688e-4
-1.336, 4.534e-4
-1.335, 4.441e-4
-1.334, 4.318e-4
-1.333, 4.133e-4
-1.332, 3.948e-4
-1.331, 3.825e-4
-1.330, 3.701e-4
-1.329, 3.609e-4
-1.328, 3.485e-4
-1.327, 3.300e-4
-1.326, 3.146e-4
-1.325, 3.085e-4
-1.324, 2.992e-4
-1.323, 2.869e-4
-1.322, 2.715e-4
-1.321, 2.561e-4
-1.320, 2.530e-4
-1.319, 2.468e-4
-1.318, 2.314e-4
-1.317, 2.191e-4
-1.316, 2.067e-4
-1.315, 2.036e-4
-1.314, 2.006e-4
-1.313, 1.882e-4
-1.312, 1.728e-4
-1.311, 1.636e-4
-1.310, 1.605e-4
-1.309, 1.574e-4
-1.308, 1.451e-4
-1.307, 1.327e-4
-1.306, 1.235e-4
-1.305, 1.235e-4
-1.304, 1.204e-4
-1.303, 1.081e-4
-1.302, 9.882e-5
-1.301, 8.957e-5
-1.300, 8.648e-5
-1.299, 8.648e-5
-1.298, 7.723e-5
-1.297, 6.798e-5
-1.296, 6.182e-5
-1.295, 5.873e-5
-1.294, 5.873e-5
-1.293, 5.257e-5
-1.292, 3.715e-5
-1.291, 3.407e-5
-1.290, 3.407e-5
-1.289, 3.099e-5
-1.288, 2.482e-5
-1.287, 1.557e-5
-1.286, 9.405e-6
-1.285, 9.405e-6
-1.284, 9.405e-6
-1.283, 3.239e-6
-1.282, -6.010e-6
-1.281, -1.218e-5
-1.280, -1.218e-5
-1.279, -9.093e-6
-1.278, -1.526e-5
-1.277, -2.451e-5
-1.276, -3.068e-5
-1.275, -2.759e-5
-1.274, -2.759e-5
-1.273, -3.376e-5
-1.272, -3.992e-5
-1.271, -4.609e-5
-1.270, -4.301e-5
-1.269, -4.301e-5
-1.268, -4.917e-5
-1.267, -5.534e-5
-1.266, -6.151e-5
-1.265, -5.842e-5
-1.264, -5.534e-5
-1.263, -6.151e-5
-1.262, -7.076e-5
-1.261, -7.384e-5
-1.260, -7.384e-5
-1.259, -7.076e-5
-1.258, -7.384e-5
-1.257, -8.309e-5
-1.256, -8.617e-5
-1.255, -8.309e-5
-1.254, -8.309e-5
-1.253, -8.617e-5
-1.252, -9.234e-5
-1.251, -9.850e-5
-1.250, -9.542e-5
-1.249, -9.234e-5
-1.248, -9.542e-5
-1.247, -1.047e-4
-1.246, -1.078e-4
-1.245, -1.047e-4
-1.244, -1.016e-4
-1.243, -1.078e-4
-1.242, -1.139e-4
-1.241, -1.170e-4
-1.240, -1.139e-4
-1.239, -1.108e-4
-1.238, -1.170e-4
-1.237, -1.232e-4
-1.236, -1.263e-4
-1.235, -1.232e-4
-1.234, -1.201e-4
-1.233, -1.232e-4
-1.232, -1.324e-4
-1.231, -1.355e-4
-1.230, -1.324e-4
-1.229, -1.293e-4
-1.228, -1.324e-4
-1.227, -1.386e-4
-1.226, -1.417e-4
-1.225, -1.386e-4
-1.224, -1.355e-4
-1.223, -1.386e-4
-1.222, -1.478e-4
-1.221, -1.509e-4
-1.220, -1.478e-4
-1.219, -1.417e-4
-1.218, -1.478e-4
-1.217, -1.540e-4
-1.216, -1.571e-4
-1.215, -1.540e-4
-1.214, -1.509e-4
-1.213, -1.540e-4
-1.212, -1.602e-4
-1.211, -1.632e-4
-1.210, -1.602e-4
-1.209, -1.571e-4
-1.208, -1.602e-4
-1.207, -1.663e-4
-1.206, -1.725e-4
-1.205, -1.663e-4
-1.204, -1.632e-4
-1.203, -1.663e-4
-1.202, -1.725e-4
-1.201, -1.756e-4
-1.200, -1.725e-4
-1.199, -1.694e-4
-1.198, -1.725e-4
-1.197, -1.787e-4
-1.196, -1.817e-4
-1.195, -1.787e-4
-1.194, -1.756e-4
-1.193, -1.787e-4
-1.192, -1.848e-4
-1.191, -1.879e-4
-1.190, -1.848e-4
-1.189, -1.817e-4
-1.188, -1.848e-4
-1.187, -1.941e-4
-1.186, -1.972e-4
-1.185, -1.910e-4
-1.184, -1.879e-4
-1.183, -1.910e-4
-1.182, -1.972e-4
-1.181, -2.033e-4
-1.180, -1.972e-4
-1.179, -1.941e-4
-1.178, -1.972e-4
-1.177, -2.033e-4
-1.176, -2.064e-4
-1.175, -2.033e-4
-1.174, -1.972e-4
-1.173, -2.002e-4
-1.172, -2.095e-4
-1.171, -2.126e-4
-1.170, -2.095e-4
-1.169, -2.033e-4
-1.168, -2.064e-4
-1.167, -2.157e-4
-1.166, -2.187e-4
-1.165, -2.126e-4
-1.164, -2.095e-4
-1.163, -2.126e-4
-1.162, -2.187e-4
-1.161, -2.218e-4
-1.160, -2.187e-4
-1.159, -2.157e-4
-1.158, -2.187e-4
-1.157, -2.249e-4
-1.156, -2.280e-4
-1.155, -2.249e-4
-1.154, -2.187e-4
-1.153, -2.249e-4
-1.152, -2.280e-4
-1.151, -2.342e-4
-1.150, -2.311e-4
-1.149, -2.249e-4
-1.148, -2.280e-4
-1.147, -2.342e-4
-1.146, -2.403e-4
-1.145, -2.342e-4
-1.144, -2.311e-4
-1.143, -2.342e-4
-1.142, -2.403e-4
-1.141, -2.434e-4
-1.140, -2.403e-4
-1.139, -2.372e-4
-1.138, -2.403e-4
-1.137, -2.465e-4
-1.136, -2.496e-4
-1.135, -2.465e-4
-1.134, -2.434e-4
-1.133, -2.434e-4
-1.132, -2.496e-4
-1.131, -2.557e-4
-1.130, -2.496e-4
-1.129, -2.465e-4
-1.128, -2.496e-4
-1.127, -2.557e-4
-1.126, -2.619e-4
-1.125, -2.557e-4
-1.124, -2.527e-4
-1.123, -2.557e-4
-1.122, -2.619e-4
-1.121, -2.681e-4
-1.120, -2.619e-4
-1.119, -2.588e-4
-1.118, -2.588e-4
-1.117, -2.681e-4
-1.116, -2.742e-4
-1.115, -2.681e-4
-1.114, -2.650e-4
-1.113, -2.650e-4
-1.112, -2.712e-4
-1.111, -2.773e-4
-1.110, -2.742e-4
-1.109, -2.681e-4
-1.108, -2.712e-4
-1.107, -2.773e-4
-1.106, -2.835e-4
-1.105, -2.804e-4
-1.104, -2.742e-4
-1.103, -2.742e-4
-1.102, -2.835e-4
-1.101, -2.897e-4
-1.100, -2.866e-4
-1.099, -2.804e-4
-1.098, -2.804e-4
-1.097, -2.897e-4
-1.096, -2.958e-4
-1.095, -2.897e-4
-1.094, -2.866e-4
-1.093, -2.866e-4
-1.092, -2.958e-4
-1.091, -2.989e-4
-1.090, -2.958e-4
-1.089, -2.927e-4
-1.088, -2.927e-4
-1.087, -3.020e-4
-1.086, -3.051e-4
-1.085, -3.020e-4
-1.084, -2.958e-4
-1.083, -2.989e-4
-1.082, -3.051e-4
-1.081, -3.112e-4
-1.080, -3.082e-4
-1.079, -3.020e-4
-1.078, -3.051e-4
-1.077, -3.112e-4
-1.076, -3.174e-4
-1.075, -3.143e-4
-1.074, -3.112e-4
-1.073, -3.112e-4
-1.072, -3.174e-4
-1.071, -3.236e-4
-1.070, -3.205e-4
-1.069, -3.143e-4
-1.068, -3.174e-4
-1.067, -3.267e-4
-1.066, -3.297e-4
-1.065, -3.267e-4
-1.064, -3.205e-4
-1.063, -3.236e-4
-1.062, -3.297e-4
-1.061, -3.328e-4
-1.060, -3.328e-4
-1.059, -3.267e-4
-1.058, -3.267e-4
-1.057, -3.359e-4
-1.056, -3.390e-4
-1.055, -3.359e-4
-1.054, -3.328e-4
-1.053, -3.359e-4
-1.052, -3.421e-4
-1.051, -3.452e-4
-1.050, -3.452e-4
-1.049, -3.390e-4
-1.048, -3.421e-4
-1.047, -3.482e-4
-1.046, -3.544e-4
-1.045, -3.513e-4
-1.044, -3.452e-4
-1.043, -3.452e-4
-1.042, -3.544e-4
-1.041, -3.606e-4
-1.040, -3.544e-4
-1.039, -3.482e-4
-1.038, -3.513e-4
-1.037, -3.606e-4
-1.036, -3.637e-4
-1.035, -3.606e-4
-1.034, -3.575e-4
-1.033, -3.575e-4
-1.032, -3.637e-4
-1.031, -3.698e-4
-1.030, -3.667e-4
-1.029, -3.606e-4
-1.028, -3.637e-4
-1.027, -3.729e-4
-1.026, -3.760e-4
-1.025, -3.698e-4
-1.024, -3.667e-4
-1.023, -3.698e-4
-1.022, -3.760e-4
-1.021, -3.791e-4
-1.020, -3.760e-4
-1.019, -3.698e-4
-1.018, -3.729e-4
-1.017, -3.791e-4
-1.016, -3.852e-4
-1.015, -3.821e-4
-1.014, -3.760e-4
-1.013, -3.760e-4
-1.012, -3.852e-4
-1.011, -3.883e-4
-1.010, -3.852e-4
-1.009, -3.821e-4
-1.008, -3.821e-4
-1.007, -3.914e-4
-1.006, -3.945e-4
-1.005, -3.914e-4
-1.004, -3.852e-4
-1.003, -3.883e-4
-1.002, -3.945e-4
-1.001, -3.976e-4
