Potential V vs RHE, Current mA cm-2
0.4132999999999999,0.007858721270750279
0.4122999999999999,0.005234431809500636
0.4112999999999999,0.004031927204615354
0.4102999999999999,0.003231200608891744
0.4092999999999999,0.0026002393691519376
0.4082999999999999,0.0020258665814067325
0.4072999999999999,0.0015109116682558593
0.4062999999999999,0.001040095747660775
0.4052999999999999,0.0005906419676936529
0.4042999999999999,0.00020683079204026836
0.4032999999999999,-8.90419292135054e-05
0.4022999999999999,-0.0003891870785928716
0.4012999999999999,-0.0006947647193637196
0.4002999999999999,-0.0010060012053340276
0.3992999999999999,-0.0012879531673971292
0.3982999999999999,-0.0015533530072518104
0.3972999999999999,-0.0017528273005327803
0.3962999999999999,-0.002004645911908757
0.3952999999999999,-0.0021899730921910773
0.3942999999999999,-0.002321541243078525
0.39329999999999987,-0.002405009209770562
0.39229999999999987,-0.0024913065990623292
0.39129999999999987,-0.0026780484906445143
0.39029999999999987,-0.0029114758551222458
0.38929999999999987,-0.003096803035404565
0.38829999999999987,-0.0032962773286855356
0.38729999999999987,-0.003430674902172714
0.38629999999999987,-0.0036442963084523344
0.38529999999999986,-0.003797085128837758
0.38429999999999986,-0.0038777236729300654
0.38329999999999986,-0.003955532794422643
0.38229999999999986,-0.00405880671931279
0.38129999999999986,-0.004222913230097134
0.38029999999999986,-0.004399752142580264
0.37929999999999986,-0.004484634820572166
0.37829999999999986,-0.004565273364664473
0.37729999999999986,-0.004678450268653676
0.37629999999999986,-0.004795871306542475
0.37529999999999986,-0.004937342436528979
0.37429999999999986,-0.00499393088852358
0.37329999999999985,-0.0050646664535168315
0.37229999999999985,-0.00516794037840698
0.37129999999999985,-0.0052400906547000956
0.37029999999999985,-0.005353267558689299
0.36929999999999985,-0.005392879475085519
0.36829999999999985,-0.005438150236681201
0.36729999999999985,-0.005528691759872563
0.36629999999999985,-0.00562913626216298
0.36529999999999985,-0.00575504556785097
0.36429999999999985,-0.00581163401984557
0.36329999999999985,-0.005855490070141387
0.36229999999999984,-0.005910663810836123
0.36129999999999984,-0.006004034756627216
0.36029999999999984,-0.006104479258917633
0.35929999999999984,-0.006151164731813179
0.35829999999999984,-0.006175214823910886
0.35729999999999984,-0.006237462121104946
0.35629999999999984,-0.0063492243137942845
0.35529999999999984,-0.006410056899688482
0.35429999999999984,-0.006462401217783488
0.35329999999999984,-0.006483621887281464
0.35229999999999984,-0.00651333082457863
0.35129999999999983,-0.006598213502570531
0.35029999999999983,-0.006681681469262569
0.34929999999999983,-0.00671846396305906
0.34829999999999983,-0.006772222992453929
0.34729999999999983,-0.0068288114444485315
0.34629999999999983,-0.006891058741642593
0.34529999999999983,-0.006964623729235576
0.34429999999999983,-0.006997162089132472
0.3432999999999998,-0.007028285737729501
0.3422999999999998,-0.007036774005528692
0.3412999999999998,-0.007124486106120325
0.3402999999999998,-0.007200880516313037
0.3392999999999998,-0.0072022952276129025
0.3382999999999998,-0.007239077721409393
0.3372999999999998,-0.0072744455039060185
0.3362999999999998,-0.007343766357599406
0.3352999999999998,-0.007434307880790768
0.3342999999999998,-0.007451284416389148
0.3332999999999998,-0.007468260951987528
0.3322999999999998,-0.007509287579683614
0.3312999999999998,-0.00754748478477997
0.3302999999999998,-0.007636611596671467
0.3292999999999998,-0.007647929287070387
0.3282999999999998,-0.007688955914766474
0.3272999999999998,-0.007711591295564315
0.3262999999999998,-0.00776959445885878
0.3252999999999999,-0.007853062425550818
0.3242999999999999,-0.007874283095048795
0.3232999999999999,-0.007862965404649876
0.3222999999999999,-0.007908236166245555
0.3212999999999999,-0.007978971731238807
0.3202999999999999,-0.008029901338033947
0.3192999999999999,-0.008062439697930844
0.3182999999999999,-0.008063854409230709
0.3172999999999999,-0.00808648979002855
0.3162999999999999,-0.008164298911521126
0.3152999999999999,-0.008206740250517076
0.3142999999999999,-0.008232205053914648
0.3132999999999999,-0.008256255146012354
0.3122999999999999,-0.008259084568612084
0.3112999999999999,-0.008351040803103312
0.3102999999999999,-0.008400555698598587
0.3092999999999999,-0.008418946945496834
0.3082999999999999,-0.008455729439293324
0.3072999999999999,-0.008457144150593189
0.3062999999999999,-0.008519391447787251
0.3052999999999999,-0.008587297590180771
0.3042999999999999,-0.008577394611081717
0.3032999999999999,-0.008612762393578343
0.3022999999999999,-0.008632568351776454
0.3012999999999999,-0.00869340093767065
0.3002999999999999,-0.008766965925263631
0.2992999999999999,-0.008759892368764309
0.2982999999999999,-0.008791016017361337
0.2972999999999999,-0.008815066109459044
0.2962999999999999,-0.008860336871054727
0.2952999999999999,-0.008948048971646357
0.2942999999999999,-0.008952293105545952
0.2932999999999999,-0.008939560703847167
0.2922999999999999,-0.008956537239445547
0.2912999999999999,-0.00902161395923934
0.2902999999999999,-0.009105081925931376
0.2892999999999999,-0.009122058461529756
0.2882999999999999,-0.009113570193730566
0.2872999999999999,-0.009156011532726518
0.2862999999999999,-0.009206941139521658
0.2852999999999999,-0.009247967767217743
0.2842999999999999,-0.009263529591516259
0.2832999999999999,-0.009273432570615317
0.2822999999999999,-0.009297482662713021
0.2812999999999999,-0.009372462361605868
0.2802999999999999,-0.00942905081360047
0.2792999999999999,-0.00944036850399939
0.2782999999999999,-0.009436124370099795
0.2772999999999999,-0.009465833307396958
0.2762999999999999,-0.009528080604591021
0.2752999999999999,-0.009560618964487917
0.2742999999999999,-0.009573351366186703
0.2732999999999999,-0.009584669056585622
0.2722999999999999,-0.009600230880884138
0.2712999999999999,-0.00967096644587739
0.2702999999999999,-0.009727554897871993
0.2692999999999999,-0.009744531433470371
0.26829999999999987,-0.009775655082067403
0.26729999999999987,-0.009767166814268213
0.26629999999999987,-0.00983931709056133
0.26529999999999987,-0.009895905542555932
0.26429999999999987,-0.009900149676455526
0.26329999999999987,-0.009914296789454177
0.26229999999999987,-0.009935517458952152
0.26129999999999987,-0.010003423601345674
0.26029999999999986,-0.01005010907424122
0.25929999999999986,-0.0100670856098396
0.25829999999999986,-0.01008406214543798
0.25729999999999986,-0.010113771082735147
0.25629999999999986,-0.010174603668629344
0.25529999999999986,-0.010239680388423135
0.25429999999999986,-0.010234021543223676
0.25329999999999986,-0.010255242212721652
0.25229999999999986,-0.010275048170919761
0.25129999999999986,-0.010341539602013419
0.25029999999999986,-0.010402372187907615
0.24929999999999986,-0.01040095747660775
0.24829999999999985,-0.010413689878306535
0.24729999999999985,-0.010467448907701406
0.24629999999999985,-0.010524037359696007
0.24529999999999985,-0.010615993594187237
0.24429999999999985,-0.01061457888288737
0.24329999999999985,-0.0105891140794898
0.24229999999999985,-0.010627311284586155
0.24129999999999985,-0.010678240891381297
0.24029999999999985,-0.010717852807777517
0.23929999999999985,-0.010739073477275493
0.23829999999999985,-0.010764538280673063
0.23729999999999984,-0.010775855971071984
0.23629999999999984,-0.010846591536065237
0.23529999999999984,-0.010897521142860377
0.23429999999999984,-0.010896106431560512
0.23329999999999984,-0.010925815368857679
0.23229999999999984,-0.010964012573954034
0.23129999999999984,-0.011046065829346207
0.23029999999999984,-0.011075774766643372
0.22929999999999984,-0.011075774766643372
0.22829999999999984,-0.011096995436141347
0.22729999999999984,-0.011116801394339458
0.22629999999999983,-0.01121300176273028
0.22529999999999983,-0.011282322616423668
0.22429999999999983,-0.011263931369525422
0.22329999999999983,-0.011285152039023397
0.22229999999999983,-0.011304957997221508
0.22129999999999983,-0.011377108273514625
0.22029999999999983,-0.011430867302909497
0.21929999999999983,-0.011443599704608282
0.21829999999999983,-0.011480382198404773
0.21729999999999983,-0.011486041043604234
0.21629999999999983,-0.01154687362949843
0.21529999999999982,-0.011611950349292221
0.21429999999999982,-0.011606291504092762
0.21329999999999982,-0.011657221110887902
0.21229999999999982,-0.011726541964581288
0.21129999999999982,-0.011791618684375081
0.21029999999999982,-0.011841133579870357
0.20929999999999982,-0.011825571755571843
0.20829999999999982,-0.011802936374774
0.20729999999999982,-0.011810009931273327
0.20629999999999982,-0.011853865981569142
0.20529999999999982,-0.011873671939767252
0.20429999999999982,-0.011880745496266578
0.20329999999999981,-0.011882160207566444
0.2022999999999998,-0.0119203574126628
0.2012999999999998,-0.011972701730757805
0.20029999999999992,-0.011989678266356186
0.19929999999999992,-0.011981189998556995
0.19829999999999992,-0.011982604709856862
0.19729999999999992,-0.011996751822855511
0.19629999999999992,-0.012074560944348087
0.19529999999999992,-0.012124075839843365
0.19429999999999992,-0.0121792495805381
0.19329999999999992,-0.012204714383935672
0.19229999999999992,-0.01215378477714053
0.19129999999999991,-0.012217446785634457
0.1902999999999999,-0.012225935053433647
0.1892999999999999,-0.012213202651734862
0.1882999999999999,-0.012233008609932972
0.1872999999999999,-0.012257058702030678
0.1862999999999999,-0.01231930599922474
0.1852999999999999,-0.012332038400923524
0.1842999999999999,-0.012320720710524605
0.1832999999999999,-0.012317891287924874
0.1822999999999999,-0.012332038400923524
0.1812999999999999,-0.012405603388516507
0.1802999999999999,-0.012432482903213941
0.1792999999999999,-0.012408432811116237
0.1782999999999999,-0.012426824058014483
0.1772999999999999,-0.012426824058014483
0.1762999999999999,-0.012452288861412052
0.1752999999999999,-0.012511706736006383
0.1742999999999999,-0.012500389045607465
0.1732999999999999,-0.012517365581205843
0.1722999999999999,-0.012528683271604767
0.1712999999999999,-0.012579612878399905
0.1702999999999999,-0.012605077681797477
0.1692999999999999,-0.012612151238296801
0.1682999999999999,-0.012613565949596667
0.1672999999999999,-0.012643274886893834
0.1662999999999999,-0.012674398535490863
0.1652999999999999,-0.01270410747278803
0.1642999999999999,-0.012711181029287354
0.1632999999999999,-0.0127012780501883
0.1622999999999999,-0.01273806054398479
0.1612999999999999,-0.012813040242877636
0.1602999999999999,-0.012832846201075748
0.1592999999999999,-0.012865384560972644
0.15829999999999989,-0.012837090334975343
0.15729999999999988,-0.012873872828771834
0.15629999999999988,-0.012933290703366164
0.15529999999999988,-0.012958755506763736
0.15429999999999988,-0.012948852527664681
0.15329999999999988,-0.012944608393765086
0.15229999999999988,-0.012950267238964546
0.15129999999999988,-0.013021002803957798
0.15029999999999988,-0.013033735205656581
0.14929999999999988,-0.013033735205656581
0.14829999999999988,-0.013064858854253614
0.14729999999999988,-0.01308042067855213
0.14629999999999987,-0.013186524026042009
0.14529999999999987,-0.013245941900636339
0.14429999999999987,-0.01324877132323607
0.14329999999999987,-0.013236038921537283
0.14229999999999987,-0.013255844879735393
0.14129999999999987,-0.013258674302335124
0.14029999999999987,-0.01327423612663364
0.13929999999999987,-0.013264333147534583
0.13829999999999987,-0.01327423612663364
0.13729999999999987,-0.013279894971833099
0.13629999999999987,-0.013332239289928105
0.13529999999999986,-0.013374680628924057
0.13429999999999986,-0.01335628938202581
0.13329999999999986,-0.013376095340223921
0.13229999999999986,-0.013394486587122167
0.13129999999999986,-0.013486442821613395
0.13029999999999986,-0.013585472612603948
0.12929999999999986,-0.013609522704701654
0.12829999999999986,-0.013609522704701654
0.12729999999999986,-0.013620840395100572
0.12629999999999986,-0.013630743374199627
0.12529999999999986,-0.013626499240300034
0.12429999999999986,-0.013619425683800706
0.12329999999999985,-0.013615181549901115
0.12229999999999985,-0.01365337875499747
0.12129999999999985,-0.013698649516593149
0.12029999999999985,-0.013714211340891666
0.11929999999999985,-0.013717040763491397
0.11829999999999985,-0.013698649516593149
0.11729999999999985,-0.013734017299089777
0.11629999999999985,-0.013820314688381543
0.11529999999999985,-0.01386417073867736
0.11429999999999985,-0.013902367943773714
0.11329999999999985,-0.01391227092287277
0.11229999999999984,-0.013906612077673311
0.11129999999999984,-0.013953297550568856
0.11029999999999984,-0.013961785818368048
0.10929999999999984,-0.013951882839268992
0.10829999999999984,-0.013958956395768317
0.10729999999999984,-0.01395471226186872
0.10629999999999984,-0.014050912630259546
0.10529999999999984,-0.014077792144956981
0.10429999999999984,-0.014070718588457654
0.10329999999999984,-0.014087695124056035
0.10229999999999984,-0.014077792144956981
0.10129999999999983,-0.014147112998650365
0.10029999999999983,-0.014217848563643616
0.09929999999999983,-0.014189554337646317
0.09829999999999983,-0.014203701450644968
0.09729999999999983,-0.014217848563643616
0.09629999999999983,-0.01426028990263957
0.09529999999999983,-0.01430273124163552
0.09429999999999983,-0.01427443701563822
0.09329999999999983,-0.01430273124163552
0.09229999999999983,-0.014345172580631472
0.09129999999999983,-0.014401761032626074
0.09029999999999982,-0.014430055258623373
0.08929999999999982,-0.014415908145624722
0.08829999999999982,-0.014444202371622025
0.08729999999999982,-0.014486643710617976
0.08629999999999982,-0.014529085049613928
0.08529999999999982,-0.014557379275611227
0.08429999999999982,-0.014571526388609878
0.08329999999999982,-0.014571526388609878
0.08229999999999982,-0.014628114840604478
0.08129999999999982,-0.01469885040559773
0.08029999999999982,-0.014727144631595034
0.07929999999999982,-0.014741291744593682
0.07829999999999981,-0.014769585970590984
0.07729999999999981,-0.014783733083589632
0.07629999999999981,-0.014840321535584235
0.07529999999999992,-0.014840321535584235
0.07429999999999992,-0.014854468648582884
0.07329999999999992,-0.014911057100577486
0.07229999999999992,-0.014953498439573438
0.07129999999999992,-0.01503838111756534
0.07029999999999992,-0.01503838111756534
0.06929999999999992,-0.015024234004566688
0.06829999999999992,-0.015024234004566688
0.06729999999999992,-0.01505252823056399
0.06629999999999991,-0.015137410908555892
0.06529999999999991,-0.015222293586547794
0.06429999999999991,-0.015236440699546445
0.06329999999999991,-0.015250587812545097
0.06229999999999991,-0.015264734925543746
0.06129999999999991,-0.015293029151541045
0.06029999999999991,-0.015335470490536997
0.05929999999999991,-0.015321323377538347
0.05829999999999991,-0.015349617603535646
0.05729999999999991,-0.015406206055530251
0.056299999999999906,-0.01546279450752485
0.055299999999999905,-0.015519382959519455
0.054299999999999904,-0.015491088733522153
0.0532999999999999,-0.015519382959519455
0.0522999999999999,-0.015547677185516754
0.0512999999999999,-0.015590118524512706
0.0502999999999999,-0.015618412750510005
0.0492999999999999,-0.015646706976507305
0.0482999999999999,-0.015632559863508654
0.0472999999999999,-0.01568914831550326
0.0462999999999999,-0.01575988388049651
0.045299999999999896,-0.01578817810649381
0.044299999999999895,-0.01581647233249111
0.043299999999999894,-0.01584476655848841
0.04229999999999989,-0.01591550212348166
0.04129999999999989,-0.015986237688474913
0.04029999999999989,-0.016056973253468165
0.03929999999999989,-0.016028679027470863
0.03829999999999989,-0.016014531914472215
0.03729999999999989,-0.016028679027470863
0.03629999999999989,-0.01611356170546277
0.03529999999999989,-0.016127708818461418
0.034299999999999886,-0.01615600304445872
0.033299999999999885,-0.01618429727045602
0.032299999999999884,-0.016226738609451972
0.031299999999999883,-0.016269179948447923
0.030299999999999883,-0.016283327061446574
0.02929999999999988,-0.01629747417444522
0.02829999999999988,-0.016311621287443873
0.02729999999999988,-0.016368209739438477
0.02629999999999988,-0.016453092417430374
0.025299999999999878,-0.016495533756426328
0.024299999999999877,-0.016495533756426328
0.023299999999999876,-0.01652382798242363
0.022299999999999875,-0.016537975095422278
0.021299999999999875,-0.01662285777341418
0.020299999999999874,-0.016679446225408782
0.019299999999999873,-0.016693593338407434
0.018299999999999872,-0.01673603467740338
0.01729999999999987,-0.016750181790402035
0.01629999999999987,-0.016806770242396636
0.01529999999999987,-0.016849211581392583
0.014299999999999868,-0.016863358694391237
0.013299999999999867,-0.01687750580738989
0.012299999999999978,-0.016948241372383138
0.011299999999999866,-0.017018976937376393
0.010299999999999976,-0.017075565389370995
0.009299999999999864,-0.017089712502369642
0.008299999999999974,-0.017089712502369642
0.007299999999999862,-0.017146300954364244
0.006299999999999972,-0.017217036519357496
0.00529999999999986,-0.017273624971352097
0.0042999999999999705,-0.0173019191973494
0.0032999999999998586,-0.0173302134233467
0.0022999999999999687,-0.0173868018753413
0.0012999999999998568,-0.017471684553333203
0.00029999999999996696,-0.01748583166633185
-0.000700000000000145,-0.017514125892329157
-0.0017000000000000348,-0.017514125892329157
-0.0027000000000001467,-0.017584861457322406
-0.0037000000000000366,-0.01765559702231566
-0.0047000000000001485,-0.01769803836131161
-0.005700000000000038,-0.01772633258730891
-0.00670000000000015,-0.017754626813306213
-0.00770000000000004,-0.017782921039303512
-0.008700000000000152,-0.01785365660429676
-0.009700000000000042,-0.017881950830294063
-0.010700000000000154,-0.017924392169290013
-0.011700000000000044,-0.017952686395287316
-0.012700000000000156,-0.017995127734283266
-0.013700000000000045,-0.01813659886426977
-0.014700000000000157,-0.018235628655260322
-0.015700000000000047,-0.018292217107254923
-0.01670000000000016,-0.018306364220253574
-0.01770000000000005,-0.018320511333252226
-0.01870000000000016,-0.018348805559249524
-0.01970000000000005,-0.018377099785246823
-0.020700000000000163,-0.018391246898245478
-0.021700000000000053,-0.018461982463238727
-0.022700000000000164,-0.018546865141230634
-0.023700000000000054,-0.018645894932221182
-0.024700000000000166,-0.018674189158218484
-0.025700000000000056,-0.018660042045219833
-0.026700000000000168,-0.018645894932221182
-0.027700000000000058,-0.018716630497214438
-0.02870000000000017,-0.018773218949209036
-0.02970000000000006,-0.01882980740120364
-0.03070000000000017,-0.01882980740120364
-0.03170000000000006,-0.01887224874019959
-0.03270000000000017,-0.018957131418191494
-0.03370000000000006,-0.019013719870186095
-0.034700000000000175,-0.019042014096183394
-0.035700000000000065,-0.019070308322180696
-0.03670000000000018,-0.019084455435179344
-0.03770000000000007,-0.019141043887173945
-0.03870000000000018,-0.019240073678164497
-0.03970000000000007,-0.0192683679041618
-0.04070000000000018,-0.0193249563561564
-0.04170000000000007,-0.0193249563561564
-0.04270000000000018,-0.019381544808151
-0.04370000000000007,-0.019466427486142905
-0.044700000000000184,-0.019466427486142905
-0.045700000000000074,-0.01950886882513886
-0.046700000000000186,-0.019551310164134805
-0.047700000000000076,-0.01959375150313076
-0.04870000000000019,-0.01969278129412131
-0.04970000000000008,-0.01973522263311726
-0.05070000000000019,-0.019763516859114563
-0.05170000000000008,-0.019791811085111865
-0.05270000000000019,-0.019848399537106463
-0.05370000000000008,-0.019904987989101064
-0.05470000000000019,-0.019947429328097017
-0.05570000000000008,-0.019961576441095665
-0.056700000000000195,-0.019989870667092968
-0.057700000000000085,-0.02003231200608892
-0.058700000000000196,-0.020131341797079472
-0.059700000000000086,-0.02020207736207272
-0.0607000000000002,-0.020216224475071376
-0.06170000000000009,-0.020286960040064625
-0.0627000000000002,-0.02032940137906058
