Potential V vs RHE, Current mA cm-2
0.013299999999999867,-7.5474847847799715
0.012299999999999978,-12.214617363034726
0.011299999999999866,-15.830619445489761
0.010299999999999976,-18.716630497214435
0.009299999999999864,-21.022609915994444
0.008299999999999974,-23.073941300798747
0.007299999999999862,-24.771594860636792
0.006299999999999972,-26.38436574248293
0.00529999999999986,-27.78492992934932
0.0042999999999999705,-29.058170099227848
0.0032999999999998586,-30.04846800913338
0.0022999999999999687,-30.88314767605375
0.0012999999999998568,-31.533914873991666
0.00029999999999996696,-32.05735805494172
-0.000700000000000145,-32.53835989689585
-0.0017000000000000348,-33.01936173884996
-0.0027000000000001467,-33.58524625879597
-0.0037000000000000366,-34.15113077874198
-0.0047000000000001485,-34.75945663768395
-0.005700000000000038,-35.32534115762997
-0.00670000000000015,-35.763901660588125
-0.00770000000000004,-36.11757948555439
-0.008700000000000152,-36.4288159715247
-0.009700000000000042,-36.5985813275085
-0.010700000000000154,-36.81078802248826
-0.011700000000000044,-37.07958316946261
-0.012700000000000156,-37.334231203438314
-0.013700000000000045,-37.73035036740053
-0.014700000000000157,-38.12646953136274
-0.015700000000000047,-38.5650300343209
-0.01670000000000016,-38.86211940729255
-0.01770000000000005,-39.130914554266916
-0.01870000000000016,-39.21579723225882
-0.01970000000000005,-39.38556258824262
-0.020700000000000163,-39.42800392723857
-0.021700000000000053,-39.654357735216976
-0.022700000000000164,-39.90900576919269
-0.023700000000000054,-40.220242255162994
-0.024700000000000166,-40.559772967130606
-0.025700000000000056,-40.95589213109281
-0.026700000000000168,-41.139804600075266
-0.027700000000000058,-41.39445263405098
-0.02870000000000017,-41.47933531204288
-0.02970000000000006,-41.606659329030734
-0.03070000000000017,-41.70568912002128
-0.03170000000000006,-41.87545447600508
-0.03270000000000017,-42.130102509980794
-0.03370000000000006,-42.483780334947056
-0.034700000000000175,-42.752575481921404
-0.035700000000000065,-43.17698887188092
-0.03670000000000018,-43.36090134086337
-0.03770000000000007,-43.53066669684718
-0.03870000000000018,-43.657990713835034
-0.03970000000000007,-43.70043205283099
-0.04070000000000018,-43.75702050482558
-0.04170000000000007,-43.92678586080939
-0.04270000000000018,-44.138992555789144
-0.04370000000000007,-44.4926703807554
-0.044700000000000184,-44.80390686672572
-0.045700000000000074,-45.143437578693316
-0.046700000000000186,-45.412232725667685
-0.047700000000000076,-45.581998081651484
-0.04870000000000019,-45.70932209863933
-0.04970000000000008,-45.75176343763528
-0.05070000000000019,-45.79420477663124
-0.05170000000000008,-45.97811724561369
-0.05270000000000019,-46.2327652795894
-0.05370000000000008,-46.586443104555656
-0.05470000000000019,-46.88353247752732
-0.05570000000000008,-47.32209298048547
-0.056700000000000195,-47.54844678846388
-0.057700000000000085,-47.76065348344364
-0.058700000000000196,-47.80309482243959
-0.059700000000000086,-47.8879775004315
-0.0607000000000002,-47.93041883942744
-0.06170000000000009,-48.114331308409895
-0.0627000000000002,-48.2840966643937
-0.06370000000000009,-48.59533315036401
-0.0647000000000002,-48.93486386233162
-0.06570000000000009,-49.28854168729788
-0.0667000000000002,-49.50074838227763
-0.0677000000000001,-49.72710219025603
-0.0687000000000002,-49.76954352925199
-0.0697000000000001,-49.85442620724389
-0.07070000000000021,-49.89686754623985
-0.0717000000000001,-50.0807800152223
-0.07270000000000021,-50.29298671020206
-0.0737000000000001,-50.60422319617236
-0.07470000000000021,-50.90131256914402
-0.0757000000000001,-51.38231441109813
-0.07670000000000021,-51.65110955807249
-0.0777000000000001,-51.90575759204819
-0.07870000000000021,-52.075522948032
-0.0797000000000001,-52.17455273902255
-0.08070000000000022,-52.30187675601041
-0.0817000000000001,-52.514083450990164
-0.08270000000000022,-52.74043725896857
-0.08370000000000011,-53.03752663194023
-0.08470000000000022,-53.348763117910536
-0.08570000000000011,-53.74488228187274
-0.08670000000000022,-54.0419716548444
-0.08770000000000011,-54.2117370108282
-0.08870000000000022,-54.35320814081471
-0.08970000000000011,-54.480532157802564
-0.09070000000000022,-54.56541483579447
-0.09170000000000011,-54.73518019177827
-0.09270000000000023,-55.046416677748574
-0.09370000000000012,-55.400094502714836
-0.09470000000000023,-55.73962521468245
-0.09570000000000012,-56.13574437864466
-0.09670000000000023,-56.44698086461496
-0.09770000000000012,-56.65918755959472
-0.09870000000000023,-56.74407023758662
-0.09970000000000012,-56.927982706569075
-0.10070000000000023,-57.012865384560975
-0.10170000000000012,-57.22507207954074
-0.10270000000000024,-57.45142588751914
-0.10370000000000013,-57.79095659948675
-0.10470000000000024,-58.18707576344896
-0.10570000000000013,-58.583194927411164
-0.10670000000000024,-58.97931409137338
-0.10770000000000013,-59.23396212534908
-0.10870000000000024,-59.44616882032884
-0.10970000000000013,-59.587639950315335
-0.11070000000000024,-59.757405306299155
-0.11170000000000013,-60.02620045327351
-0.11270000000000002,-60.32328982624517
-0.11370000000000013,-60.67696765121143
-0.11470000000000002,-61.11552815416958
-0.11570000000000014,-61.53994154412909
-0.11670000000000003,-61.851178030099405
-0.11770000000000014,-62.20485585506566
-0.11870000000000003,-62.37462121104946
-0.11970000000000014,-62.544386567033264
-0.12070000000000003,-62.72829903601572
-0.12170000000000014,-62.98294706999144
-0.12270000000000003,-63.251742216965795
-0.12370000000000014,-63.77518539791585
-0.12470000000000003,-64.15715744887942
-0.12570000000000014,-64.59571795183757
-0.12670000000000003,-65.03427845479574
-0.12770000000000015,-65.34551494076604
-0.12870000000000004,-65.60016297474175
-0.12970000000000015,-65.76992833072556
-0.13070000000000004,-65.95384079970802
-0.13170000000000015,-66.25093017267966
-0.13270000000000004,-66.56216665864997
-0.13370000000000015,-67.00072716160814
-0.13470000000000004,-67.48172900356225
-0.13570000000000015,-68.0051721845123
-0.13670000000000004,-68.44373268747047
-0.13770000000000016,-68.78326339943808
-0.13870000000000005,-69.0944998854084
-0.13970000000000016,-69.39158925838004
-0.14070000000000005,-69.57550172736251
-0.14170000000000016,-69.91503243933012
-0.14270000000000005,-70.31115160329232
-0.14370000000000016,-70.74971210625048
-0.14470000000000005,-71.2307139482046
-0.14570000000000016,-71.7965984681506
-0.14670000000000005,-72.19271763211282
-0.14770000000000016,-72.63127813507097
-0.14870000000000005,-72.92836750804264
-0.14970000000000017,-73.197162655017
-0.15070000000000006,-73.49425202798865
-0.15170000000000017,-73.89037119195086
-0.15270000000000006,-74.32893169490903
-0.15370000000000017,-74.8523748758591
-0.15470000000000006,-75.33337671781321
-0.15570000000000017,-75.98414391575112
-0.15670000000000006,-76.46514575770523
-0.15770000000000017,-76.9037062606634
-0.15870000000000006,-77.243236972631
-0.15970000000000018,-77.55447345860131
-0.16070000000000007,-77.95059262256353
-0.16170000000000018,-78.38915312552167
-0.16270000000000007,-78.85600785447714
-0.16370000000000018,-79.47848082641775
-0.16470000000000007,-80.08680668535972
-0.16570000000000018,-80.73757388329766
-0.16670000000000007,-81.3458997422396
-0.16770000000000018,-81.78446024519776
-0.16870000000000007,-82.26546208715187
-0.16970000000000018,-82.70402259011003
-0.17070000000000007,-83.08599464107361
-0.17170000000000019,-83.66602627401826
-0.17270000000000008,-84.18946945496833
-0.1737000000000002,-84.7977953139103
-0.17470000000000008,-85.40612117285227
-0.1757000000000002,-86.09932970978613
-0.17670000000000008,-86.7076555687281
-0.1777000000000002,-87.18865741068221
-0.17870000000000008,-87.66965925263632
-0.1797000000000002,-88.19310243358639
-0.18070000000000008,-88.63166293654454
-0.1817000000000002,-89.19754745649055
-0.18270000000000008,-89.84831465442848
-0.1837000000000002,-90.51322896536506
-0.1847000000000001,-91.24887884129487
-0.1857000000000002,-91.98452871722468
-0.1867000000000001,-92.56456035016936
-0.1877000000000002,-93.17288620911131
-0.1887000000000001,-93.69632939006138
-0.1897000000000002,-94.17733123201549
-0.1907000000000001,-94.6583330739696
-0.1917000000000001,-95.18177625491967
-0.19269999999999998,-95.83254345285758
-0.1937000000000001,-96.52575198979144
-0.19469999999999998,-97.21896052672531
-0.1957000000000001,-98.09608153264163
-0.19669999999999999,-98.7892900695755
-0.1977000000000001,-99.45420438051207
-0.1987,-100.02008890045809
-0.1997000000000001,-100.54353208140815
-0.2007,-101.15185794035013
-0.2017000000000001,-101.80262513828804
-0.2027,-102.41095099723
-0.2037000000000001,-103.24563066415038
-0.2047,-104.02372187907615
-0.2057000000000001,-104.90084288499246
-0.2067,-105.63649276092228
-0.2077000000000001,-106.34384841085482
-0.2087,-106.90973293080083
-0.2097000000000001,-107.47561745074682
-0.2107,-107.99906063169689
-0.2117000000000001,-108.69226916863077
-0.2127,-109.44206615755924
-0.2137000000000001,-110.22015737248502
-0.2147,-111.09727837840134
-0.2157000000000001,-112.10172340130552
-0.2167,-112.87981461623129
-0.21770000000000012,-113.58717026616378
-0.2187,-114.1530547861098
-0.21970000000000012,-114.80382198404773
-0.2207,-115.36970650399375
-0.22170000000000012,-116.06291504092759
-0.2227,-116.81271202985609
-0.22370000000000012,-117.59080324478184
-0.2247,-118.3406002337103
-0.22570000000000012,-119.20357412662798
-0.2267,-119.99581245455242
-0.22770000000000012,-120.73146233048222
-0.22870000000000001,-121.38222952842017
-0.22970000000000013,-122.0471438393567
-0.23070000000000002,-122.65546969829869
-0.23170000000000013,-123.43356091322445
-0.23270000000000002,-124.26824058014482
-0.23370000000000013,-125.10292024706521
-0.23470000000000002,-125.92345280098691
-0.23570000000000013,-126.88545648489513
-0.23670000000000002,-127.66354769982091
-0.2376999999999999,-128.4982273667413
-0.23870000000000002,-129.2338772426711
-0.2396999999999999,-129.8563502146117
-0.24070000000000003,-130.50711741254963
-0.24169999999999991,-131.2003259494835
-0.24270000000000003,-132.03500561640385
-0.24369999999999992,-132.99700930031207
-0.24470000000000003,-133.8599831932298
-0.24569999999999992,-134.86442821613394
-0.24670000000000003,-135.74154922205025
-0.24769999999999992,-136.562081775972
-0.24870000000000003,-137.2694374259045
-0.24969999999999992,-137.92020462384244
-0.25070000000000003,-138.52853048278442
-0.2516999999999999,-139.27832747171286
-0.25270000000000004,-140.01397734764268
-0.2536999999999999,-140.93353969255494
-0.25470000000000004,-141.89554337646317
-0.2556999999999999,-142.7443701563822
-0.25670000000000004,-143.73466806628772
-0.25769999999999993,-144.58349484620675
-0.25870000000000004,-145.29085049613926
-0.25969999999999993,-146.1396772760583
-0.26070000000000004,-146.8470329259908
-0.26169999999999993,-147.55438857592333
-0.26270000000000004,-148.54468648582886
-0.26369999999999993,-149.39351326574788
-0.26470000000000005,-150.38381117565342
-0.26569999999999994,-151.37410908555893
-0.26670000000000005,-152.36440699546444
-0.26769999999999994,-153.07176264539694
-0.26870000000000005,-153.920589425316
-0.26969999999999994,-154.6279450752485
-0.27070000000000005,-155.33530072518104
-0.27169999999999994,-156.04265637511355
-0.27270000000000005,-156.89148315503257
-0.27369999999999994,-157.7403099349516
-0.27470000000000006,-158.5891367148706
-0.27569999999999995,-159.72090575476264
-0.27670000000000006,-160.5697325346817
-0.27769999999999995,-161.41855931460069
-0.27870000000000006,-162.12591496453322
-0.27969999999999995,-162.8332706144657
-0.28070000000000006,-163.39915513441173
-0.28169999999999995,-164.10651078434424
-0.28270000000000006,-164.81386643427678
-0.28369999999999995,-165.8041643441823
-0.28470000000000006,-166.65299112410133
-0.28569999999999995,-167.78476016399335
-0.28670000000000007,-168.63358694391238
-0.28769999999999996,-169.48241372383137
-0.28870000000000007,-170.33124050375042
-0.28969999999999996,-171.18006728366944
-0.29070000000000007,-171.88742293360195
-0.29169999999999996,-172.87772084350746
-0.29270000000000007,-173.72654762342648
-0.29369999999999996,-174.85831666331853
-0.2947000000000001,-175.99008570321055
-0.29569999999999996,-176.98038361311612
-0.2967000000000001,-177.9706815230216
-0.29769999999999996,-178.81950830294062
-0.2987000000000001,-179.52686395287316
-0.29969999999999997,-180.23421960280567
-0.3007000000000001,-180.8001041227517
-0.30169999999999997,-181.5074597726842
-0.3027000000000001,-182.21481542261674
-0.30369999999999997,-183.06364220253573
-0.3047000000000001,-183.91246898245475
-0.30569999999999997,-184.9027668923603
-0.3067000000000001,-185.6101225422928
-0.3077,-186.45894932221185
-0.3087000000000001,-187.16630497214436
-0.3097,-187.73218949209036
-0.3107000000000001,-188.4395451420229
-0.3117,-189.1469007919554
-0.3127000000000001,-189.8542564418879
-0.3137,-190.84455435179345
-0.3147000000000001,-191.69338113171247
-0.3157,-192.683679041618
-0.3167000000000001,-193.3910346915505
-0.3177,-194.2398614714695
-0.3187000000000001,-194.94721712140205
-0.3197,-195.65457277133459
-0.3207000000000001,-196.3619284212671
-0.3217,-197.21075520118612
-0.3227000000000001,-198.05958198110514
-0.3237,-198.90840876102413
-0.3247000000000001,-199.89870667092967
-0.3257,-200.88900458083523
-0.3267000000000001,-201.87930249074074
-0.3277,-202.7281292706598
-0.3287000000000001,-203.43548492059227
-0.3297,-204.14284057052478
-0.3307000000000001,-204.8501962204573
-0.3317,-205.55755187038983
-0.3327000000000001,-206.26490752032234
-0.3337,-207.1137343002414
-0.3347000000000001,-208.1040322101469
-0.3357,-209.0943301200524
-0.3367000000000001,-209.94315689997146
-0.3377,-210.79198367989048
-0.3387000000000001,-211.499339329823
-0.3397,-212.2066949797555
-0.3407000000000001,-212.914050629688
-0.3417,-213.76287740960703
-0.3427000000000001,-214.61170418952605
-0.3437,-215.6020020994316
-0.3447000000000001,-216.73377113932364
-0.3457,-217.72406904922914
-0.3467000000000001,-218.71436695913465
-0.3477,-219.7046648690402
-0.3487000000000001,-220.5534916489592
-0.3497,-221.54378955886475
-0.3507000000000001,-222.3926163387838
-0.3517,-223.38291424868927
-0.3527000000000001,-224.37321215859478
-0.3537,-225.50498119848683
-0.3547000000000001,-226.49527910839237
-0.3557,-227.7685192782709
-0.35670000000000013,-228.75881718817644
-0.3577,-229.74911509808197
-0.35870000000000013,-230.880884137974
-0.3597,-231.729710917893
-0.36070000000000013,-232.72000882779852
-0.3617,-233.85177786769057
-0.3626999999999999,-235.12501803756908
-0.3637,-236.3982582074476
-0.3646999999999999,-237.67149837732615
-0.3657,-239.0862096771912
-0.3666999999999999,-240.35944984706975
-0.3677,-241.6326900169483
-0.3686999999999999,-242.90593018682682
-0.36970000000000003,-244.17917035670533
-0.3706999999999999,-245.31093939659738
-0.37170000000000003,-246.5841795664759
-0.3726999999999999,-247.85741973635444
-0.37370000000000003,-249.2721310362195
-0.3746999999999999,-250.6868423360845
-0.37570000000000003,-252.243024765936
-0.3766999999999999,-253.65773606580112
-0.37770000000000004,-255.07244736566614
-0.3786999999999999,-256.34568753554464
-0.37970000000000004,-257.4774565754367
-0.3806999999999999,-258.7506967453152
-0.38170000000000004,-260.02393691519376
-0.38269999999999993,-261.2971770850723
-0.38370000000000004,-262.7118883849373
-0.38469999999999993,-264.2680708147888
-0.38570000000000004,-265.82425324464043
-0.38669999999999993,-263.56071516485633
-0.38570000000000004,-255.35538962563913
-0.38469999999999993,-248.42330425630044
-0.38370000000000004,-242.34004566688077
-0.38269999999999993,-236.82267159740715
-0.38170000000000004,-231.8711820478795
-0.3806999999999999,-227.34410588831142
-0.37970000000000004,-222.9585008587298
-0.3786999999999999,-218.99730921910768
-0.37770000000000004,-215.03611757948556
-0.3766999999999999,-211.07492593986345
-0.37570000000000003,-207.25520543022787
-0.3746999999999999,-203.43548492059227
-0.37370000000000003,-199.61576441095667
-0.3726999999999999,-195.93751503130758
-0.37170000000000003,-192.40073678164498
-0.3706999999999999,-189.0054296619689
-0.36970000000000003,-185.6101225422928
-0.3686999999999999,-182.21481542261674
-0.3677,-179.24392169290016
-0.3666999999999999,-175.84861457322407
-0.3657,-172.73624971352098
-0.3646999999999999,-169.48241372383137
-0.3637,-166.3700488641283
-0.3626999999999999,-163.11621287443873
-0.3617,-160.00384801473567
-0.36070000000000013,-157.03295428501906
-0.3597,-154.3450028152755
-0.35870000000000013,-151.65705134553193
-0.3577,-149.1105710057749
-0.35670000000000013,-146.4226195360313
-0.3557,-143.87613919627424
-0.3547000000000001,-141.18818772653066
-0.3537,-138.57097182178035
-0.3527000000000001,-135.86887323903812
-0.3517,-133.1667746562959
-0.3507000000000001,-130.5495587515456
-0.3497,-128.01722552478716
-0.3487000000000001,-125.48489229802875
-0.3477,-123.05158886226087
-0.3467000000000001,-120.56169697449842
-0.3457,-118.07180508673595
-0.3447000000000001,-115.53947185997755
-0.3437,-113.00713863321914
-0.3427000000000001,-110.48895251945936
-0.3417,-108.12638464868475
-0.3407000000000001,-105.86284656890071
-0.3397,-103.76907384510045
-0.3387000000000001,-101.76018379929208
-0.3377,-99.75129375348374
-0.3367000000000001,-97.74240370767538
-0.3357,-95.79010211386164
-0.3347000000000001,-93.65388805106544
-0.3337,-91.51767398826922
-0.3327000000000001,-89.23998879548651
-0.3317,-87.10377473269031
-0.3307000000000001,-85.09488468688197
-0.3297,-83.18502443206415
-0.3287000000000001,-81.38834108123557
-0.3277,-79.69068752139752
-0.3267000000000001,-77.80912149257702
-0.3257,-75.98414391575112
-0.3247000000000001,-74.06013654793468
-0.3237,-72.15027629311687
-0.3227000000000001,-70.26871026429637
-0.3217,-68.48617402646643
-0.3207000000000001,-66.73193201463377
-0.3197,-65.20404381077954
-0.3187000000000001,-63.633714267929356
-0.3177,-62.11997317707376
-0.3167000000000001,-60.54964363422357
-0.3157,-58.83784296138688
-0.3147000000000001,-57.14018940154883
-0.3137,-55.400094502714836
-0.3127000000000001,-53.68829382987814
-0.3117,-52.11796428702795
-0.3107000000000001,-50.64666453516831
-0.3097,-49.28854168729788
-0.3087000000000001,-47.93041883942744
-0.3077,-46.67132578254756
-0.3067000000000001,-45.27076159568118
-0.30569999999999997,-43.88434452181344
-0.3047000000000001,-42.3564563179592
-0.30369999999999997,-40.91345079209687
-0.3027000000000001,-39.42800392723857
-0.30169999999999997,-38.08402819236679
-0.3007000000000001,-36.81078802248826
-0.29969999999999997,-35.594136304604326
-0.2987000000000001,-34.462367264712285
-0.29769999999999996,-33.288156885824314
-0.2967000000000001,-32.05735805494172
-0.29569999999999996,-30.79826499806185
-0.2947000000000001,-29.39770081119546
-0.29369999999999996,-28.011283737327723
-0.29270000000000007,-26.61071955046134
-0.29169999999999996,-25.43650917157336
-0.29070000000000007,-24.20571034069078
-0.28969999999999996,-23.1163826397947
-0.28870000000000007,-22.027054938898623
-0.28769999999999996,-20.980168576998494
-0.28670000000000007,-19.848399537106463
-0.28569999999999995,-18.759071836210385
-0.28470000000000006,-17.48583166633185
-0.28369999999999995,-16.269179948447924
-0.28270000000000006,-15.05252823056399
-0.28169999999999995,-13.916515056772363
-0.28070000000000006,-12.869628694872238
-0.27969999999999995,-11.952895772559694
-0.27870000000000006,-10.949865460955383
-0.27769999999999995,-10.120844639234473
-0.27670000000000006,-9.161670377925978
-0.27569999999999995,-8.158640066321666
-0.27470000000000006,-7.111753704421539
-0.27369999999999994,-5.977155241929781
-0.27270000000000005,-4.887827541033701
-0.27169999999999994,-3.884797229429391
-0.27070000000000005,-2.8379108675292635
-0.26969999999999994,-2.008890045808352
-0.26870000000000005,-1.1798692240874404
-0.26769999999999994,-0.4384190318281749
-0.26670000000000005,0.3903188476327636
