Potential V vs RHE, Current mA cm-2
0.013299999999999867,29.31281813320356
0.012299999999999978,27.219045409403304
0.011299999999999866,25.252596702590903
0.010299999999999976,23.328589334774456
0.009299999999999864,21.418729079956652
0.008299999999999974,19.579604390132108
0.007299999999999862,17.75462681330621
0.006299999999999972,15.957943462477614
0.00529999999999986,14.175407224647667
0.0042999999999999705,12.384382719018532
0.0032999999999998586,10.596187635989125
0.0022999999999999687,8.80799255295972
0.0012999999999998568,7.019797469930312
0.00029999999999996696,5.275458437196722
-0.000700000000000145,3.5311194044631313
-0.0017000000000000348,1.8292217107254924
-0.0027000000000001467,0.12863969849672777
-0.0037000000000000366,-1.5293029151541047
-0.0047000000000001485,-3.2297858975918787
-0.005700000000000038,-4.887827541033701
-0.00670000000000015,-6.588310523471475
-0.00770000000000004,-8.246352166913299
-0.008700000000000152,-9.946835149351072
-0.009700000000000042,-11.691174182084664
-0.010700000000000154,-13.3930718758223
-0.011700000000000044,-15.094969569559943
-0.012700000000000156,-16.750181790402035
-0.013700000000000045,-18.362952672248177
-0.014700000000000157,-19.97572355409432
-0.015700000000000047,-21.54605309694451
-0.01670000000000016,-23.1163826397947
-0.01770000000000005,-24.686712182644893
-0.01870000000000016,-26.21460038649913
-0.01970000000000005,-27.78492992934932
-0.020700000000000163,-29.27037679420761
-0.021700000000000053,-30.7558236590659
-0.022700000000000164,-32.184682071929586
-0.023700000000000054,-33.670128936787876
-0.024700000000000166,-35.07069312365426
-0.025700000000000056,-36.47125731052064
-0.026700000000000168,-37.85767438438838
-0.027700000000000058,-39.21579723225882
-0.02870000000000017,-40.51733162813464
-0.02970000000000006,-41.91789581500104
-0.03070000000000017,-43.36090134086337
-0.03170000000000006,-44.74731841473111
-0.03270000000000017,-46.2327652795894
-0.03370000000000006,-47.67577080545174
-0.034700000000000175,-49.118776331314066
-0.035700000000000065,-50.68910587416426
-0.03670000000000018,-52.17455273902255
-0.03770000000000007,-53.68829382987814
-0.03870000000000018,-55.21618203373238
-0.03970000000000007,-56.70162889859067
-0.04070000000000018,-58.22951710244491
-0.04170000000000007,-59.7149639673032
-0.04270000000000018,-61.242852171157445
-0.04370000000000007,-62.77074037501168
-0.044700000000000184,-64.25618723986996
-0.045700000000000074,-65.7274869917296
-0.046700000000000186,-67.21293385658788
-0.047700000000000076,-68.65593938245023
-0.04870000000000019,-70.01406223032066
-0.04970000000000008,-71.27315528720055
-0.05070000000000019,-72.53224834408043
-0.05170000000000008,-73.72060583596706
-0.05270000000000019,-74.8523748758591
-0.05370000000000008,-75.98414391575112
-0.05470000000000019,-77.1583542946391
-0.05570000000000008,-78.29012333453113
-0.056700000000000195,-79.47848082641775
-0.057700000000000085,-80.61024986630979
-0.058700000000000196,-81.69957756720586
-0.059700000000000086,-82.8313466070979
-0.0607000000000002,-83.92067430799398
-0.06170000000000009,-85.01000200889004
-0.0627000000000002,-86.09932970978613
-0.06370000000000009,-87.18865741068221
-0.0647000000000002,-88.27798511157829
-0.06570000000000009,-89.46634260346492
-0.0667000000000002,-90.68299432134886
-0.0677000000000001,-91.94208737822873
-0.0687000000000002,-93.21532754810727
-0.0697000000000001,-94.47442060498715
-0.07070000000000021,-95.74766077486568
-0.0717000000000001,-97.09163650973747
-0.07270000000000021,-98.49220069660386
-0.0737000000000001,-99.87861777047159
-0.07470000000000021,-101.27918195733798
-0.0757000000000001,-102.72218748320032
-0.07670000000000021,-104.2076343480586
-0.0777000000000001,-105.73552255191284
-0.07870000000000021,-107.26341075576708
-0.0797000000000001,-108.77715184662266
-0.08070000000000022,-110.3050400504769
-0.0817000000000001,-111.74804557633925
-0.08270000000000022,-113.14860976320564
-0.08370000000000011,-114.53502683707337
-0.08470000000000022,-115.85070834594785
-0.08570000000000011,-117.10980140282774
-0.08670000000000022,-118.3406002337103
-0.08770000000000011,-119.51481061259831
-0.08870000000000022,-120.68902099148629
-0.08970000000000011,-121.77834869238235
-0.09070000000000022,-122.86767639327843
-0.09170000000000011,-123.99944543317046
-0.09270000000000023,-125.10292024706521
-0.09370000000000012,-126.14980660896532
-0.09470000000000023,-127.09766317987489
-0.09570000000000012,-128.01722552478716
-0.09670000000000023,-128.89434653070347
-0.09770000000000012,-129.75732042362114
-0.09870000000000023,-130.63444142953747
-0.09970000000000012,-131.5115624354538
-0.10070000000000023,-132.37453632837148
-0.10170000000000012,-133.37898135127566
-0.10270000000000024,-134.46830905217172
-0.10370000000000013,-135.5576367530678
-0.10470000000000024,-136.74599424495443
-0.10570000000000013,-137.92020462384244
-0.10670000000000024,-139.1792976807223
-0.10770000000000013,-140.53742052859275
-0.10870000000000024,-141.89554337646317
-0.10970000000000013,-143.3102546763282
-0.11070000000000024,-144.72496597619326
-0.11170000000000013,-146.1396772760583
-0.11270000000000002,-147.4129174459368
-0.11370000000000013,-148.82762874580186
-0.11470000000000002,-150.24234004566688
-0.11570000000000014,-151.5155802155454
-0.11670000000000003,-152.78882038542397
-0.11770000000000014,-153.920589425316
-0.11870000000000003,-154.9108873352215
-0.11970000000000014,-156.04265637511355
-0.12070000000000003,-157.03295428501906
-0.12170000000000014,-157.88178106493808
-0.12270000000000003,-158.87207897484362
-0.12370000000000014,-159.72090575476264
-0.12470000000000003,-160.5697325346817
-0.12570000000000014,-161.41855931460069
-0.12670000000000003,-162.40885722450622
-0.12770000000000015,-163.39915513441173
-0.12870000000000004,-164.38945304431726
-0.12970000000000015,-165.5212220842093
-0.13070000000000004,-166.79446225408785
-0.13170000000000015,-168.06770242396635
-0.13270000000000004,-169.19947146385837
-0.13370000000000015,-170.33124050375042
-0.13470000000000004,-171.46300954364247
-0.13570000000000015,-172.59477858353446
-0.13670000000000004,-173.86801875341303
-0.13770000000000016,-175.14125892329156
-0.13870000000000005,-176.55597022315658
-0.13970000000000016,-177.9706815230216
-0.14070000000000005,-179.38539282288664
-0.14170000000000016,-180.94157525273818
-0.14270000000000005,-182.49775768258974
-0.14370000000000016,-184.05394011244127
-0.14470000000000005,-185.6101225422928
-0.14570000000000016,-186.88336271217133
-0.14670000000000005,-188.29807401203638
-0.14770000000000016,-189.57131418191491
-0.14870000000000005,-190.98602548177996
-0.14970000000000017,-192.54220791163152
-0.15070000000000006,-194.2398614714695
-0.15170000000000017,-195.79604390132107
-0.15270000000000006,-197.21075520118612
-0.15370000000000017,-198.62546650105114
-0.15470000000000006,-200.04017780091618
-0.15570000000000017,-201.31341797079472
-0.15670000000000006,-202.58665814067325
-0.15770000000000017,-203.57695605057876
-0.15870000000000006,-204.42578283049778
-0.15970000000000018,-205.13313848043032
-0.16070000000000007,-205.69902300037634
-0.16170000000000018,-206.12343639033585
-0.16270000000000007,-206.54784978029537
-0.16370000000000018,-206.83079204026836
-0.16470000000000007,-206.97226317025488
-0.16570000000000018,-207.1137343002414
-0.16670000000000007,-207.3966765602144
-0.16770000000000018,-207.5381476902009
-0.16870000000000007,-207.8210899501739
-0.16970000000000018,-208.1040322101469
-0.17070000000000007,-208.52844560010638
-0.17170000000000019,-209.0943301200524
-0.17270000000000008,-209.66021463999843
-0.1737000000000002,-210.50904141991748
-0.17470000000000008,-211.21639706985
-0.1757000000000002,-212.065223849769
-0.17670000000000008,-213.19699288966103
-0.1777000000000002,-214.47023305953954
-0.17870000000000008,-215.88494435940459
-0.1797000000000002,-217.58259791924263
-0.18070000000000008,-219.5631937390537
-0.1817000000000002,-221.68526068885126
-0.18270000000000008,-223.9487987686353
-0.1837000000000002,-226.21233684841937
-0.1847000000000001,-228.33440379821695
-0.1857000000000002,-230.45647074801445
-0.1867000000000001,-232.57853769781204
-0.1877000000000002,-234.4176623876366
-0.1887000000000001,-236.25678707746113
-0.1897000000000002,-237.9544406372992
-0.1907000000000001,-239.5106230671507
-0.1917000000000001,-240.92533436701575
-0.19269999999999998,-242.19857453689428
-0.1937000000000001,-243.3303435767863
-0.19469999999999998,-244.32064148669184
-0.1957000000000001,-245.45241052658386
-0.19669999999999999,-246.30123730650286
-0.1977000000000001,-247.0085929564354
-0.1987,-247.1500640864219
-0.1997000000000001,-246.5841795664759
-0.2007,-245.45241052658386
-0.2017000000000001,-244.17917035670533
-0.2027,-243.04740131681334
-0.2037000000000001,-241.9156322769213
-0.2047,-241.20827662698875
-0.2057000000000001,-240.92533436701575
-0.2067,-240.92533436701575
-0.2077000000000001,-241.20827662698875
-0.2087,-242.19857453689428
-0.2097000000000001,-243.8962280967323
-0.2107,-246.7256506964624
-0.2117000000000001,-250.1209578161385
-0.2127,-254.08214945576057
-0.2137000000000001,-258.4677544853422
-0.2147,-263.41924403486985
-0.2157000000000001,-268.65367584437047
-0.2167,-273.60516539389806
-0.21770000000000012,-278.4151838134392
-0.2187,-282.65931771303434
-0.21970000000000012,-286.47903822266994
-0.2207,-289.87434534234603
-0.22170000000000012,-292.70376794207607
-0.2227,-295.10877715184665
-0.22370000000000012,-296.94790184167124
-0.2247,-298.2211420115498
-0.22570000000000012,-299.2114399214552
-0.2267,-299.91879557138776
-0.22770000000000012,-300.6261512213203
-0.22870000000000001,-301.33350687125284
-0.22970000000000013,-301.6164491312258
-0.23070000000000002,-301.7579202612123
-0.23170000000000013,-301.6164491312258
-0.23270000000000002,-301.33350687125284
-0.23370000000000013,-300.9090934812933
-0.23470000000000002,-300.3432089613473
-0.23570000000000013,-299.3529110514418
-0.23670000000000002,-297.79672862159026
-0.2376999999999999,-295.67466167179265
-0.23870000000000002,-292.8452390720626
-0.2396999999999999,-289.73287421235955
-0.24070000000000003,-286.33756709268346
-0.24169999999999991,-283.08373110299385
-0.24270000000000003,-280.11283737327733
-0.24369999999999992,-277.84929929349323
-0.24470000000000003,-276.29311686364167
-0.24569999999999992,-275.7272323436957
-0.24670000000000003,-276.29311686364167
-0.24769999999999992,-277.7078281635067
-0.24870000000000003,-280.11283737327733
-0.24969999999999992,-283.22520223298034
-0.25070000000000003,-287.1863938726024
-0.2516999999999999,-291.4305277721976
-0.25270000000000004,-296.2405461917387
-0.2536999999999999,-301.47497800123926
-0.25470000000000004,-306.56793868075346
-0.2556999999999999,-311.5194282302811
-0.25670000000000004,-316.1879755198357
-0.25769999999999993,-320.1491671594578
-0.25870000000000004,-323.68594540912045
-0.25969999999999993,-326.373896878864
-0.26070000000000004,-328.4959638286615
-0.26169999999999993,-329.76920399854004
-0.26270000000000004,-330.4765596484726
-0.26369999999999993,-330.9009730384321
-0.26470000000000005,-331.0424441684186
-0.26569999999999994,-331.0424441684186
-0.26670000000000005,-330.9009730384321
-0.26769999999999994,-330.7595019084456
-0.26870000000000005,-330.618030778459
-0.26969999999999994,-330.19361738849955
-0.27070000000000005,-329.62773286855355
-0.27169999999999994,-328.92037721862107
-0.27270000000000005,-328.071550438702
-0.27369999999999994,-327.3641947887695
-0.27470000000000006,-326.51536800885043
-0.27569999999999995,-325.6665412289314
-0.27670000000000006,-324.81771444901244
-0.27769999999999995,-324.1103587990799
-0.27870000000000006,-324.1103587990799
-0.27969999999999995,-324.67624331902596
-0.28070000000000006,-325.94948348890443
-0.28169999999999995,-327.6471370487425
-0.28270000000000006,-329.76920399854004
-0.28369999999999995,-332.3156843382971
-0.28470000000000006,-335.1451069380272
-0.28569999999999995,-338.5404140577033
-0.28670000000000007,-342.21866343735235
-0.28769999999999996,-346.1798550769745
-0.28870000000000007,-350.1410467165966
-0.28969999999999996,-353.96076722623224
-0.29070000000000007,-357.63901660588124
-0.29169999999999996,-360.75138146558436
-0.29270000000000007,-363.4393329353279
-0.29369999999999996,-365.702871015112
-0.2947000000000001,-367.2590534449635
-0.29569999999999996,-368.2493513548691
-0.2967000000000001,-368.95670700480156
-0.29769999999999996,-369.5225915247476
-0.2987000000000001,-369.8055337847206
-0.29969999999999997,-369.8055337847206
-0.3007000000000001,-369.8055337847206
-0.30169999999999997,-369.5225915247476
-0.3027000000000001,-369.2396492647746
-0.30369999999999997,-368.95670700480156
-0.3047000000000001,-368.67376474482853
-0.30569999999999997,-368.39082248485556
-0.3067000000000001,-367.8249379649095
-0.3077,-367.117582314977
-0.3087000000000001,-366.268755535058
-0.3097,-365.419928755139
-0.3107000000000001,-364.7125731052065
-0.3117,-364.14668858526045
-0.3127000000000001,-363.58080406531445
-0.3137,-363.4393329353279
-0.3147000000000001,-363.58080406531445
-0.3157,-364.28815971524693
-0.3167000000000001,-365.419928755139
-0.3177,-367.117582314977
-0.3187000000000001,-368.95670700480156
-0.3197,-371.2202450845856
-0.3207000000000001,-373.90819655432915
-0.3217,-376.7376191540593
-0.3227000000000001,-379.7085128837758
-0.3237,-382.96234887346543
-0.3247000000000001,-385.933242603182
-0.3257,-388.6211940729256
-0.3267000000000001,-391.16767441268263
-0.3277,-393.4312124924667
-0.3287000000000001,-395.41180831227774
-0.3297,-396.82651961214276
-0.3307000000000001,-397.9582886520348
-0.3317,-398.66564430196735
-0.3327000000000001,-399.09005769192686
-0.3337,-399.51447108188637
-0.3347000000000001,-399.79741334185934
-0.3357,-400.08035560183237
-0.3367000000000001,-400.5047689917919
-0.3377,-400.78771125176496
-0.3387000000000001,-401.07065351173793
-0.3397,-400.9291823817514
-0.3407000000000001,-400.5047689917919
-0.3417,-399.79741334185934
-0.3427000000000001,-398.80711543195383
-0.3437,-397.67534639206184
-0.3447000000000001,-396.5435773521698
-0.3457,-395.9776928322238
-0.3467000000000001,-395.83622170223725
-0.3477,-395.83622170223725
-0.3487000000000001,-396.40210622218325
-0.3497,-397.3924041320888
-0.3507000000000001,-398.9485865619403
-0.3517,-401.2121246417244
-0.3527000000000001,-404.183018371441
-0.3537,-407.578325491117
-0.3547000000000001,-411.25657487076614
-0.3557,-415.0762953804018
-0.35670000000000013,-419.03748702002383
-0.3577,-423.14014978963246
-0.35870000000000013,-427.1013414292546
-0.3597,-430.7795908089037
-0.36070000000000013,-433.75048453862024
-0.3617,-436.01402261840434
-0.3626999999999999,-437.8531473082288
-0.3637,-438.98491634812086
-0.3646999999999999,-439.8337431280399
-0.3657,-440.2581565179994
-0.3666999999999999,-440.39962764798594
-0.3677,-440.2581565179994
-0.3686999999999999,-440.1166853880129
-0.36970000000000003,-439.8337431280399
-0.3706999999999999,-439.26785860809395
-0.37170000000000003,-438.41903182817487
-0.3726999999999999,-437.2872627882828
-0.37370000000000003,-436.1554937483908
-0.3746999999999999,-434.8822535785123
-0.37570000000000003,-433.6090134086337
-0.3766999999999999,-432.3357732387552
-0.37770000000000004,-431.0625330688767
-0.3786999999999999,-430.21370628895767
-0.37970000000000004,-429.78929289899816
-0.3806999999999999,-429.93076402898464
-0.38170000000000004,-430.49664854893064
-0.38269999999999993,-431.4869464588362
-0.38370000000000004,-432.9016577587012
-0.38469999999999993,-434.74078244852575
-0.38570000000000004,-437.00432052830985
-0.38669999999999993,-438.2775606981883
-0.38570000000000004,-437.4287339182693
-0.38469999999999993,-436.8628493983233
-0.38370000000000004,-436.2969648783773
-0.38269999999999993,-435.7310803584313
-0.38170000000000004,-435.0237247084988
-0.3806999999999999,-434.3163690585663
-0.37970000000000004,-433.32607114866073
-0.3786999999999999,-432.0528309787822
-0.37770000000000004,-430.0722351589711
-0.3766999999999999,-427.6672259492006
-0.37570000000000003,-424.8378033494705
-0.3746999999999999,-421.8669096197539
-0.37370000000000003,-418.6130736300644
-0.3726999999999999,-414.9348242504152
-0.37170000000000003,-410.9736326107932
-0.3706999999999999,-407.0124409711711
-0.36970000000000003,-403.1927204615355
-0.3686999999999999,-399.3729999518999
-0.3677,-395.41180831227774
-0.3666999999999999,-391.4506166726556
-0.3657,-387.347953903047
-0.3646999999999999,-383.103820003452
-0.3637,-378.85968610385686
-0.3626999999999999,-374.61555220426175
-0.3617,-370.5128894346531
-0.36070000000000013,-366.551697795031
-0.3597,-363.0149195453684
-0.35870000000000013,-359.90255468566534
-0.3577,-357.35607434590827
-0.35670000000000013,-355.2340073961107
-0.3557,-353.3948827062862
-0.3547000000000001,-351.9801714064211
-0.3537,-350.98987349651554
-0.3527000000000001,-350.1410467165966
-0.3517,-349.5751621966506
-0.3507000000000001,-349.0092776767046
-0.3497,-348.44339315675853
-0.3487000000000001,-347.87750863681254
-0.3477,-346.88721072690697
-0.3467000000000001,-345.6139705570285
-0.3457,-344.34073038714996
-0.3447000000000001,-342.92601908728494
-0.3437,-341.3698366574333
-0.3427000000000001,-339.5307119676088
-0.3417,-337.5501161477977
-0.3407000000000001,-335.1451069380272
-0.3397,-332.7400977282566
-0.3387000000000001,-330.19361738849955
-0.3377,-327.6471370487425
-0.3367000000000001,-324.81771444901244
-0.3357,-321.8468207192958
-0.3347000000000001,-318.59298472960626
-0.3337,-315.19767760993017
-0.3327000000000001,-311.80237049025413
-0.3317,-308.124121110605
-0.3307000000000001,-304.1629294709828
-0.3297,-300.2017378313608
-0.3287000000000001,-296.2405461917387
-0.3277,-292.4208256821031
-0.3267000000000001,-288.742576302454
-0.3257,-285.2057980527914
-0.3247000000000001,-282.09343319308834
-0.3237,-279.1225394633717
-0.3227000000000001,-276.5760591236147
-0.3217,-274.31252104383066
-0.3207000000000001,-272.47339635400607
-0.3197,-270.9172139241545
-0.3187000000000001,-269.361031494303
-0.3177,-268.0877913244245
-0.3167000000000001,-266.8145511545459
-0.3157,-265.6827821146539
-0.3147000000000001,-264.55101307476184
-0.3137,-263.56071516485633
-0.3127000000000001,-262.42894612496434
-0.3117,-261.2971770850723
-0.3107000000000001,-260.16540804518024
-0.3097,-258.8921678753017
-0.3087000000000001,-257.6189277054232
-0.3077,-256.0627452755717
-0.3067000000000001,-254.2236205857471
-0.30569999999999997,-252.38449589592256
-0.3047000000000001,-250.262428946125
-0.30369999999999997,-247.99889086634093
-0.3027000000000001,-245.59388165657037
-0.30169999999999997,-243.18887244679982
-0.3007000000000001,-240.50092097705624
-0.29969999999999997,-237.81296950731266
-0.2987000000000001,-235.12501803756908
-0.29769999999999996,-232.29559543783904
-0.2967000000000001,-229.46617283810895
-0.29569999999999996,-226.63675023837888
-0.2947000000000001,-223.6658565086623
-0.29369999999999996,-220.6949627789457
-0.29270000000000007,-217.86554017921566
-0.29169999999999996,-214.89464644949908
-0.29070000000000007,-212.065223849769
-0.28969999999999996,-209.0943301200524
-0.28870000000000007,-206.26490752032234
-0.28769999999999996,-203.57695605057876
-0.28670000000000007,-200.88900458083523
-0.28569999999999995,-198.48399537106465
-0.28470000000000006,-196.2204572912806
-0.28369999999999995,-194.38133260145605
-0.28270000000000006,-192.54220791163152
-0.28169999999999995,-190.84455435179345
-0.28070000000000006,-189.57131418191491
-0.27969999999999995,-188.29807401203638
-0.27870000000000006,-187.16630497214436
-0.27769999999999995,-185.89306480226583
-0.27670000000000006,-184.6198246323873
-0.27569999999999995,-183.34658446250873
-0.27470000000000006,-181.79040203265723
-0.27369999999999994,-180.37569073279218
-0.27270000000000005,-178.67803717295413
-0.27169999999999994,-176.8389124831296
-0.27070000000000005,-174.85831666331853
-0.26969999999999994,-172.73624971352098
-0.26870000000000005,-170.47271163373694
-0.26769999999999994,-168.06770242396635
-0.26670000000000005,-165.5212220842093
