Apr. 4, 2025   10:40:08
Cyclic Voltammetry
File: c:/users/guazh/data/banditlqround7_x0exp994_r5/2025-03-28-exp979\exp979-2025-04-04t10_32_41-h2koh\exp979_cv_sr_500mvs_efin_-1400mv.bin
Data Source:  Experiment
Instrument Model:  CHI760E
Header: CV ran at 500 mVs
Note: 

Init E (V) = -1
High E (V) = -1
Low E (V) = -1.4
Final E (V) = -1
Init P/N = N
Scan Rate (V/s) = 0.5
Segment = 3
Sample Interval (V) = 0.001
Quiet Time (sec) = 2
Sensitivity (A/V) = 0.01
Comp R (ohm) = 2.0

Results:

Channel 1:
Segment 1:

Segment 2:

Segment 3:

Potential/V, Current/A

-1.000, -2.405e-3
-1.001, -2.266e-3
-1.002, -2.140e-3
-1.003, -2.022e-3
-1.004, -1.914e-3
-1.005, -1.807e-3
-1.006, -1.699e-3
-1.007, -1.591e-3
-1.008, -1.480e-3
-1.009, -1.366e-3
-1.010, -1.245e-3
-1.011, -1.119e-3
-1.012, -9.926e-4
-1.013, -8.693e-4
-1.014, -7.460e-4
-1.015, -6.257e-4
-1.016, -5.055e-4
-1.017, -3.852e-4
-1.018, -2.681e-4
-1.019, -1.448e-4
-1.020, -2.451e-5
-1.021, 9.265e-5
-1.022, 2.067e-4
-1.023, 3.146e-4
-1.024, 4.256e-4
-1.025, 5.335e-4
-1.026, 6.414e-4
-1.027, 7.555e-4
-1.028, 8.727e-4
-1.029, 9.868e-4
-1.030, 1.098e-3
-1.031, 1.203e-3
-1.032, 1.301e-3
-1.033, 1.397e-3
-1.034, 1.495e-3
-1.035, 1.594e-3
-1.036, 1.696e-3
-1.037, 1.798e-3
-1.038, 1.906e-3
-1.039, 2.007e-3
-1.040, 2.103e-3
-1.041, 2.198e-3
-1.042, 2.288e-3
-1.043, 2.383e-3
-1.044, 2.485e-3
-1.045, 2.587e-3
-1.046, 2.692e-3
-1.047, 2.790e-3
-1.048, 2.886e-3
-1.049, 2.978e-3
-1.050, 3.065e-3
-1.051, 3.154e-3
-1.052, 3.250e-3
-1.053, 3.345e-3
-1.054, 3.438e-3
-1.055, 3.527e-3
-1.056, 3.614e-3
-1.057, 3.697e-3
-1.058, 3.777e-3
-1.059, 3.863e-3
-1.060, 3.953e-3
-1.061, 4.051e-3
-1.062, 4.153e-3
-1.063, 4.252e-3
-1.064, 4.350e-3
-1.065, 4.440e-3
-1.066, 4.523e-3
-1.067, 4.603e-3
-1.068, 4.693e-3
-1.069, 4.785e-3
-1.070, 4.887e-3
-1.071, 4.982e-3
-1.072, 5.078e-3
-1.073, 5.167e-3
-1.074, 5.251e-3
-1.075, 5.325e-3
-1.076, 5.396e-3
-1.077, 5.470e-3
-1.078, 5.550e-3
-1.079, 5.630e-3
-1.080, 5.710e-3
-1.081, 5.787e-3
-1.082, 5.861e-3
-1.083, 5.926e-3
-1.084, 5.988e-3
-1.085, 6.052e-3
-1.086, 6.120e-3
-1.087, 6.188e-3
-1.088, 6.259e-3
-1.089, 6.333e-3
-1.090, 6.416e-3
-1.091, 6.499e-3
-1.092, 6.589e-3
-1.093, 6.684e-3
-1.094, 6.780e-3
-1.095, 6.885e-3
-1.096, 6.986e-3
-1.097, 7.085e-3
-1.098, 7.181e-3
-1.099, 7.267e-3
-1.100, 7.344e-3
-1.101, 7.418e-3
-1.102, 7.492e-3
-1.103, 7.563e-3
-1.104, 7.631e-3
-1.105, 7.693e-3
-1.106, 7.742e-3
-1.107, 7.791e-3
-1.108, 7.841e-3
-1.109, 7.893e-3
-1.110, 7.951e-3
-1.111, 8.022e-3
-1.112, 8.106e-3
-1.113, 8.192e-3
-1.114, 8.278e-3
-1.115, 8.374e-3
-1.116, 8.469e-3
-1.117, 8.568e-3
-1.118, 8.682e-3
-1.119, 8.796e-3
-1.120, 8.913e-3
-1.121, 9.021e-3
-1.122, 9.111e-3
-1.123, 9.191e-3
-1.124, 9.265e-3
-1.125, 9.327e-3
-1.126, 9.385e-3
-1.127, 9.444e-3
-1.128, 9.499e-3
-1.129, 9.549e-3
-1.130, 9.586e-3
-1.131, 9.632e-3
-1.132, 9.697e-3
-1.133, 9.771e-3
-1.134, 9.863e-3
-1.135, 9.965e-3
-1.136, 1.008e-2
-1.137, 1.020e-2
-1.138, 1.031e-2
-1.139, 1.041e-2
-1.140, 1.050e-2
-1.141, 1.058e-2
-1.142, 1.067e-2
-1.143, 1.077e-2
-1.144, 1.086e-2
-1.145, 1.095e-2
-1.146, 1.102e-2
-1.147, 1.109e-2
-1.148, 1.113e-2
-1.149, 1.115e-2
-1.150, 1.117e-2
-1.151, 1.119e-2
-1.152, 1.123e-2
-1.153, 1.128e-2
-1.154, 1.136e-2
-1.155, 1.145e-2
-1.156, 1.156e-2
-1.157, 1.165e-2
-1.158, 1.173e-2
-1.159, 1.181e-2
-1.160, 1.187e-2
-1.161, 1.193e-2
-1.162, 1.197e-2
-1.163, 1.202e-2
-1.164, 1.206e-2
-1.165, 1.210e-2
-1.166, 1.216e-2
-1.167, 1.222e-2
-1.168, 1.229e-2
-1.169, 1.237e-2
-1.170, 1.246e-2
-1.171, 1.255e-2
-1.172, 1.263e-2
-1.173, 1.271e-2
-1.174, 1.280e-2
-1.175, 1.288e-2
-1.176, 1.298e-2
-1.177, 1.309e-2
-1.178, 1.322e-2
-1.179, 1.336e-2
-1.180, 1.347e-2
-1.181, 1.357e-2
-1.182, 1.366e-2
-1.183, 1.374e-2
-1.184, 1.381e-2
-1.185, 1.387e-2
-1.186, 1.391e-2
-1.187, 1.395e-2
-1.188, 1.398e-2
-1.189, 1.402e-2
-1.190, 1.406e-2
-1.191, 1.410e-2
-1.192, 1.416e-2
-1.193, 1.423e-2
-1.194, 1.430e-2
-1.195, 1.438e-2
-1.196, 1.447e-2
-1.197, 1.457e-2
-1.198, 1.467e-2
-1.199, 1.476e-2
-1.200, 1.484e-2
-1.201, 1.493e-2
-1.202, 1.501e-2
-1.203, 1.509e-2
-1.204, 1.517e-2
-1.205, 1.524e-2
-1.206, 1.532e-2
-1.207, 1.539e-2
-1.208, 1.547e-2
-1.209, 1.553e-2
-1.210, 1.560e-2
-1.211, 1.567e-2
-1.212, 1.573e-2
-1.213, 1.579e-2
-1.214, 1.584e-2
-1.215, 1.588e-2
-1.216, 1.593e-2
-1.217, 1.599e-2
-1.218, 1.607e-2
-1.219, 1.617e-2
-1.220, 1.628e-2
-1.221, 1.641e-2
-1.222, 1.652e-2
-1.223, 1.662e-2
-1.224, 1.670e-2
-1.225, 1.677e-2
-1.226, 1.684e-2
-1.227, 1.691e-2
-1.228, 1.699e-2
-1.229, 1.707e-2
-1.230, 1.716e-2
-1.231, 1.724e-2
-1.232, 1.729e-2
-1.233, 1.734e-2
-1.234, 1.740e-2
-1.235, 1.747e-2
-1.236, 1.755e-2
-1.237, 1.762e-2
-1.238, 1.771e-2
-1.239, 1.779e-2
-1.240, 1.787e-2
-1.241, 1.794e-2
-1.242, 1.802e-2
-1.243, 1.811e-2
-1.244, 1.819e-2
-1.245, 1.826e-2
-1.246, 1.834e-2
-1.247, 1.843e-2
-1.248, 1.850e-2
-1.249, 1.858e-2
-1.250, 1.864e-2
-1.251, 1.871e-2
-1.252, 1.877e-2
-1.253, 1.884e-2
-1.254, 1.892e-2
-1.255, 1.900e-2
-1.256, 1.906e-2
-1.257, 1.912e-2
-1.258, 1.916e-2
-1.259, 1.920e-2
-1.260, 1.924e-2
-1.261, 1.930e-2
-1.262, 1.936e-2
-1.263, 1.943e-2
-1.264, 1.951e-2
-1.265, 1.958e-2
-1.266, 1.966e-2
-1.267, 1.975e-2
-1.268, 1.985e-2
-1.269, 1.995e-2
-1.270, 2.006e-2
-1.271, 2.016e-2
-1.272, 2.024e-2
-1.273, 2.030e-2
-1.274, 2.033e-2
-1.275, 2.035e-2
-1.276, 2.034e-2
-1.277, 2.033e-2
-1.278, 2.034e-2
-1.279, 2.035e-2
-1.280, 2.038e-2
-1.281, 2.042e-2
-1.282, 2.048e-2
-1.283, 2.055e-2
-1.284, 2.064e-2
-1.285, 2.074e-2
-1.286, 2.084e-2
-1.287, 2.094e-2
-1.288, 2.105e-2
-1.289, 2.116e-2
-1.290, 2.128e-2
-1.291, 2.142e-2
-1.292, 2.157e-2
-1.293, 2.171e-2
-1.294, 2.185e-2
-1.295, 2.197e-2
-1.296, 2.208e-2
-1.297, 2.219e-2
-1.298, 2.230e-2
-1.299, 2.241e-2
-1.300, 2.253e-2
-1.301, 2.263e-2
-1.302, 2.273e-2
-1.303, 2.283e-2
-1.304, 2.294e-2
-1.305, 2.302e-2
-1.306, 2.310e-2
-1.307, 2.317e-2
-1.308, 2.325e-2
-1.309, 2.332e-2
-1.310, 2.339e-2
-1.311, 2.344e-2
-1.312, 2.349e-2
-1.313, 2.353e-2
-1.314, 2.356e-2
-1.315, 2.359e-2
-1.316, 2.364e-2
-1.317, 2.372e-2
-1.318, 2.381e-2
-1.319, 2.389e-2
-1.320, 2.393e-2
-1.321, 2.395e-2
-1.322, 2.394e-2
-1.323, 2.391e-2
-1.324, 2.385e-2
-1.325, 2.381e-2
-1.326, 2.380e-2
-1.327, 2.381e-2
-1.328, 2.385e-2
-1.329, 2.392e-2
-1.330, 2.403e-2
-1.331, 2.417e-2
-1.332, 2.430e-2
-1.333, 2.444e-2
-1.334, 2.458e-2
-1.335, 2.470e-2
-1.336, 2.478e-2
-1.337, 2.485e-2
-1.338, 2.492e-2
-1.339, 2.499e-2
-1.340, 2.505e-2
-1.341, 2.509e-2
-1.342, 2.512e-2
-1.343, 2.515e-2
-1.344, 2.517e-2
-1.345, 2.519e-2
-1.346, 2.522e-2
-1.347, 2.527e-2
-1.348, 2.532e-2
-1.349, 2.537e-2
-1.350, 2.540e-2
-1.351, 2.546e-2
-1.352, 2.554e-2
-1.353, 2.564e-2
-1.354, 2.577e-2
-1.355, 2.593e-2
-1.356, 2.611e-2
-1.357, 2.629e-2
-1.358, 2.645e-2
-1.359, 2.662e-2
-1.360, 2.678e-2
-1.361, 2.693e-2
-1.362, 2.707e-2
-1.363, 2.718e-2
-1.364, 2.729e-2
-1.365, 2.737e-2
-1.366, 2.741e-2
-1.367, 2.742e-2
-1.368, 2.742e-2
-1.369, 2.743e-2
-1.370, 2.746e-2
-1.371, 2.750e-2
-1.372, 2.756e-2
-1.373, 2.762e-2
-1.374, 2.765e-2
-1.375, 2.767e-2
-1.376, 2.768e-2
-1.377, 2.768e-2
-1.378, 2.768e-2
-1.379, 2.770e-2
-1.380, 2.774e-2
-1.381, 2.782e-2
-1.382, 2.791e-2
-1.383, 2.800e-2
-1.384, 2.808e-2
-1.385, 2.820e-2
-1.386, 2.835e-2
-1.387, 2.849e-2
-1.388, 2.863e-2
-1.389, 2.876e-2
-1.390, 2.886e-2
-1.391, 2.894e-2
-1.392, 2.898e-2
-1.393, 2.900e-2
-1.394, 2.901e-2
-1.395, 2.902e-2
-1.396, 2.905e-2
-1.397, 2.908e-2
-1.398, 2.911e-2
-1.399, 2.913e-2
-1.400, 2.904e-2
-1.399, 2.877e-2
-1.398, 2.851e-2
-1.397, 2.828e-2
-1.396, 2.807e-2
-1.395, 2.787e-2
-1.394, 2.771e-2
-1.393, 2.756e-2
-1.392, 2.740e-2
-1.391, 2.724e-2
-1.390, 2.707e-2
-1.389, 2.690e-2
-1.388, 2.673e-2
-1.387, 2.654e-2
-1.386, 2.635e-2
-1.385, 2.614e-2
-1.384, 2.591e-2
-1.383, 2.567e-2
-1.382, 2.542e-2
-1.381, 2.519e-2
-1.380, 2.495e-2
-1.379, 2.473e-2
-1.378, 2.452e-2
-1.377, 2.435e-2
-1.376, 2.420e-2
-1.375, 2.404e-2
-1.374, 2.388e-2
-1.373, 2.371e-2
-1.372, 2.353e-2
-1.371, 2.336e-2
-1.370, 2.320e-2
-1.369, 2.304e-2
-1.368, 2.289e-2
-1.367, 2.274e-2
-1.366, 2.260e-2
-1.365, 2.245e-2
-1.364, 2.229e-2
-1.363, 2.215e-2
-1.362, 2.200e-2
-1.361, 2.183e-2
-1.360, 2.165e-2
-1.359, 2.147e-2
-1.358, 2.129e-2
-1.357, 2.109e-2
-1.356, 2.089e-2
-1.355, 2.069e-2
-1.354, 2.048e-2
-1.353, 2.027e-2
-1.352, 2.006e-2
-1.351, 1.986e-2
-1.350, 1.966e-2
-1.349, 1.948e-2
-1.348, 1.931e-2
-1.347, 1.915e-2
-1.346, 1.901e-2
-1.345, 1.886e-2
-1.344, 1.873e-2
-1.343, 1.862e-2
-1.342, 1.851e-2
-1.341, 1.840e-2
-1.340, 1.829e-2
-1.339, 1.817e-2
-1.338, 1.803e-2
-1.337, 1.787e-2
-1.336, 1.769e-2
-1.335, 1.751e-2
-1.334, 1.732e-2
-1.333, 1.711e-2
-1.332, 1.687e-2
-1.331, 1.662e-2
-1.330, 1.637e-2
-1.329, 1.610e-2
-1.328, 1.582e-2
-1.327, 1.555e-2
-1.326, 1.531e-2
-1.325, 1.511e-2
-1.324, 1.494e-2
-1.323, 1.481e-2
-1.322, 1.472e-2
-1.321, 1.465e-2
-1.320, 1.459e-2
-1.319, 1.452e-2
-1.318, 1.444e-2
-1.317, 1.436e-2
-1.316, 1.427e-2
-1.315, 1.416e-2
-1.314, 1.402e-2
-1.313, 1.388e-2
-1.312, 1.372e-2
-1.311, 1.354e-2
-1.310, 1.335e-2
-1.309, 1.315e-2
-1.308, 1.294e-2
-1.307, 1.274e-2
-1.306, 1.254e-2
-1.305, 1.234e-2
-1.304, 1.216e-2
-1.303, 1.199e-2
-1.302, 1.184e-2
-1.301, 1.167e-2
-1.300, 1.152e-2
-1.299, 1.139e-2
-1.298, 1.128e-2
-1.297, 1.118e-2
-1.296, 1.110e-2
-1.295, 1.102e-2
-1.294, 1.092e-2
-1.293, 1.082e-2
-1.292, 1.070e-2
-1.291, 1.056e-2
-1.290, 1.041e-2
-1.289, 1.027e-2
-1.288, 1.012e-2
-1.287, 9.959e-3
-1.286, 9.792e-3
-1.285, 9.623e-3
-1.284, 9.441e-3
-1.283, 9.256e-3
-1.282, 9.071e-3
-1.281, 8.883e-3
-1.280, 8.707e-3
-1.279, 8.537e-3
-1.278, 8.374e-3
-1.277, 8.217e-3
-1.276, 8.066e-3
-1.275, 7.918e-3
-1.274, 7.782e-3
-1.273, 7.659e-3
-1.272, 7.554e-3
-1.271, 7.458e-3
-1.270, 7.366e-3
-1.269, 7.261e-3
-1.268, 7.147e-3
-1.267, 7.020e-3
-1.266, 6.882e-3
-1.265, 6.743e-3
-1.264, 6.601e-3
-1.263, 6.459e-3
-1.262, 6.314e-3
-1.261, 6.173e-3
-1.260, 6.028e-3
-1.259, 5.889e-3
-1.258, 5.756e-3
-1.257, 5.627e-3
-1.256, 5.494e-3
-1.255, 5.362e-3
-1.254, 5.229e-3
-1.253, 5.103e-3
-1.252, 4.982e-3
-1.251, 4.865e-3
-1.250, 4.760e-3
-1.249, 4.668e-3
-1.248, 4.582e-3
-1.247, 4.492e-3
-1.246, 4.400e-3
-1.245, 4.301e-3
-1.244, 4.190e-3
-1.243, 4.064e-3
-1.242, 3.928e-3
-1.241, 3.786e-3
-1.240, 3.641e-3
-1.239, 3.493e-3
-1.238, 3.345e-3
-1.237, 3.197e-3
-1.236, 3.046e-3
-1.235, 2.895e-3
-1.234, 2.741e-3
-1.233, 2.593e-3
-1.232, 2.454e-3
-1.231, 2.325e-3
-1.230, 2.205e-3
-1.229, 2.094e-3
-1.228, 1.992e-3
-1.227, 1.896e-3
-1.226, 1.798e-3
-1.225, 1.702e-3
-1.224, 1.606e-3
-1.223, 1.511e-3
-1.222, 1.412e-3
-1.221, 1.307e-3
-1.220, 1.199e-3
-1.219, 1.088e-3
-1.218, 9.713e-4
-1.217, 8.511e-4
-1.216, 7.278e-4
-1.215, 6.044e-4
-1.214, 4.873e-4
-1.213, 3.701e-4
-1.212, 2.561e-4
-1.211, 1.420e-4
-1.210, 2.174e-5
-1.209, -9.542e-5
-1.208, -2.095e-4
-1.207, -3.205e-4
-1.206, -4.284e-4
-1.205, -5.332e-4
-1.204, -6.350e-4
-1.203, -7.398e-4
-1.202, -8.446e-4
-1.201, -9.556e-4
-1.200, -1.067e-3
-1.199, -1.175e-3
-1.198, -1.282e-3
-1.197, -1.384e-3
-1.196, -1.489e-3
-1.195, -1.591e-3
-1.194, -1.696e-3
-1.193, -1.803e-3
-1.192, -1.908e-3
-1.191, -2.016e-3
-1.190, -2.118e-3
-1.189, -2.217e-3
-1.188, -2.315e-3
-1.187, -2.411e-3
-1.186, -2.506e-3
-1.185, -2.608e-3
-1.184, -2.710e-3
-1.183, -2.812e-3
-1.182, -2.913e-3
-1.181, -3.012e-3
-1.180, -3.111e-3
-1.179, -3.209e-3
-1.178, -3.305e-3
-1.177, -3.407e-3
-1.176, -3.512e-3
-1.175, -3.610e-3
-1.174, -3.709e-3
-1.173, -3.804e-3
-1.172, -3.894e-3
-1.171, -3.983e-3
-1.170, -4.066e-3
-1.169, -4.153e-3
-1.168, -4.242e-3
-1.167, -4.335e-3
-1.166, -4.430e-3
-1.165, -4.520e-3
-1.164, -4.609e-3
-1.163, -4.692e-3
-1.162, -4.776e-3
-1.161, -4.865e-3
-1.160, -4.964e-3
-1.159, -5.075e-3
-1.158, -5.186e-3
-1.157, -5.306e-3
-1.156, -5.429e-3
-1.155, -5.553e-3
-1.154, -5.670e-3
-1.153, -5.787e-3
-1.152, -5.907e-3
-1.151, -6.027e-3
-1.150, -6.144e-3
-1.149, -6.259e-3
-1.148, -6.363e-3
-1.147, -6.462e-3
-1.146, -6.555e-3
-1.145, -6.641e-3
-1.144, -6.718e-3
-1.143, -6.798e-3
-1.142, -6.878e-3
-1.141, -6.958e-3
-1.140, -7.036e-3
-1.139, -7.113e-3
-1.138, -7.183e-3
-1.137, -7.248e-3
-1.136, -7.310e-3
-1.135, -7.372e-3
-1.134, -7.436e-3
-1.133, -7.495e-3
-1.132, -7.557e-3
-1.131, -7.615e-3
-1.130, -7.680e-3
-1.129, -7.745e-3
-1.128, -7.809e-3
-1.127, -7.886e-3
-1.126, -7.979e-3
-1.125, -8.075e-3
-1.124, -8.170e-3
-1.123, -8.263e-3
-1.122, -8.355e-3
-1.121, -8.444e-3
-1.120, -8.528e-3
-1.119, -8.608e-3
-1.118, -8.691e-3
-1.117, -8.774e-3
-1.116, -8.855e-3
-1.115, -8.932e-3
-1.114, -9.009e-3
-1.113, -9.089e-3
-1.112, -9.172e-3
-1.111, -9.255e-3
-1.110, -9.342e-3
-1.109, -9.422e-3
-1.108, -9.505e-3
-1.107, -9.582e-3
-1.106, -9.647e-3
-1.105, -9.712e-3
-1.104, -9.779e-3
-1.103, -9.850e-3
-1.102, -9.921e-3
-1.101, -9.998e-3
-1.100, -1.008e-2
-1.099, -1.015e-2
-1.098, -1.023e-2
-1.097, -1.031e-2
-1.096, -1.041e-2
-1.095, -1.051e-2
-1.094, -1.062e-2
-1.093, -1.073e-2
-1.092, -1.084e-2
-1.091, -1.095e-2
-1.090, -1.106e-2
-1.089, -1.114e-2
-1.088, -1.122e-2
-1.087, -1.128e-2
-1.086, -1.134e-2
-1.085, -1.139e-2
-1.084, -1.145e-2
-1.083, -1.151e-2
-1.082, -1.157e-2
-1.081, -1.164e-2
-1.080, -1.170e-2
-1.079, -1.176e-2
-1.078, -1.181e-2
-1.077, -1.186e-2
-1.076, -1.192e-2
-1.075, -1.199e-2
-1.074, -1.207e-2
-1.073, -1.216e-2
-1.072, -1.226e-2
-1.071, -1.238e-2
-1.070, -1.249e-2
-1.069, -1.259e-2
-1.068, -1.268e-2
-1.067, -1.277e-2
-1.066, -1.285e-2
-1.065, -1.291e-2
-1.064, -1.296e-2
-1.063, -1.300e-2
-1.062, -1.304e-2
-1.061, -1.308e-2
-1.060, -1.312e-2
-1.059, -1.316e-2
-1.058, -1.322e-2
-1.057, -1.328e-2
-1.056, -1.336e-2
-1.055, -1.344e-2
-1.054, -1.353e-2
-1.053, -1.363e-2
-1.052, -1.374e-2
-1.051, -1.384e-2
-1.050, -1.395e-2
-1.049, -1.405e-2
-1.048, -1.413e-2
-1.047, -1.421e-2
-1.046, -1.428e-2
-1.045, -1.436e-2
-1.044, -1.443e-2
-1.043, -1.450e-2
-1.042, -1.458e-2
-1.041, -1.465e-2
-1.040, -1.473e-2
-1.039, -1.480e-2
-1.038, -1.485e-2
-1.037, -1.491e-2
-1.036, -1.496e-2
-1.035, -1.500e-2
-1.034, -1.504e-2
-1.033, -1.509e-2
-1.032, -1.514e-2
-1.031, -1.520e-2
-1.030, -1.525e-2
-1.029, -1.530e-2
-1.028, -1.535e-2
-1.027, -1.541e-2
-1.026, -1.548e-2
-1.025, -1.559e-2
-1.024, -1.571e-2
-1.023, -1.585e-2
-1.022, -1.597e-2
-1.021, -1.606e-2
-1.020, -1.616e-2
-1.019, -1.625e-2
-1.018, -1.635e-2
-1.017, -1.644e-2
-1.016, -1.654e-2
-1.015, -1.665e-2
-1.014, -1.674e-2
-1.013, -1.682e-2
-1.012, -1.687e-2
-1.011, -1.689e-2
-1.010, -1.691e-2
-1.009, -1.690e-2
-1.008, -1.690e-2
-1.007, -1.690e-2
-1.006, -1.691e-2
-1.005, -1.693e-2
-1.004, -1.695e-2
-1.003, -1.698e-2
-1.002, -1.704e-2
-1.001, -1.712e-2
