Potential V vs RHE, Current mA cm-2
0.013299999999999867,39.78168175220483
0.012299999999999978,37.73035036740053
0.011299999999999866,35.763901660588125
0.010299999999999976,33.93892408376223
0.009299999999999864,32.09979939393769
0.008299999999999974,30.274821817111786
0.007299999999999862,28.478138466283188
0.006299999999999972,26.69560222845324
0.00529999999999986,24.941360216620595
0.0042999999999999705,23.286147995778503
0.0032999999999998586,21.67337711393236
0.0022999999999999687,20.01816489309027
0.0012999999999998568,18.320511333252224
0.00029999999999996696,16.56626932141958
-0.000700000000000145,14.868615761581536
-0.0017000000000000348,13.213403540739444
-0.0027000000000001467,11.643073997889251
-0.0037000000000000366,10.07274445503906
-0.0047000000000001485,8.503829623488736
-0.005700000000000038,6.845787980046913
-0.00670000000000015,5.231602386900906
-0.00770000000000004,3.6174167937548987
-0.008700000000000152,2.0909433012005243
-0.009700000000000042,0.6084673300719523
-0.010700000000000154,-0.8308599464107361
-0.011700000000000044,-2.3569090255751513
-0.012700000000000156,-3.884797229429391
-0.013700000000000045,-5.453712060979717
-0.014700000000000157,-6.893888164242324
-0.015700000000000047,-8.332649556205066
-0.01670000000000016,-9.772825659467674
-0.01770000000000005,-11.1677310011346
-0.01870000000000016,-12.651763154693022
-0.01970000000000005,-14.175407224647667
-0.020700000000000163,-15.618412750510005
-0.021700000000000053,-17.018976937376394
-0.022700000000000164,-18.362952672248177
-0.023700000000000054,-19.636192842126707
-0.024700000000000166,-20.93772723800254
-0.025700000000000056,-22.33829142486893
-0.026700000000000168,-23.724708498736668
-0.027700000000000058,-25.0828313466071
-0.02870000000000017,-26.38436574248293
-0.02970000000000006,-27.700047251357418
-0.03070000000000017,-29.001581647233255
-0.03170000000000006,-30.359704495103685
-0.03270000000000017,-31.76026868197007
-0.03370000000000006,-33.14668575583781
-0.034700000000000175,-34.5472499427042
-0.035700000000000065,-35.848784338580025
-0.03670000000000018,-37.122024508458566
-0.03770000000000007,-38.38111756533845
-0.03870000000000018,-39.654357735216976
-0.03970000000000007,-40.99833347008877
-0.04070000000000018,-42.2715736399673
-0.04170000000000007,-43.17698887188092
-0.04270000000000018,-43.88434452181344
-0.04370000000000007,-44.45022904175945
-0.044700000000000184,-44.97367222270952
-0.045700000000000074,-45.79420477663124
-0.046700000000000186,-47.02500360751382
-0.047700000000000076,-48.51045047237211
-0.04870000000000019,-50.20810403221015
-0.04970000000000008,-52.11796428702795
-0.05070000000000019,-54.16929567183226
-0.05170000000000008,-56.30550973462846
-0.05270000000000019,-58.35684111943277
-0.05370000000000008,-60.32328982624517
-0.05470000000000019,-61.936060708091304
-0.05570000000000008,-63.20930087796983
-0.056700000000000195,-64.25618723986996
-0.057700000000000085,-65.3030736017701
-0.058700000000000196,-66.25093017267966
-0.059700000000000086,-67.21293385658788
-0.0607000000000002,-68.04761352350828
-0.06170000000000009,-68.74082206044213
-0.0627000000000002,-69.0944998854084
-0.06370000000000009,-69.13694122440434
-0.0647000000000002,-69.13694122440434
-0.06570000000000009,-69.22182390239624
-0.0667000000000002,-69.53306038836655
-0.0677000000000001,-70.18382758630447
-0.0687000000000002,-71.27315528720055
-0.0697000000000001,-72.57468968307639
-0.07070000000000021,-74.06013654793468
-0.0717000000000001,-75.8992612377592
-0.07270000000000021,-77.80912149257702
-0.0737000000000001,-79.16724434044745
-0.07470000000000021,-79.86045287738132
-0.0757000000000001,-80.25657204134353
-0.07670000000000021,-80.90733923928146
-0.0777000000000001,-82.35034476514379
-0.07870000000000021,-84.6563241839238
-0.0797000000000001,-87.27354008867411
-0.08070000000000022,-89.80587331543254
-0.0817000000000001,-91.41864419727867
-0.08270000000000022,-92.29576520319499
-0.08370000000000011,-92.86164972314101
-0.08470000000000022,-93.08800353111941
-0.08570000000000011,-93.30021022609918
-0.08670000000000022,-93.61144671206948
-0.08770000000000011,-93.90853608504113
-0.08870000000000022,-94.21977257101145
-0.08970000000000011,-94.47442060498715
-0.09070000000000022,-94.91298110794531
-0.09170000000000011,-95.52130696688728
-0.09270000000000023,-96.3984279728036
-0.09370000000000012,-97.74240370767538
-0.09470000000000023,-99.18540923353773
-0.09570000000000012,-100.670856098396
-0.09670000000000023,-102.41095099723
-0.09770000000000012,-104.2925170260505
-0.09870000000000023,-106.21652439386696
-0.09970000000000012,-108.04150197069285
-0.10070000000000023,-109.52694883555114
-0.10170000000000012,-110.6162765364472
-0.10270000000000024,-111.5358388813595
-0.10370000000000013,-112.54028390426367
-0.10470000000000024,-113.36081645818538
-0.10570000000000013,-113.88425963913545
-0.10670000000000024,-114.28037880309766
-0.10770000000000013,-114.40770282008553
-0.10870000000000024,-114.4925854980774
-0.10970000000000013,-114.97358734003153
-0.11070000000000024,-116.06291504092759
-0.11170000000000013,-117.59080324478184
-0.11270000000000002,-119.38748659561045
-0.11370000000000013,-121.0851401554485
-0.11470000000000002,-122.61302835930273
-0.11570000000000014,-123.78723873819072
-0.11670000000000003,-124.62191840511109
-0.11770000000000014,-125.272685603049
-0.11870000000000003,-125.92345280098691
-0.11970000000000014,-126.61666133792076
-0.12070000000000003,-127.32401698785328
-0.12170000000000014,-128.01722552478716
-0.12270000000000003,-128.89434653070347
-0.12370000000000014,-129.98367423159957
-0.12470000000000003,-131.15788461048754
-0.12570000000000014,-132.33209498937555
-0.12670000000000003,-133.52045248126214
-0.12770000000000015,-134.56733884316228
-0.12870000000000004,-135.387871397084
-0.12970000000000015,-136.08107993401788
-0.13070000000000004,-136.91575960093826
-0.13170000000000015,-137.83532194585052
-0.13270000000000004,-138.61341316077628
-0.13370000000000015,-139.53297550568857
-0.13470000000000004,-140.45253785060083
-0.13570000000000015,-141.41454153450906
-0.13670000000000004,-142.4614278964092
-0.13770000000000016,-143.73466806628772
-0.13870000000000005,-145.14937936615277
-0.13970000000000016,-146.4226195360313
-0.14070000000000005,-147.97880196588284
-0.14170000000000016,-149.53498439573437
-0.14270000000000005,-150.8082245656129
-0.14370000000000016,-151.7985224755184
-0.14470000000000005,-152.50587812545095
-0.14570000000000016,-153.07176264539694
-0.14670000000000005,-153.77911829532948
-0.14770000000000016,-154.3450028152755
-0.14870000000000005,-154.9108873352215
-0.14970000000000017,-155.47677185516753
-0.15070000000000006,-155.90118524512707
-0.15170000000000017,-156.04265637511355
-0.15270000000000006,-156.18412750510007
-0.15370000000000017,-156.60854089505958
-0.15470000000000006,-157.31589654499206
-0.15570000000000017,-158.4476655848841
-0.15670000000000006,-160.14531914472215
-0.15770000000000017,-162.2673860945197
-0.15870000000000006,-164.38945304431726
-0.15970000000000018,-166.3700488641283
-0.16070000000000007,-168.20917355395284
-0.16170000000000018,-169.6238848538179
-0.16270000000000007,-170.75565389370993
-0.16370000000000018,-171.74595180361547
-0.16470000000000007,-172.73624971352098
-0.16570000000000018,-173.58507649344
-0.16670000000000007,-174.0094898833995
-0.16770000000000018,-174.43390327335902
-0.16870000000000007,-174.85831666331853
-0.16970000000000018,-175.14125892329156
-0.17070000000000007,-175.56567231325104
-0.17170000000000019,-176.4144990931701
-0.17270000000000008,-177.6877392630486
-0.1737000000000002,-179.10245056291362
-0.17470000000000008,-180.65863299276518
-0.1757000000000002,-182.21481542261674
-0.17670000000000008,-183.77099785246824
-0.1777000000000002,-185.3271802823198
-0.17870000000000008,-186.88336271217133
-0.1797000000000002,-188.4395451420229
-0.18070000000000008,-189.57131418191491
-0.1817000000000002,-190.42014096183394
-0.18270000000000008,-190.84455435179345
-0.1837000000000002,-191.12749661176645
-0.1847000000000001,-191.41043887173947
-0.1857000000000002,-192.11779452167198
-0.1867000000000001,-192.683679041618
-0.1877000000000002,-193.3910346915505
-0.1887000000000001,-194.2398614714695
-0.1897000000000002,-195.23015938137505
-0.1907000000000001,-196.50339955125358
-0.1917000000000001,-198.05958198110514
-0.19269999999999998,-199.61576441095667
-0.1937000000000001,-200.7475334508487
-0.19469999999999998,-201.73783136075423
-0.1957000000000001,-202.7281292706598
-0.19669999999999999,-203.57695605057876
-0.1977000000000001,-204.2843117005113
-0.1987,-204.9916673504438
-0.1997000000000001,-205.69902300037634
-0.2007,-206.40637865030885
-0.2017000000000001,-207.25520543022787
-0.2027,-208.24550334013338
-0.2037000000000001,-209.23580125003892
-0.2047,-210.36757028993094
-0.2057000000000001,-211.782281589796
-0.2067,-213.33846401964755
-0.2077000000000001,-214.61170418952605
-0.2087,-215.4605309694451
-0.2097000000000001,-216.0264154893911
-0.2107,-216.3093577493641
-0.2117000000000001,-216.59230000933712
-0.2127,-217.01671339929663
-0.2137000000000001,-217.44112678925615
-0.2147,-217.58259791924263
-0.2157000000000001,-217.86554017921566
-0.2167,-218.14848243918865
-0.21770000000000012,-218.71436695913465
-0.2187,-219.8461359990267
-0.21970000000000012,-221.54378955886475
-0.2207,-223.38291424868927
-0.22170000000000012,-225.36351006850035
-0.2227,-227.2026347583249
-0.22370000000000012,-228.61734605818995
-0.2247,-230.03205735805497
-0.22570000000000012,-231.44676865792
-0.2267,-233.00295108777152
-0.22770000000000012,-234.13472012766357
-0.22870000000000001,-234.9835469075826
-0.22970000000000013,-235.69090255751513
-0.23070000000000002,-236.53972933743412
-0.23170000000000013,-237.24708498736666
-0.23270000000000002,-238.2373828972722
-0.23370000000000013,-239.36915193716422
-0.23470000000000002,-240.50092097705624
-0.23570000000000013,-241.49121888696175
-0.23670000000000002,-242.05710340690777
-0.2376999999999999,-242.34004566688077
-0.23870000000000002,-242.62298792685377
-0.2396999999999999,-243.47181470677282
-0.24070000000000003,-244.32064148669184
-0.24169999999999991,-245.59388165657037
-0.24270000000000003,-247.0085929564354
-0.24369999999999992,-248.28183312631393
-0.24470000000000003,-249.41360216620598
-0.24569999999999992,-250.545371206098
-0.24670000000000003,-251.67714024599002
-0.24769999999999992,-252.66743815589555
-0.24870000000000003,-253.37479380582806
-0.24969999999999992,-253.79920719578757
-0.25070000000000003,-253.94067832577412
-0.2516999999999999,-254.2236205857471
-0.25270000000000004,-254.64803397570657
-0.2536999999999999,-255.07244736566614
-0.25470000000000004,-255.35538962563913
-0.2556999999999999,-255.63833188561213
-0.25670000000000004,-256.34568753554464
-0.25769999999999993,-257.4774565754367
-0.25870000000000004,-258.8921678753017
-0.25969999999999993,-260.73129256512624
-0.26070000000000004,-262.8533595149238
-0.26169999999999993,-264.9754264647214
-0.26270000000000004,-266.8145511545459
-0.26369999999999993,-268.512204714384
-0.26470000000000005,-269.78544488426246
-0.26569999999999994,-270.775742794168
-0.26670000000000005,-271.4830984441005
-0.26769999999999994,-272.1904540940331
-0.26870000000000005,-272.61486748399255
-0.26969999999999994,-273.1807520039386
-0.27070000000000005,-273.8881076538711
-0.27169999999999994,-274.87840556377665
-0.27270000000000005,-276.15164573365513
-0.27369999999999994,-277.56635703352015
-0.27470000000000006,-279.1225394633717
-0.27569999999999995,-280.3957796332503
-0.27670000000000006,-281.52754867314235
-0.27769999999999995,-282.65931771303434
-0.27870000000000006,-283.79108675292633
-0.27969999999999995,-285.0643269228049
-0.28070000000000006,-286.33756709268346
-0.28169999999999995,-287.610807262562
-0.28270000000000006,-288.8840474324405
-0.28369999999999995,-290.0158164723325
-0.28470000000000006,-290.723172122265
-0.28569999999999995,-291.28905664221105
-0.28670000000000007,-291.85494116215705
-0.28769999999999996,-292.1378834221301
-0.28870000000000007,-292.2793545521166
-0.28969999999999996,-292.4208256821031
-0.29070000000000007,-292.56229681208964
-0.29169999999999996,-292.70376794207607
-0.29270000000000007,-292.56229681208964
-0.29369999999999996,-293.1281813320356
-0.2947000000000001,-293.8355369819681
-0.29569999999999996,-294.54289263190066
-0.2967000000000001,-295.53319054180616
-0.29769999999999996,-296.94790184167124
-0.2987000000000001,-298.50408427152274
-0.29969999999999997,-300.2017378313608
-0.3007000000000001,-302.0408625211853
-0.30169999999999997,-303.73851608102336
-0.3027000000000001,-305.0117562509019
-0.30369999999999997,-306.00205416080746
-0.3047000000000001,-306.99235207071297
-0.30569999999999997,-307.69970772064545
-0.3067000000000001,-308.407063370578
-0.3077,-309.1144190205105
-0.3087000000000001,-309.3973612804835
-0.3097,-309.6803035404565
-0.3107000000000001,-309.9632458004295
-0.3117,-310.2461880604026
-0.3127000000000001,-310.81207258034857
-0.3137,-311.80237049025413
-0.3147000000000001,-312.79266840015964
-0.3157,-313.6414951800786
-0.3167000000000001,-314.6317930899841
-0.3177,-316.04650438984913
-0.3187000000000001,-317.60268681970075
-0.3197,-319.30034037953874
-0.3207000000000001,-320.9979939393768
-0.3217,-322.83711862920137
-0.3227000000000001,-324.1103587990799
-0.3237,-325.1006567089854
-0.3247000000000001,-326.51536800885043
-0.3257,-327.788608178729
-0.3267000000000001,-329.20331947859404
-0.3277,-330.9009730384321
-0.3287000000000001,-332.3156843382971
-0.3297,-333.44745337818915
-0.3307000000000001,-334.5792224180812
-0.3317,-335.42804919800017
-0.3327000000000001,-336.1354048479327
-0.3337,-336.5598182378922
-0.3347000000000001,-337.26717388782475
-0.3357,-337.5501161477977
-0.3367000000000001,-337.9745295377573
-0.3377,-338.5404140577033
-0.3387000000000001,-339.1062985776493
-0.3397,-339.6721830975953
-0.3407000000000001,-340.5210098775143
-0.3417,-341.3698366574333
-0.3427000000000001,-342.07719230736586
-0.3437,-342.7845479572984
-0.3447000000000001,-344.057788127177
-0.3457,-345.7554416870149
-0.3467000000000001,-347.87750863681254
-0.3477,-349.71663332663707
-0.3487000000000001,-350.8484023665291
-0.3497,-351.4142868864751
-0.3507000000000001,-351.8387002764346
-0.3517,-351.8387002764346
-0.3527000000000001,-351.8387002764346
-0.3537,-352.1216425364076
-0.3547000000000001,-352.9704693163266
-0.3557,-354.10223835621866
-0.35670000000000013,-355.7998919160567
-0.3577,-357.2146032159218
-0.35870000000000013,-358.3463722558138
-0.3597,-359.3366701657193
-0.36070000000000013,-360.18549694563836
-0.3617,-360.3269680756248
-0.3626999999999999,-360.0440258156518
-0.3637,-359.4781412957058
-0.3646999999999999,-359.0537279057463
-0.3657,-359.0537279057463
-0.3666999999999999,-359.61961242569237
-0.3677,-360.75138146558436
-0.3686999999999999,-362.4490350254224
-0.36970000000000003,-363.4393329353279
-0.3706999999999999,-364.4296308452335
-0.37170000000000003,-366.4102266650445
-0.3726999999999999,-368.67376474482853
-0.37370000000000003,-371.5031873445586
-0.3746999999999999,-383.952646783371
-0.37570000000000003,-384.37706017333045
-0.3766999999999999,-382.82087774347895
-0.37770000000000004,-383.38676226342494
-0.3786999999999999,-380.98175305365436
-0.37970000000000004,-381.5476375736004
-0.3806999999999999,-383.81117565338445
-0.38170000000000004,-386.3576559931415
-0.38269999999999993,-390.60178989273663
-0.38370000000000004,-393.9970970124127
-0.38469999999999993,-396.82651961214276
-0.38570000000000004,-399.79741334185934
-0.38669999999999993,-400.08035560183237
-0.38570000000000004,-397.3924041320888
-0.38469999999999993,-394.2800392723857
-0.38370000000000004,-390.60178989273663
-0.38269999999999993,-386.64059825311455
-0.38170000000000004,-381.9720509635599
-0.3806999999999999,-376.31320576409973
-0.37970000000000004,-369.3811203947611
-0.3786999999999999,-361.74167937548987
-0.37770000000000004,-353.6778249662592
-0.3766999999999999,-345.33102829705547
-0.37570000000000003,-338.5404140577033
-0.3746999999999999,-335.00363580804066
-0.37370000000000003,-334.43775128809466
-0.3726999999999999,-336.27687597791925
-0.37170000000000003,-339.1062985776493
-0.3706999999999999,-341.22836552744684
-0.36970000000000003,-341.7942500473929
-0.3686999999999999,-340.66248100750084
-0.3677,-338.1160006677438
-0.3666999999999999,-334.5792224180812
-0.3657,-330.9009730384321
-0.3646999999999999,-327.505665918756
-0.3637,-323.9688876690934
-0.3626999999999999,-320.00769602947133
-0.3617,-315.76356212987616
-0.36070000000000013,-310.95354371033505
-0.3597,-305.57764077084795
-0.35870000000000013,-300.06026670137425
-0.3577,-295.10877715184665
-0.35670000000000013,-291.28905664221105
-0.3557,-289.02551856242695
-0.3547000000000001,-288.742576302454
-0.3537,-289.4499319523865
-0.3527000000000001,-289.73287421235955
-0.3517,-289.59140308237295
-0.3507000000000001,-288.742576302454
-0.3497,-287.04492274261594
-0.3487000000000001,-284.9228557928184
-0.3477,-282.3763754530613
-0.3467000000000001,-279.6884239833177
-0.3457,-276.43458799362816
-0.3447000000000001,-273.1807520039386
-0.3437,-269.64397375427603
-0.3427000000000001,-266.2486666345999
-0.3417,-262.9948306449103
-0.3407000000000001,-260.16540804518024
-0.3397,-257.4774565754367
-0.3387000000000001,-254.93097623567962
-0.3377,-252.80890928588207
-0.3367000000000001,-250.9697845960575
-0.3357,-249.5550732961925
-0.3347000000000001,-248.42330425630044
-0.3337,-247.1500640864219
-0.3327000000000001,-245.45241052658386
-0.3317,-243.3303435767863
-0.3307000000000001,-241.20827662698875
-0.3297,-238.66179628723168
-0.3287000000000001,-235.69090255751513
-0.3277,-232.57853769781204
-0.3267000000000001,-229.32470170812243
-0.3257,-225.50498119848683
-0.3247000000000001,-221.68526068885126
-0.3237,-217.72406904922914
-0.3227000000000001,-214.18729079956654
-0.3217,-211.499339329823
-0.3207000000000001,-209.51874351001192
-0.3197,-208.1040322101469
-0.3187000000000001,-206.54784978029537
-0.3177,-205.41608074040332
-0.3167000000000001,-204.0013694405383
-0.3157,-202.30371588070025
-0.3147000000000001,-200.7475334508487
-0.3137,-199.19135102099716
-0.3127000000000001,-197.0692840711996
-0.3117,-194.38133260145605
-0.3107000000000001,-191.268967741753
-0.3097,-188.01513175206335
-0.3087000000000001,-184.9027668923603
-0.3077,-181.79040203265723
-0.3067000000000001,-178.53656604296762
-0.30569999999999997,-175.42420118326456
-0.3047000000000001,-172.31183632356147
-0.30369999999999997,-169.6238848538179
-0.3027000000000001,-167.50181790402033
-0.30169999999999997,-165.8041643441823
-0.3007000000000001,-164.81386643427678
-0.29969999999999997,-163.96503965435775
-0.2987000000000001,-162.97474174445222
-0.29769999999999996,-161.84297270456022
-0.2967000000000001,-160.5697325346817
-0.29569999999999996,-158.87207897484362
-0.2947000000000001,-156.89148315503257
-0.29369999999999996,-154.9108873352215
-0.29270000000000007,-152.93029151541046
-0.29169999999999996,-150.66675343562642
-0.29070000000000007,-148.40321535584232
-0.28969999999999996,-145.9982061460718
-0.28870000000000007,-143.73466806628772
-0.28769999999999996,-141.456982873505
-0.28670000000000007,-139.3207688107088
-0.28569999999999995,-137.12796629591801
-0.28470000000000006,-134.73710419914607
-0.28369999999999995,-132.33209498937555
-0.28270000000000006,-129.98367423159957
-0.28169999999999995,-127.66354769982091
-0.28070000000000006,-125.44245095903281
-0.27969999999999995,-123.43356091322445
-0.27870000000000006,-121.38222952842017
-0.27769999999999995,-119.4299279346064
-0.27670000000000006,-117.59080324478184
-0.27569999999999995,-115.76582566795594
-0.27470000000000006,-113.92670097813141
-0.27369999999999994,-112.01684072331359
-0.27270000000000005,-110.17771603348905
-0.27169999999999994,-108.2537086656726
-0.27070000000000005,-106.38628974985076
-0.26969999999999994,-104.64619485101677
-0.26870000000000005,-102.84951150018817
-0.26769999999999994,-100.92550413237171
