Potential V vs RHE, Current mA cm-2
0.013299999999999867,40.77197966211036
0.012299999999999978,38.55088292132225
0.011299999999999866,36.64102266650445
0.010299999999999976,34.8018979766799
0.009299999999999864,32.764713704874254
0.008299999999999974,31.137795710029454
0.007299999999999862,29.27037679420761
0.006299999999999972,28.662050935265643
0.00529999999999986,25.846775448534224
0.0042999999999999705,25.43650917157336
0.0032999999999998586,23.41347201276636
0.0022999999999999687,21.99876071290132
0.0012999999999998568,20.654784978029536
0.00029999999999996696,19.01371987018609
-0.000700000000000145,18.02342196028057
-0.0017000000000000348,16.53797509542228
-0.0027000000000001467,15.547677185516752
-0.0037000000000000366,14.316878354634172
-0.0047000000000001485,12.892264075670079
-0.005700000000000038,11.913283856163474
-0.00670000000000015,10.944206615755926
-0.00770000000000004,9.390853608504113
-0.008700000000000152,8.768380636563498
-0.009700000000000042,7.6012438141748415
-0.010700000000000154,6.579822255672285
-0.011700000000000044,5.5541565632701335
-0.012700000000000156,4.442193481576215
-0.013700000000000045,3.4434073038714996
-0.014700000000000157,2.4743300634639493
-0.015700000000000047,1.5193999360550492
-0.01670000000000016,0.6192191359509266
-0.01770000000000005,-0.2639851285548159
-0.01870000000000016,-1.1317690398920295
-0.01970000000000005,-2.0216224475071374
-0.020700000000000163,-2.874693361325755
-0.021700000000000053,-3.693811203947611
-0.022700000000000164,-4.521417314368658
-0.023700000000000054,-5.303752663194023
-0.024700000000000166,-6.097405702418309
-0.025700000000000056,-6.908035277240974
-0.026700000000000168,-7.558802475178892
-0.027700000000000058,-8.358114359602638
-0.02870000000000017,-9.001808001041228
-0.02970000000000006,-9.587498479185355
-0.03070000000000017,-10.59760234728899
-0.03170000000000006,-11.087092457042292
-0.03270000000000017,-11.800106952174271
-0.03370000000000006,-12.414091656315696
-0.034700000000000175,-13.049297029955099
-0.035700000000000065,-13.876903140376147
-0.03670000000000018,-14.30273124163552
-0.03770000000000007,-15.05252823056399
-0.03870000000000018,-15.986237688474914
-0.03970000000000007,-15.74573676749786
-0.04070000000000018,-17.089712502369647
-0.04170000000000007,-17.132153841365596
-0.04270000000000018,-17.952686395287316
-0.04370000000000007,-18.645894932221182
-0.044700000000000184,-18.702483384215785
-0.045700000000000074,-19.834252424107817
-0.046700000000000186,-19.70692840711996
-0.047700000000000076,-20.810403221014692
-0.04870000000000019,-21.1782281589796
-0.04970000000000008,-21.63093577493641
-0.05070000000000019,-22.607086571843286
-0.05170000000000008,-22.748557701829792
-0.05270000000000019,-23.314442221775803
-0.05370000000000008,-23.597384481748815
-0.05470000000000019,-24.31888724467998
-0.05570000000000008,-24.545241052658387
-0.056700000000000195,-24.95550732961925
-0.057700000000000085,-25.86092256153287
-0.058700000000000196,-26.63901377645864
-0.059700000000000086,-26.851220471438396
-0.0607000000000002,-27.756635703352025
-0.06170000000000009,-27.813224155346617
-0.0627000000000002,-28.97328742123595
-0.06370000000000009,-27.813224155346617
-0.0647000000000002,-28.80352206525215
-0.06570000000000009,-29.525024828183312
-0.0667000000000002,-29.977732444140123
-0.0677000000000001,-30.8690005630551
-0.0687000000000002,-30.37385160810234
-0.0697000000000001,-32.4676243319026
-0.07070000000000021,-31.420737970002463
-0.0717000000000001,-32.48177144490124
-0.07270000000000021,-32.764713704874254
-0.0737000000000001,-33.51451069380272
-0.07470000000000021,-33.373039563816214
-0.0757000000000001,-33.755011614779775
-0.07670000000000021,-34.5755441687015
-0.0777000000000001,-34.5472499427042
-0.07870000000000021,-35.198017140642115
-0.0797000000000001,-35.91951990357328
-0.08070000000000022,-36.30149195453684
-0.0817000000000001,-37.136171621457216
-0.08270000000000022,-37.107877395459916
-0.08370000000000011,-37.95670417537893
-0.08470000000000022,-37.85767438438838
-0.08570000000000011,-38.01329262737354
-0.08670000000000022,-38.31038200034519
-0.08770000000000011,-39.229944345257465
-0.08870000000000022,-39.34312124924667
-0.08970000000000011,-40.92759790509552
-0.09070000000000022,-40.02218267318189
-0.09170000000000011,-41.352011295055014
-0.09270000000000023,-41.63495355502803
-0.09370000000000012,-41.39445263405098
-0.09470000000000023,-42.92234083790521
-0.09570000000000012,-41.79057179801318
-0.09670000000000023,-43.672137826833676
-0.09770000000000012,-43.24772443687417
-0.09870000000000023,-43.629696487837734
-0.09970000000000012,-44.124845442790495
-0.10070000000000023,-44.84634820572166
-0.10170000000000012,-45.624439420647434
-0.10270000000000024,-44.478523267756756
-0.10370000000000013,-46.96841515551922
-0.10470000000000024,-46.628884443551605
-0.10570000000000013,-48.029448630417996
-0.10670000000000024,-46.176176827594794
-0.10770000000000013,-46.79864979953541
-0.10870000000000024,-48.029448630417996
-0.10970000000000013,-48.35483222938696
-0.11070000000000024,-49.95345599823444
-0.11170000000000013,-49.118776331314066
-0.11270000000000002,-50.81642989115212
-0.11370000000000013,-50.29298671020206
-0.11470000000000002,-50.23639825820745
-0.11570000000000014,-50.63251742216966
-0.11670000000000003,-51.69355089706845
-0.11770000000000014,-51.36816729809948
-0.11870000000000003,-52.2169940780185
-0.11970000000000014,-52.1038171740293
-0.12070000000000003,-52.57067190298476
-0.12170000000000014,-52.64140746797801
-0.12270000000000003,-52.91020261495237
-0.12370000000000014,-55.18788780773508
-0.12470000000000003,-54.1551485588336
-0.12570000000000014,-55.7254781016838
-0.12670000000000003,-55.23032914673103
-0.12770000000000015,-55.555712745699985
-0.12870000000000004,-56.022567474655446
-0.12970000000000015,-55.65474253669055
-0.13070000000000004,-56.84310002857717
-0.13170000000000015,-56.64504044659606
-0.13270000000000004,-57.6919268084962
-0.13370000000000015,-57.93242772947325
-0.13470000000000004,-58.35684111943277
-0.13570000000000015,-59.70081685430455
-0.13670000000000004,-59.16322656035583
-0.13770000000000016,-60.60623208621817
-0.13870000000000005,-59.587639950315335
-0.13970000000000016,-61.66726556111695
-0.14070000000000005,-61.412617527141244
-0.14170000000000016,-61.08723392817228
-0.14270000000000005,-62.24729719406162
-0.14370000000000016,-61.7662953521075
-0.14470000000000005,-61.96435493408861
-0.14570000000000016,-62.31803275905487
-0.14670000000000005,-63.15271242597524
-0.14770000000000016,-64.66645351683083
-0.14870000000000005,-64.76548330782138
-0.14970000000000017,-65.33136782776738
-0.15070000000000006,-64.76548330782138
-0.15170000000000017,-65.64260431373769
-0.15270000000000006,-65.3030736017701
-0.15370000000000017,-66.30751862467427
-0.15470000000000006,-67.34025787357575
-0.15570000000000017,-67.25537519558385
-0.15670000000000006,-68.38714423547587
-0.15770000000000017,-67.08560983960004
-0.15870000000000006,-70.25456315129772
-0.15970000000000018,-70.62238808926263
-0.16070000000000007,-69.08035277240974
-0.16170000000000018,-71.75415712915466
-0.16270000000000007,-69.84429687433686
-0.16370000000000018,-71.5419504341749
-0.16470000000000007,-70.89118323623698
-0.16570000000000018,-70.76385921924914
-0.16670000000000007,-71.96636382413442
-0.16770000000000018,-72.23515897110877
-0.16870000000000007,-73.6498702709738
-0.16970000000000018,-75.23434692682265
-0.17070000000000007,-73.74890006196436
-0.17170000000000019,-74.86652198885774
-0.17270000000000008,-73.96110675694412
-0.1737000000000002,-74.96555177984828
-0.17470000000000008,-76.11146793273898
-0.1757000000000002,-75.19190558782671
-0.17670000000000008,-77.8940041705689
-0.1777000000000002,-76.11146793273898
-0.17870000000000008,-77.80912149257702
-0.1797000000000002,-76.70564667868229
-0.18070000000000008,-78.07791663955136
-0.1817000000000002,-79.42189237442317
-0.18270000000000008,-77.92229839656622
-0.1837000000000002,-81.27516417724635
-0.1847000000000001,-78.47403580351359
-0.1857000000000002,-80.22827781534622
-0.1867000000000001,-80.34145471933543
-0.1877000000000002,-81.37419396823692
-0.1887000000000001,-83.10014175407225
-0.1897000000000002,-82.05325539217212
-0.1907000000000001,-83.96311564698992
-0.1917000000000001,-82.36449187814243
-0.19269999999999998,-83.08599464107361
-0.1937000000000001,-84.21776368096563
-0.19469999999999998,-84.21776368096563
-0.1957000000000001,-85.29294426886305
-0.19669999999999999,-85.70321054582392
-0.1977000000000001,-86.05688837079018
-0.1987,-87.45745255765657
-0.1997000000000001,-86.9623036027038
-0.2007,-87.075480506693
-0.2017000000000001,-88.12236686859313
-0.2027,-88.7023985015378
-0.2037000000000001,-89.01363498750811
-0.2047,-90.93764235532454
-0.2057000000000001,-90.31516938338393
-0.2067,-88.19310243358639
-0.2077000000000001,-91.68743934425302
-0.2087,-89.80587331543254
-0.2097000000000001,-92.84750261014237
-0.2107,-91.63085089225844
-0.2117000000000001,-94.03586010202899
-0.2127,-92.16844118620713
-0.2137000000000001,-93.01726796612617
-0.2147,-94.89883399494667
-0.2157000000000001,-96.5398991027901
-0.2167,-90.79617122533804
-0.21770000000000012,-96.65307600677932
-0.2187,-94.41783215299256
-0.21970000000000012,-96.80869424976446
-0.2207,-97.16237207473071
-0.22170000000000012,-98.05364019364569
-0.2227,-98.81758429557281
-0.22370000000000012,-97.21896052672531
-0.2247,-99.28443902452827
-0.22570000000000012,-95.84669056585624
-0.2267,-98.6195247135917
-0.22770000000000012,-98.83173140857146
-0.22870000000000001,-99.42591015451478
-0.22970000000000013,-99.9635004484635
-0.23070000000000002,-99.24199768553233
-0.23170000000000013,-101.7035953472975
-0.23270000000000002,-102.02897894626645
-0.23370000000000013,-101.33577040933257
-0.23470000000000002,-101.84506647728399
-0.23570000000000013,-102.53827501421786
-0.23670000000000002,-102.2694798672435
-0.2376999999999999,-102.79292304819357
-0.23870000000000002,-102.63730480520842
-0.2396999999999999,-103.23148355115173
-0.24070000000000003,-102.89195283918411
-0.24169999999999991,-104.46228238203432
-0.24270000000000003,-105.33940338795064
-0.24369999999999992,-105.33940338795064
-0.24470000000000003,-105.02816690198033
-0.24569999999999992,-104.68863619001272
-0.24670000000000003,-105.32525627495198
-0.24769999999999992,-108.39517979565912
-0.24870000000000003,-109.8523324345201
-0.24969999999999992,-108.21126732667666
-0.25070000000000003,-104.433988156037
-0.2516999999999999,-108.84788741161593
-0.25270000000000004,-106.90973293080083
-0.2536999999999999,-109.01765276759973
-0.25470000000000004,-109.52694883555114
-0.2556999999999999,-107.94247217970229
-0.25670000000000004,-108.3102971176672
-0.25769999999999993,-108.49420958664966
-0.25870000000000004,-110.12112758149446
-0.25969999999999993,-110.31918716347556
-0.26070000000000004,-111.01239570040943
-0.26169999999999993,-109.69671419153494
-0.26270000000000004,-111.01239570040943
-0.26369999999999993,-110.87092457042293
-0.26470000000000005,-110.57383519745127
-0.26569999999999994,-112.66760792125153
-0.26670000000000005,-111.5641331073568
-0.26769999999999994,-114.1247605601125
-0.26870000000000005,-112.04513494931089
-0.26969999999999994,-111.35192641237703
-0.27070000000000005,-111.43680909036894
-0.27169999999999994,-111.74804557633925
-0.27270000000000005,-114.25208457710036
-0.27369999999999994,-112.80907905123803
-0.27470000000000006,-118.3971886857049
-0.27569999999999995,-115.05847001802343
-0.27670000000000006,-111.04068992640673
-0.27769999999999995,-113.04957997221508
-0.27870000000000006,-112.82322616423666
-0.27969999999999995,-115.6950901029627
-0.28070000000000006,-114.52087972407472
-0.28169999999999995,-116.91174182084664
-0.28270000000000006,-113.50228758817191
-0.28369999999999995,-114.67649796705987
-0.28470000000000006,-117.10980140282774
-0.28569999999999995,-115.2706767130032
-0.28670000000000007,-116.20438617091412
-0.28769999999999996,-116.04876792792896
-0.28870000000000007,-116.23268039691139
-0.28969999999999996,-116.92588893384529
-0.29070000000000007,-118.07180508673595
-0.29169999999999996,-120.63243253949167
-0.29270000000000007,-117.25127253281424
-0.29369999999999996,-117.56250901878454
-0.2947000000000001,-117.61909747077915
-0.29569999999999996,-115.42629495598834
-0.2967000000000001,-116.69953512586686
-0.29769999999999996,-115.56776608597484
-0.2987000000000001,-116.28926884890602
-0.29969999999999997,-115.76582566795594
-0.3007000000000001,-116.04876792792896
-0.30169999999999997,-119.9392240025578
-0.3027000000000001,-119.4016337086091
-0.30369999999999997,-119.1186914486361
-0.3047000000000001,-121.19831705943768
-0.30569999999999997,-119.5996932905902
-0.3067000000000001,-118.21327621672248
-0.3077,-120.63243253949167
-0.3087000000000001,-119.13283856163473
-0.3097,-120.9153747994647
-0.3107000000000001,-119.7411644205767
-0.3117,-119.44407504760505
-0.3127000000000001,-120.77390366947817
-0.3137,-118.28401178171573
-0.3147000000000001,-121.17002283344038
-0.3157,-121.42467086741611
-0.3167000000000001,-121.3963766414188
-0.3177,-124.50874150112188
-0.3187000000000001,-123.03744174926223
-0.3197,-124.83412510009084
-0.3207000000000001,-123.10817731425549
-0.3217,-123.95700409417452
-0.3227000000000001,-122.4432630033189
-0.3237,-122.38667455132433
-0.3247000000000001,-122.86767639327843
-0.3257,-122.62717547230139
-0.3267000000000001,-125.18780292505707
-0.3277,-125.34342116804225
-0.3287000000000001,-124.42385882312999
-0.3297,-127.33816410085197
-0.3307000000000001,-128.5831100447332
-0.3317,-126.17810083496262
-0.3327000000000001,-130.77591255952402
-0.3337,-125.86686434899234
-0.3347000000000001,-128.4416389147467
-0.3357,-129.04996477368866
-0.3367000000000001,-128.85190519170752
-0.3377,-130.46467607355368
-0.3387000000000001,-128.76702251371566
-0.3397,-130.5778529775429
-0.3407000000000001,-128.89434653070347
-0.3417,-130.492970299551
-0.3427000000000001,-132.81309683132966
-0.3437,-133.01115641331077
-0.3447000000000001,-134.80783976413935
-0.3457,-135.1332233631083
-0.3467000000000001,-132.16232963339172
-0.3477,-136.85917114894366
-0.3487000000000001,-133.54874670725948
-0.3497,-137.77873349385592
-0.3507000000000001,-135.81228478704352
-0.3517,-137.25529031290586
-0.3527000000000001,-139.15100345472501
-0.3537,-140.50912630259543
-0.3547000000000001,-140.2686253816184
-0.3557,-138.17485265781812
-0.35670000000000013,-141.75407224647665
-0.3577,-139.6037110706818
-0.35870000000000013,-142.4614278964092
-0.3597,-143.0273124163552
-0.36070000000000013,-144.44202371622026
-0.3617,-146.28114840604482
-0.3626999999999999,-146.7055617960043
-0.3637,-146.1396772760583
-0.3646999999999999,-147.4129174459368
-0.3657,-149.53498439573437
-0.3666999999999999,-149.25204213576137
-0.3677,-149.39351326574788
-0.3686999999999999,-150.94969569559944
-0.36970000000000003,-152.22293586547795
-0.3706999999999999,-153.35470490536997
-0.37170000000000003,-154.9108873352215
-0.3726999999999999,-155.33530072518104
-0.37370000000000003,-155.75971411514055
-0.3746999999999999,-155.47677185516753
-0.37570000000000003,-159.01355010483013
-0.3766999999999999,-160.5697325346817
-0.37770000000000004,-158.5891367148706
-0.3786999999999999,-161.70150157457368
-0.37970000000000004,-157.59883880496508
-0.3806999999999999,-162.6917994844792
-0.38170000000000004,-164.38945304431726
-0.38269999999999993,-165.09680869424977
-0.38370000000000004,-166.0871066041553
-0.38469999999999993,-168.20917355395284
-0.38570000000000004,-169.19947146385837
-0.38669999999999993,-168.49211581392586
-0.38570000000000004,-164.10651078434424
-0.38469999999999993,-161.70150157457368
-0.38370000000000004,-160.99414592464117
-0.38269999999999993,-154.9108873352215
-0.38170000000000004,-155.75971411514055
-0.3806999999999999,-156.32559863508658
-0.37970000000000004,-151.7985224755184
-0.3786999999999999,-152.50587812545095
-0.37770000000000004,-145.57379275611228
-0.3766999999999999,-150.8082245656129
-0.37570000000000003,-141.75407224647665
-0.3746999999999999,-140.28277249461703
-0.37370000000000003,-140.39594939860626
-0.3726999999999999,-138.3163237878046
-0.37170000000000003,-138.3870593527979
-0.3706999999999999,-138.11826420582355
-0.36970000000000003,-137.2977316519018
-0.3686999999999999,-132.43112478036608
-0.3677,-132.78480260533235
-0.3666999999999999,-128.96508209569677
-0.3657,-129.02167054769134
-0.3646999999999999,-126.88545648489513
-0.3637,-126.8147209199019
-0.3626999999999999,-125.10292024706521
-0.3617,-123.37697246122984
-0.36070000000000013,-121.46711220641204
-0.3597,-120.22216626253082
-0.35870000000000013,-119.61384040358885
-0.3577,-117.26541964581288
-0.35670000000000013,-117.05321295083314
-0.3557,-114.73308641905447
-0.3547000000000001,-113.89840675213411
-0.3537,-110.17771603348905
-0.3527000000000001,-109.71086130453358
-0.3517,-110.84263034442563
-0.3507000000000001,-107.22096941677113
-0.3497,-107.09364539978327
-0.3487000000000001,-105.96187635989125
-0.3477,-105.79211100390745
-0.3467000000000001,-102.3543625452354
-0.3457,-102.63730480520842
-0.3447000000000001,-99.55323417150264
-0.3437,-98.06778730664433
-0.3427000000000001,-97.28969609171857
-0.3417,-95.80424922686029
-0.3407000000000001,-95.94572035684679
-0.3397,-93.73877072905732
-0.3387000000000001,-92.70603148015586
-0.3377,-90.54152319136236
-0.3367000000000001,-88.47604469355939
-0.3357,-87.51404100965117
-0.3347000000000001,-85.78809322381582
-0.3337,-87.16036318468491
-0.3327000000000001,-85.77394611081716
-0.3317,-81.99666694017753
-0.3307000000000001,-79.84630576438266
-0.3297,-79.86045287738132
-0.3287000000000001,-76.55002843569714
-0.3277,-77.95059262256353
-0.3267000000000001,-74.78163931086584
-0.3257,-74.24404901691713
-0.3247000000000001,-73.04154441203184
-0.3237,-70.73556499325183
-0.3227000000000001,-70.18382758630447
-0.3217,-68.47202691346777
-0.3207000000000001,-67.00072716160814
-0.3197,-65.00598422879844
-0.3187000000000001,-63.76103828491719
-0.3177,-62.700004810018434
-0.3167000000000001,-61.14382238016689
-0.3157,-60.70526187720872
-0.3147000000000001,-59.31884480334099
-0.3137,-58.498312249419264
-0.3127000000000001,-56.53186354260687
-0.3117,-56.24892128263386
-0.3107000000000001,-55.032269564749924
-0.3097,-51.69355089706845
-0.3087000000000001,-52.20284696501985
-0.3077,-49.30268880029653
-0.3067000000000001,-49.27439457429922
-0.30569999999999997,-47.91627172642879
-0.3047000000000001,-46.68547289554621
-0.30369999999999997,-45.44052695166498
-0.3027000000000001,-43.87019740881479
-0.30169999999999997,-43.09210619388902
-0.3007000000000001,-41.196393052069865
-0.29969999999999997,-41.55007087703613
-0.2987000000000001,-40.00803556018324
-0.29769999999999996,-39.328974136248014
-0.2967000000000001,-37.58887923741403
-0.29569999999999996,-36.21660927654494
-0.2947000000000001,-34.92922199366775
-0.29369999999999996,-33.81160006677438
-0.29270000000000007,-32.9486261738567
-0.29169999999999996,-31.901739811956578
-0.29070000000000007,-31.052913032037555
-0.28969999999999996,-29.567466167179266
-0.28870000000000007,-28.831816291249446
-0.28769999999999996,-27.219045409403304
-0.28670000000000007,-26.34192440348698
-0.28569999999999995,-25.196008250596304
-0.28470000000000006,-23.639825820744765
-0.28369999999999995,-23.724708498736668
-0.28270000000000006,-21.19237527197825
-0.28169999999999995,-21.1782281589796
-0.28070000000000006,-20.923580125003895
-0.27969999999999995,-19.01371987018609
-0.27870000000000006,-18.843954514202288
-0.27769999999999995,-17.4433903273359
-0.27670000000000006,-16.863358694391238
-0.27569999999999995,-15.533530072518102
-0.27470000000000006,-14.684703292599082
-0.27369999999999994,-14.019788981662511
-0.27270000000000005,-12.917728879067651
-0.27169999999999994,-12.217446785634456
-0.27070000000000005,-11.323349244119754
-0.26969999999999994,-10.654190799283592
-0.26870000000000005,-9.22674709771977
-0.26769999999999994,-8.55051509638428
-0.26670000000000005,-7.599829102874978
