Potential V vs RHE, Current mA cm-2
0.4132999999999999,-0.00499676031112331
0.4122999999999999,-0.00694906190493706
0.4112999999999999,-0.007571534876877676
0.4102999999999999,-0.007871453672449064
0.4092999999999999,-0.008090733923928143
0.4082999999999999,-0.00830859946410736
0.4072999999999999,-0.00846280299579265
0.4062999999999999,-0.008577394611081717
0.4052999999999999,-0.008683497958571595
0.4042999999999999,-0.008795260151260934
0.4032999999999999,-0.00892399887954865
0.4022999999999999,-0.009000393289741363
0.4012999999999999,-0.009059811164335695
0.4002999999999999,-0.009129132018029082
0.3992999999999999,-0.009240894210718421
0.3982999999999999,-0.009355485826007488
0.3972999999999999,-0.009409244855402359
0.3962999999999999,-0.009455930328297906
0.3952999999999999,-0.009492712822094396
0.3942999999999999,-0.009546471851489267
0.39329999999999987,-0.00964833106507955
0.39229999999999987,-0.009710578362273611
0.39129999999999987,-0.00975443441256943
0.39029999999999987,-0.009768581525568079
0.38929999999999987,-0.009826584688862544
0.38829999999999987,-0.009902979099055256
0.38729999999999987,-0.009945420438051208
0.38629999999999987,-0.00999352062224662
0.38529999999999986,-0.010003423601345674
0.38429999999999986,-0.010051523785541087
0.38329999999999986,-0.010157627133030964
0.38229999999999986,-0.01019016549292786
0.38129999999999986,-0.010205727317226375
0.38029999999999986,-0.010234021543223676
0.37929999999999986,-0.01025807163532138
0.37829999999999986,-0.010354272003712204
0.37729999999999986,-0.010391054497508694
0.37629999999999986,-0.010416519300906266
0.37529999999999986,-0.010432081125204782
0.37429999999999986,-0.010484425443299786
0.37329999999999985,-0.010560819853492498
0.37229999999999985,-0.0106174083054871
0.37129999999999985,-0.010608920037687911
0.37029999999999985,-0.010635799552385347
0.36929999999999985,-0.010689558581780218
0.36829999999999985,-0.01075180587897428
0.36729999999999985,-0.010790003084070635
0.36629999999999985,-0.010802735485769419
0.36529999999999985,-0.010831029711766721
0.36429999999999985,-0.010869226916863078
0.36329999999999985,-0.010951280172255249
0.36229999999999984,-0.01099938035645066
0.36129999999999984,-0.011006453912949984
0.36029999999999984,-0.01102484515984823
0.35929999999999984,-0.011072945344043643
0.35829999999999984,-0.011122460239538919
0.35729999999999984,-0.0111677310011346
0.35629999999999984,-0.01117056042373433
0.35529999999999984,-0.01119036638193244
0.35429999999999984,-0.01124129598872758
0.35329999999999984,-0.011314860976320562
0.35229999999999984,-0.011344569913617729
0.35129999999999983,-0.011360131737916244
0.35029999999999983,-0.011365790583115706
0.34929999999999983,-0.011411061344711386
0.34829999999999983,-0.011495944022703288
0.34729999999999983,-0.011548288340798294
0.34629999999999983,-0.01155253247469789
0.34529999999999983,-0.011558191319897349
0.34429999999999983,-0.011586485545894651
0.3432999999999998,-0.011678441780385879
0.3422999999999998,-0.011701077161183718
0.3412999999999998,-0.011708150717683045
0.3402999999999998,-0.011736444943680344
0.3392999999999998,-0.01174351850017967
0.3382999999999998,-0.011826986466871706
0.3372999999999998,-0.011877916073666847
0.3362999999999998,-0.011876501362366983
0.3352999999999998,-0.011911869144863611
0.3342999999999998,-0.01194299279346064
0.3332999999999998,-0.011985434132456592
0.3322999999999998,-0.012032119605352137
0.3312999999999998,-0.012020801914953217
0.3302999999999998,-0.012054754986149977
0.3292999999999998,-0.012075975655647952
0.3282999999999998,-0.012146711220641206
0.3272999999999998,-0.012201884961335941
0.3262999999999998,-0.012190567270937022
0.3252999999999999,-0.012227349764733513
0.3242999999999999,-0.012248570434231488
0.3232999999999999,-0.012315061865325144
0.3222999999999999,-0.012350429647821771
0.3212999999999999,-0.012350429647821771
0.3202999999999999,-0.012364576760820421
0.3192999999999999,-0.012411262233715966
0.3182999999999999,-0.012453703572711918
0.3172999999999999,-0.012490486066508408
0.3162999999999999,-0.012503218468207193
0.3152999999999999,-0.012493315489108139
0.3142999999999999,-0.012558392208901932
0.3132999999999999,-0.012620639506095991
0.3122999999999999,-0.012654592577292753
0.3112999999999999,-0.012653177865992887
0.3102999999999999,-0.012650348443393158
0.3092999999999999,-0.012711181029287354
0.3082999999999999,-0.012786160728180201
0.3072999999999999,-0.012803137263778583
0.3062999999999999,-0.012810210820277905
0.3052999999999999,-0.012803137263778583
0.3042999999999999,-0.012844163891474669
0.3032999999999999,-0.012923387724267111
0.3022999999999999,-0.012967243774562928
0.3012999999999999,-0.0129601702180636
0.3002999999999999,-0.012977146753661982
0.2992999999999999,-0.013009685113558878
0.2982999999999999,-0.013087494235051454
0.2972999999999999,-0.013118617883648485
0.2962999999999999,-0.01311437374974889
0.2952999999999999,-0.01313983855314646
0.2942999999999999,-0.01313700913054673
0.2932999999999999,-0.013230380076337823
0.2922999999999999,-0.013268577281434178
0.2912999999999999,-0.013243112478036608
0.2902999999999999,-0.01326291843623472
0.2892999999999999,-0.01330253035263094
0.2882999999999999,-0.013364777649825002
0.2872999999999999,-0.013418536679219873
0.2862999999999999,-0.013394486587122167
0.2852999999999999,-0.013425610235719199
0.2842999999999999,-0.013448245616517038
0.2832999999999999,-0.013520395892810155
0.2822999999999999,-0.013562837231806107
0.2812999999999999,-0.013560007809206376
0.2802999999999999,-0.013551519541407186
0.2792999999999999,-0.013602449148202328
0.2782999999999999,-0.013647719909798009
0.2772999999999999,-0.013687331826194232
0.2762999999999999,-0.013702893650492745
0.2752999999999999,-0.01370996720699207
0.2742999999999999,-0.013732602587789912
0.2732999999999999,-0.013794849884983973
0.2722999999999999,-0.013811826420582355
0.2712999999999999,-0.013835876512680059
0.2702999999999999,-0.013845779491779115
0.2692999999999999,-0.013868414872576954
0.26829999999999987,-0.013932076881070883
0.26729999999999987,-0.013988665333065482
0.26629999999999987,-0.013990080044365347
0.26529999999999987,-0.013985835910465752
0.26429999999999987,-0.014001397734764267
0.26329999999999987,-0.014084865701456305
0.26229999999999987,-0.01410608637095428
0.26129999999999987,-0.014110330504853877
0.26029999999999986,-0.014127307040452258
0.25929999999999986,-0.014132965885651718
0.25829999999999986,-0.014217848563643616
0.25729999999999986,-0.01424614278964092
0.25629999999999986,-0.01424614278964092
0.25529999999999986,-0.01426028990263957
0.25429999999999986,-0.014288584128636872
0.25329999999999986,-0.014359319693630123
0.25229999999999986,-0.014401761032626074
0.25129999999999986,-0.014401761032626074
0.25029999999999986,-0.014387613919627423
0.24929999999999986,-0.014415908145624722
0.24829999999999985,-0.014472496597619325
0.24729999999999985,-0.014543232162612576
0.24629999999999985,-0.014543232162612576
0.24529999999999985,-0.014585673501608528
0.24429999999999985,-0.01461396772760583
0.24329999999999985,-0.01465640906660178
0.24229999999999985,-0.01469885040559773
0.24129999999999985,-0.014684703292599082
0.24029999999999985,-0.014684703292599082
0.23929999999999985,-0.014727144631595034
0.23829999999999985,-0.014783733083589632
0.23729999999999984,-0.014812027309586936
0.23629999999999984,-0.014826174422585584
0.23529999999999984,-0.014826174422585584
0.23429999999999984,-0.014854468648582884
0.23329999999999984,-0.014911057100577486
0.23229999999999984,-0.014967645552572089
0.23129999999999984,-0.014953498439573438
0.23029999999999984,-0.014953498439573438
0.22929999999999984,-0.014981792665570736
0.22829999999999984,-0.01505252823056399
0.22729999999999984,-0.015080822456561293
0.22629999999999983,-0.01509496956955994
0.22529999999999983,-0.015109116682558592
0.22429999999999983,-0.015109116682558592
0.22329999999999983,-0.015179852247551842
0.22229999999999983,-0.015236440699546445
0.22129999999999983,-0.015222293586547794
0.22029999999999983,-0.015250587812545097
0.21929999999999983,-0.015264734925543746
0.21829999999999983,-0.015335470490536997
0.21729999999999983,-0.015377911829532949
0.21629999999999983,-0.0153637647165343
0.21529999999999982,-0.015406206055530251
0.21429999999999982,-0.015392058942531598
0.21329999999999982,-0.015476941620523503
0.21229999999999982,-0.015533530072518101
0.21129999999999982,-0.015519382959519455
0.21029999999999982,-0.015533530072518101
0.20929999999999982,-0.015561824298515404
0.20829999999999982,-0.015604265637511355
0.20729999999999982,-0.015660854089505957
0.20629999999999982,-0.015660854089505957
0.20529999999999982,-0.01568914831550326
0.20429999999999982,-0.015703295428501907
0.20329999999999981,-0.01575988388049651
0.2022999999999998,-0.01580232521949246
0.2012999999999998,-0.01580232521949246
0.20029999999999992,-0.01581647233249111
0.19929999999999992,-0.01584476655848841
0.19829999999999992,-0.01588720789748436
0.19729999999999992,-0.015943796349478963
0.19629999999999992,-0.015929649236480315
0.19529999999999992,-0.015943796349478963
0.19429999999999992,-0.016028679027470863
0.19329999999999992,-0.016127708818461418
0.19229999999999992,-0.01611356170546277
0.19129999999999991,-0.01611356170546277
0.1902999999999999,-0.01611356170546277
0.1892999999999999,-0.01614185593146007
0.1882999999999999,-0.016212591496453318
0.1872999999999999,-0.01625503283544927
0.1862999999999999,-0.01625503283544927
0.1852999999999999,-0.016269179948447923
0.1842999999999999,-0.016283327061446574
0.1832999999999999,-0.016368209739438477
0.1822999999999999,-0.016410651078434424
0.1812999999999999,-0.016410651078434424
0.1802999999999999,-0.016438945304431726
0.1792999999999999,-0.016424798191433075
0.1782999999999999,-0.01652382798242363
0.1772999999999999,-0.01658041643441823
0.1762999999999999,-0.01656626932141958
0.1752999999999999,-0.01660871066041553
0.1742999999999999,-0.01660871066041553
0.1732999999999999,-0.01666529911241013
0.1722999999999999,-0.016750181790402035
0.1712999999999999,-0.01673603467740338
0.1702999999999999,-0.01673603467740338
0.1692999999999999,-0.016792623129397985
0.1682999999999999,-0.016863358694391237
0.1672999999999999,-0.01690580003338719
0.1662999999999999,-0.01690580003338719
0.1652999999999999,-0.01693409425938449
0.1642999999999999,-0.016948241372383138
0.1632999999999999,-0.017004829824377742
0.1622999999999999,-0.017089712502369642
0.1612999999999999,-0.017075565389370995
0.1602999999999999,-0.017075565389370995
0.1592999999999999,-0.017132153841365592
0.15829999999999989,-0.017174595180361543
0.15729999999999988,-0.0172453307453548
0.15629999999999988,-0.017259477858353446
0.15529999999999988,-0.017259477858353446
0.15429999999999988,-0.0173019191973494
0.15329999999999988,-0.017372654762342652
0.15229999999999988,-0.017429243214337253
0.15129999999999988,-0.017457537440334552
0.15029999999999988,-0.017471684553333203
0.14929999999999988,-0.01748583166633185
0.14829999999999988,-0.017556567231325104
0.14729999999999988,-0.017599008570321057
0.14629999999999987,-0.017599008570321057
0.14529999999999987,-0.017613155683319705
0.14429999999999987,-0.017641449909317007
0.14329999999999987,-0.017754626813306213
0.14229999999999987,-0.017825362378299462
0.14129999999999987,-0.01781121526530081
0.14029999999999987,-0.017839509491298113
0.13929999999999987,-0.017867803717295416
0.13829999999999987,-0.017938539282288665
0.13729999999999987,-0.017980980621284618
0.13629999999999987,-0.018009274847281917
0.13529999999999986,-0.018023421960280565
0.13429999999999986,-0.018051716186277867
0.13329999999999986,-0.01812245175127112
0.13229999999999986,-0.01817904020326572
0.13129999999999986,-0.01816489309026707
0.13029999999999986,-0.01820733442926302
0.12929999999999986,-0.018249775768258973
0.12829999999999986,-0.018306364220253574
0.12729999999999986,-0.018377099785246823
0.12629999999999986,-0.018377099785246823
0.12529999999999986,-0.018405394011244126
0.12429999999999986,-0.018447835350240076
0.12329999999999985,-0.01850442380223468
0.12229999999999985,-0.01858930648022658
0.12129999999999985,-0.01858930648022658
0.12029999999999985,-0.018603453593225232
0.11929999999999985,-0.018645894932221182
0.11829999999999985,-0.018744924723211737
0.11729999999999985,-0.018815660288204986
0.11629999999999985,-0.018843954514202284
0.11529999999999985,-0.018843954514202284
0.11429999999999985,-0.018886395853198238
0.11329999999999985,-0.018957131418191494
0.11229999999999984,-0.019027866983184743
0.11129999999999984,-0.019027866983184743
0.11029999999999984,-0.019042014096183394
0.10929999999999984,-0.019112749661176646
0.10829999999999984,-0.019197632339168547
0.10729999999999984,-0.019240073678164497
0.10629999999999984,-0.019254220791163148
0.10529999999999984,-0.0192683679041618
0.10429999999999984,-0.0193249563561564
0.10329999999999984,-0.019395691921149656
0.10229999999999984,-0.019466427486142905
0.10129999999999983,-0.019494721712140204
0.10029999999999983,-0.01950886882513886
0.09929999999999983,-0.019523015938137503
0.09829999999999983,-0.019622045729128058
0.09729999999999983,-0.01970692840711996
0.09629999999999983,-0.01970692840711996
0.09529999999999983,-0.01973522263311726
0.09429999999999983,-0.019777663972113214
0.09329999999999983,-0.019862546650105117
0.09229999999999983,-0.019933282215098366
0.09129999999999983,-0.019947429328097017
0.09029999999999982,-0.01997572355409432
0.08929999999999982,-0.020018164893090266
0.08829999999999982,-0.02008890045808352
0.08729999999999982,-0.020173783136075422
0.08629999999999982,-0.020187930249074077
0.08529999999999982,-0.020230371588070024
0.08429999999999982,-0.020272812927065977
0.08329999999999982,-0.02032940137906058
0.08229999999999982,-0.02041428405705248
0.08129999999999982,-0.020442578283049778
0.08029999999999982,-0.020442578283049778
0.07929999999999982,-0.020513313848043033
0.07829999999999981,-0.020584049413036282
0.07729999999999981,-0.020654784978029535
0.07629999999999981,-0.020697226317025485
0.07529999999999992,-0.020697226317025485
0.07429999999999992,-0.02078210899501739
0.07329999999999992,-0.02086699167300929
0.07229999999999992,-0.020923580125003893
0.07129999999999992,-0.020966021463999843
0.07029999999999992,-0.020966021463999843
0.06929999999999992,-0.021008462802995797
0.06829999999999992,-0.021093345480987697
0.06729999999999992,-0.021164081045980946
0.06629999999999991,-0.0212065223849769
0.06529999999999991,-0.0212348166109742
0.06429999999999991,-0.0212631108369715
0.06329999999999991,-0.021376287740960703
0.06229999999999991,-0.021447023305953956
0.06129999999999991,-0.021461170418952607
0.06029999999999991,-0.02150361175794856
0.05929999999999991,-0.02153190598394586
0.05829999999999991,-0.02163093577493641
0.05729999999999991,-0.021715818452928314
0.056299999999999906,-0.021729965565926962
0.055299999999999905,-0.021772406904922915
0.054299999999999904,-0.021828995356917517
0.0532999999999999,-0.021928025147908068
0.0522999999999999,-0.022027054938898623
0.0512999999999999,-0.022069496277894573
0.0502999999999999,-0.022069496277894573
0.0492999999999999,-0.022126084729889174
0.0482999999999999,-0.022210967407881078
0.0472999999999999,-0.02230999719887163
0.0462999999999999,-0.022295850085872978
0.045299999999999896,-0.02232414431187028
0.044299999999999895,-0.02239487987686353
0.043299999999999894,-0.022493909667854084
0.04229999999999989,-0.022564645232847336
0.04129999999999989,-0.022592939458844635
0.04029999999999989,-0.022663675023837888
0.03929999999999989,-0.02270611636283384
0.03829999999999989,-0.02277685192782709
0.03729999999999989,-0.022861734605818994
0.03629999999999989,-0.02287588171881764
0.03529999999999989,-0.022904175944814944
0.034299999999999886,-0.022974911509808196
0.033299999999999885,-0.023073941300798748
0.032299999999999884,-0.02313052975279335
0.031299999999999883,-0.023172971091789302
0.030299999999999883,-0.02318711820478795
0.02929999999999988,-0.02324370665678255
0.02829999999999988,-0.023328589334774455
0.02729999999999988,-0.023441766238763657
0.02629999999999988,-0.02347006046476096
0.025299999999999878,-0.023498354690758262
0.024299999999999877,-0.02354079602975421
0.023299999999999876,-0.02365397293374341
0.022299999999999875,-0.023724708498736664
0.021299999999999875,-0.023753002724733966
0.020299999999999874,-0.023795444063729916
0.019299999999999873,-0.023837885402725866
0.018299999999999872,-0.02395106230671507
0.01729999999999987,-0.024035944984706972
0.01629999999999987,-0.024035944984706972
0.01529999999999987,-0.024106680549700225
0.014299999999999868,-0.024149121888696175
0.013299999999999867,-0.02426229879268538
0.012299999999999978,-0.02434718147067728
0.011299999999999866,-0.02438962280967323
0.010299999999999976,-0.024417917035670533
0.009299999999999864,-0.024460358374666487
0.008299999999999974,-0.02457353527865569
0.007299999999999862,-0.02467256506964624
0.006299999999999972,-0.02468671218264489
0.00529999999999986,-0.02474330063463949
0.0042999999999999705,-0.024785741973635443
0.0032999999999998586,-0.024870624651627343
0.0022999999999999687,-0.024983801555616546
0.0012999999999998568,-0.0250262428946125
0.00029999999999996696,-0.0250545371206098
-0.000700000000000145,-0.02512527268560305
-0.0017000000000000348,-0.025224302476593602
-0.0027000000000001467,-0.025309185154585506
-0.0037000000000000366,-0.02535162649358146
-0.0047000000000001485,-0.025365773606580107
-0.005700000000000038,-0.02545065628457201
-0.00670000000000015,-0.02553553896256391
-0.00770000000000004,-0.025648715866553113
-0.008700000000000152,-0.025691157205549067
-0.009700000000000042,-0.025719451431546365
-0.010700000000000154,-0.02580433410953827
-0.011700000000000044,-0.02591751101352747
-0.012700000000000156,-0.02600239369151937
-0.013700000000000045,-0.026044835030515325
-0.014700000000000157,-0.026087276369511275
-0.015700000000000047,-0.02614386482150588
-0.01670000000000016,-0.02624289461249643
-0.01770000000000005,-0.02632777729048833
-0.01870000000000016,-0.026384365742482933
-0.01970000000000005,-0.026426807081478886
-0.020700000000000163,-0.026469248420474833
-0.021700000000000053,-0.02659657243746269
-0.022700000000000164,-0.02668145511545459
-0.023700000000000054,-0.026723896454450544
-0.024700000000000166,-0.026808779132442447
-0.025700000000000056,-0.026851220471438397
-0.026700000000000168,-0.026936103149430297
-0.027700000000000058,-0.02703513294042085
-0.02870000000000017,-0.027063427166418155
-0.02970000000000006,-0.027120015618412752
-0.03070000000000017,-0.027176604070407354
-0.03170000000000006,-0.02727563386139791
-0.03270000000000017,-0.027374663652388463
-0.03370000000000006,-0.02738881076538711
-0.034700000000000175,-0.027445399217381712
-0.035700000000000065,-0.027516134782374965
-0.03670000000000018,-0.027615164573365516
-0.03770000000000007,-0.027714194364356067
-0.03870000000000018,-0.02775663570335202
-0.03970000000000007,-0.027799077042347967
-0.04070000000000018,-0.027841518381343924
-0.04170000000000007,-0.02796884239833177
-0.04270000000000018,-0.02806787218932233
-0.04370000000000007,-0.02809616641531963
-0.044700000000000184,-0.028124460641316927
-0.045700000000000074,-0.02819519620631018
-0.046700000000000186,-0.028308373110299385
-0.047700000000000076,-0.028393255788291286
-0.04870000000000019,-0.028449844240285887
-0.04970000000000008,-0.02849228557928184
-0.05070000000000019,-0.028563021144275093
-0.05170000000000008,-0.028676198048264292
-0.05270000000000019,-0.028775227839254847
-0.05370000000000008,-0.028831816291249444
-0.05470000000000019,-0.028860110517246747
-0.05570000000000008,-0.028916698969241348
-0.056700000000000195,-0.029044022986229205
-0.057700000000000085,-0.029100611438223806
-0.058700000000000196,-0.029157199890218404
-0.059700000000000086,-0.029185494116215707
-0.0607000000000002,-0.029242082568210308
-0.06170000000000009,-0.029383553698196813
-0.0627000000000002,-0.02949673060218601
-0.06370000000000009,-0.02949673060218601
