Potential V vs RHE, Current mA cm-2
0.013299999999999867,-0.2202705493889862
0.012299999999999978,-2.706342716641815
0.011299999999999866,-4.668547289554621
0.010299999999999976,-6.500598422879844
0.009299999999999864,-8.070927965730034
0.008299999999999974,-9.379535918105192
0.007299999999999862,-10.25241279012192
0.006299999999999972,-10.993721511251199
0.00529999999999986,-11.82274233297211
0.0042999999999999705,-12.73806054398479
0.0032999999999998586,-13.3930718758223
0.0022999999999999687,-13.784946905884919
0.0012999999999998568,-14.13438059695158
0.00029999999999996696,-14.61396772760583
-0.000700000000000145,-15.222293586547794
-0.0017000000000000348,-15.618412750510005
-0.0027000000000001467,-15.78817810649381
-0.0037000000000000366,-15.972090575476265
-0.0047000000000001485,-16.269179948447924
-0.005700000000000038,-16.665299112410132
-0.00670000000000015,-16.919947146385837
-0.00770000000000004,-16.962388485381787
-0.008700000000000152,-17.061418276372343
-0.009700000000000042,-17.2736249713521
-0.010700000000000154,-17.627302796318357
-0.011700000000000044,-17.797068152302163
-0.012700000000000156,-17.797068152302163
-0.013700000000000045,-17.839509491298113
-0.014700000000000157,-18.009274847281915
-0.015700000000000047,-18.27806999425627
-0.01670000000000016,-18.49027668923603
-0.01770000000000005,-18.44783535024008
-0.01870000000000016,-18.44783535024008
-0.01970000000000005,-18.631747819222536
-0.020700000000000163,-18.843954514202288
-0.021700000000000053,-18.97127853119014
-0.022700000000000164,-18.843954514202288
-0.023700000000000054,-18.80151317520634
-0.024700000000000166,-18.92883719219419
-0.025700000000000056,-19.155191000172596
-0.026700000000000168,-19.2400736781645
-0.027700000000000058,-19.197632339168546
-0.02870000000000017,-19.155191000172596
-0.02970000000000006,-19.2400736781645
-0.03070000000000017,-19.49472171214021
-0.03170000000000006,-19.579604390132108
-0.03270000000000017,-19.49472171214021
-0.03370000000000006,-19.452280373144255
-0.034700000000000175,-19.537163051136158
-0.035700000000000065,-19.805958198110513
-0.03670000000000018,-19.848399537106463
-0.03770000000000007,-19.763516859114564
-0.03870000000000018,-19.678634181122664
-0.03970000000000007,-19.763516859114564
-0.04070000000000018,-19.93328221509837
-0.04170000000000007,-20.06060623208622
-0.04270000000000018,-19.93328221509837
-0.04370000000000007,-19.848399537106463
-0.044700000000000184,-19.93328221509837
-0.045700000000000074,-20.159636023076775
-0.046700000000000186,-20.202077362072725
-0.047700000000000076,-20.10304757108217
-0.04870000000000019,-20.06060623208622
-0.04970000000000008,-20.159636023076775
-0.05070000000000019,-20.329401379060574
-0.05170000000000008,-20.371842718056527
-0.05270000000000019,-20.244518701068674
-0.05370000000000008,-20.159636023076775
-0.05470000000000019,-20.286960040064624
-0.05570000000000008,-20.499166735044383
-0.056700000000000195,-20.626490752032236
-0.057700000000000085,-20.541608074040333
-0.058700000000000196,-20.456725396048434
-0.059700000000000086,-20.541608074040333
-0.0607000000000002,-20.72552054302279
-0.06170000000000009,-20.810403221014692
-0.0627000000000002,-20.626490752032236
-0.06370000000000009,-20.499166735044383
-0.0647000000000002,-20.626490752032236
-0.06570000000000009,-20.76796188201874
-0.0667000000000002,-20.810403221014692
-0.0677000000000001,-20.72552054302279
-0.0687000000000002,-20.584049413036283
-0.0697000000000001,-20.72552054302279
-0.07070000000000021,-20.93772723800254
-0.0717000000000001,-21.022609915994444
-0.07270000000000021,-20.89528589900659
-0.0737000000000001,-20.810403221014692
-0.07470000000000021,-20.93772723800254
-0.0757000000000001,-21.2065223849769
-0.07670000000000021,-21.248963723972853
-0.0777000000000001,-21.149933932982297
-0.07870000000000021,-21.022609915994444
-0.0797000000000001,-21.107492593986347
-0.08070000000000022,-21.333846401964752
-0.0817000000000001,-21.376287740960702
-0.08270000000000022,-21.248963723972853
-0.08370000000000011,-21.149933932982297
-0.08470000000000022,-21.248963723972853
-0.08570000000000011,-21.418729079956652
-0.08670000000000022,-21.503611757948562
-0.08770000000000011,-21.418729079956652
-0.08870000000000022,-21.333846401964752
-0.08970000000000011,-21.461170418952605
-0.09070000000000022,-21.67337711393236
-0.09170000000000011,-21.772406904922917
-0.09270000000000023,-21.67337711393236
-0.09370000000000012,-21.58849443594046
-0.09470000000000023,-21.729965565926964
-0.09570000000000012,-21.94217226090672
-0.09670000000000023,-21.98461359990267
-0.09770000000000012,-21.857289582914817
-0.09870000000000023,-21.772406904922917
-0.09970000000000012,-21.857289582914817
-0.10070000000000023,-22.027054938898623
-0.10170000000000012,-22.069496277894572
-0.10270000000000024,-22.027054938898623
-0.10370000000000013,-21.899730921910766
-0.10470000000000024,-22.069496277894572
-0.10570000000000013,-22.33829142486893
-0.10670000000000024,-22.42317410286083
-0.10770000000000013,-22.38073276386488
-0.10870000000000024,-22.33829142486893
-0.10970000000000013,-22.46561544185678
-0.11070000000000024,-22.72026347583249
-0.11170000000000013,-22.819293266823045
-0.11270000000000002,-22.72026347583249
-0.11370000000000013,-22.67782213683654
-0.11470000000000002,-22.819293266823045
-0.11570000000000014,-23.073941300798747
-0.11670000000000003,-23.15882397879065
-0.11770000000000014,-23.15882397879065
-0.11870000000000003,-23.073941300798747
-0.11970000000000014,-23.24370665678255
-0.12070000000000003,-23.51250180375691
-0.12170000000000014,-23.597384481748815
-0.12270000000000003,-23.55494314275286
-0.12370000000000014,-23.55494314275286
-0.12470000000000003,-23.682267159740714
-0.12570000000000014,-23.951062306715073
-0.12670000000000003,-24.078386323702922
-0.12770000000000015,-23.993503645711023
-0.12870000000000004,-23.951062306715073
-0.12970000000000015,-24.16326900169483
-0.13070000000000004,-24.432064148669184
-0.13170000000000015,-24.559388165657033
-0.13270000000000004,-24.559388165657033
-0.13370000000000015,-24.559388165657033
-0.13470000000000004,-24.729153521640843
-0.13570000000000015,-24.997948668615198
-0.13670000000000004,-25.12527268560305
-0.13770000000000016,-25.0828313466071
-0.13870000000000005,-25.04039000761115
-0.13970000000000016,-25.210155363594954
-0.14070000000000005,-25.478950510569312
-0.14170000000000016,-25.60627452755716
-0.14270000000000005,-25.563833188561212
-0.14370000000000016,-25.563833188561212
-0.14470000000000005,-25.77603988354097
-0.14570000000000016,-26.044835030515326
-0.14670000000000005,-26.21460038649913
-0.14770000000000016,-26.17215904750318
-0.14870000000000005,-26.17215904750318
-0.14970000000000017,-26.38436574248293
-0.15070000000000006,-26.69560222845324
-0.15170000000000017,-26.822926245441096
-0.15270000000000006,-26.86536758443705
-0.15370000000000017,-26.86536758443705
-0.15470000000000006,-27.049280053419505
-0.15570000000000017,-27.38881076538711
-0.15670000000000006,-27.572723234369565
-0.15770000000000017,-27.530281895373616
-0.15870000000000006,-27.572723234369565
-0.15970000000000018,-27.742488590353368
-0.16070000000000007,-28.09616641531963
-0.16170000000000018,-28.265931771303435
-0.16270000000000007,-28.265931771303435
-0.16370000000000018,-28.350814449295335
-0.16470000000000007,-28.577168257273744
-0.16570000000000018,-28.831816291249446
-0.16670000000000007,-29.058170099227848
-0.16770000000000018,-29.058170099227848
-0.16870000000000007,-29.14305277721976
-0.16970000000000018,-29.39770081119546
-0.17070000000000007,-29.751378636161718
-0.17170000000000019,-29.96358533114148
-0.17270000000000008,-29.921143992145527
-0.1737000000000002,-29.96358533114148
-0.17470000000000008,-30.274821817111786
-0.1757000000000002,-30.571911190083444
-0.17670000000000008,-30.79826499806185
-0.1777000000000002,-30.79826499806185
-0.17870000000000008,-30.8407063370578
-0.1797000000000002,-31.095354371033505
-0.18070000000000008,-31.449032195999767
-0.1817000000000002,-31.717827342974125
-0.18270000000000008,-31.802710020966025
-0.1837000000000002,-31.930034037953877
-0.1847000000000001,-32.184682071929586
-0.1857000000000002,-32.58080123589179
-0.1867000000000001,-32.84959638286615
-0.1877000000000002,-32.892037721862096
-0.1887000000000001,-32.97692039985401
-0.1897000000000002,-33.231568433829715
-0.1907000000000001,-33.627687597791926
-0.1917000000000001,-33.89648274476628
-0.19269999999999998,-34.02380676175414
-0.1937000000000001,-34.15113077874198
-0.19469999999999998,-34.41992592571634
-0.1957000000000001,-34.85848642867451
-0.19669999999999999,-35.11313446265021
-0.1977000000000001,-35.198017140642115
-0.1987,-35.32534115762997
-0.1997000000000001,-35.636577643600276
-0.2007,-36.11757948555439
-0.2017000000000001,-36.37222751953009
-0.2027,-36.5136986495166
-0.2037000000000001,-36.64102266650445
-0.2047,-36.89567070048016
-0.2057000000000001,-37.334231203438314
-0.2067,-37.687909028404576
-0.2077000000000001,-37.77279170639648
-0.2087,-37.90011572338433
-0.2097000000000001,-38.211352209354644
-0.2107,-38.6499127123128
-0.2117000000000001,-39.046031876275016
-0.2127,-39.173355893262865
-0.2137000000000001,-39.34312124924667
-0.2147,-39.739240413208876
-0.2157000000000001,-40.26268359415894
-0.2167,-40.616361419125205
-0.21770000000000012,-40.701244097117105
-0.2187,-40.87100945310091
-0.21970000000000012,-41.22468727806717
-0.2207,-41.66324778102533
-0.22170000000000012,-42.00277849299294
-0.2227,-42.186690961975394
-0.22370000000000012,-42.31401497896325
-0.2247,-42.71013414292546
-0.22570000000000012,-43.17698887188092
-0.2267,-43.53066669684718
-0.22770000000000012,-43.75702050482558
-0.22870000000000001,-43.92678586080939
-0.22970000000000013,-44.36534636376755
-0.23070000000000002,-44.88878954471762
-0.23170000000000013,-45.22832025668522
-0.23270000000000002,-45.497115403659585
-0.23370000000000013,-45.70932209863933
-0.23470000000000002,-46.062999923605595
-0.23570000000000013,-46.586443104555656
-0.23670000000000002,-47.02500360751382
-0.2376999999999999,-47.19476896349763
-0.23870000000000002,-47.46356411047198
-0.2396999999999999,-47.8879775004315
-0.24070000000000003,-48.51045047237211
-0.24169999999999991,-48.89242252333566
-0.24270000000000003,-49.20365900930597
-0.24369999999999992,-49.50074838227763
-0.24470000000000003,-49.939308885235796
-0.24569999999999992,-50.50519340518181
-0.24670000000000003,-50.943753908139975
-0.24769999999999992,-51.21254905511432
-0.24870000000000003,-51.46719708909004
-0.24969999999999992,-51.948198931044146
-0.25070000000000003,-52.55652478998611
-0.2516999999999999,-53.079967970936174
-0.25270000000000004,-53.39120445690648
-0.2536999999999999,-53.7873236208687
-0.25470000000000004,-54.31076680181876
-0.2556999999999999,-54.919092660760725
-0.25670000000000004,-55.442535841710786
-0.25769999999999993,-55.73962521468245
-0.25870000000000004,-56.05086170065276
-0.25969999999999993,-56.57430488160282
-0.26070000000000004,-57.14018940154883
-0.26169999999999993,-57.66363258249889
-0.26270000000000004,-58.017310407465146
-0.26369999999999993,-58.31439978043681
-0.26470000000000005,-58.880284300382826
-0.26569999999999994,-59.6300812893113
-0.26670000000000005,-60.19596580925731
-0.26769999999999994,-60.54964363422357
-0.26870000000000005,-60.889174346191176
-0.26969999999999994,-61.455058866137186
-0.27070000000000005,-62.06338472507916
-0.27169999999999994,-62.64341635802381
-0.27270000000000005,-62.98294706999144
-0.27369999999999994,-63.3366248949577
-0.27470000000000006,-63.902509414903705
-0.27569999999999995,-64.59571795183757
-0.27670000000000006,-65.16160247178358
-0.27769999999999995,-65.51528029674984
-0.27870000000000006,-65.91139946071206
-0.27969999999999995,-66.47728398065809
-0.28070000000000006,-67.128051178596
-0.28169999999999995,-67.693935698542
-0.28270000000000006,-68.04761352350828
-0.28369999999999995,-68.38714423547587
-0.28470000000000006,-68.96717586842054
-0.28569999999999995,-69.70282574435035
-0.28670000000000007,-70.31115160329232
-0.28769999999999996,-70.74971210625048
-0.28870000000000007,-71.1458312702127
-0.28969999999999996,-71.7965984681506
-0.29070000000000007,-72.48980700508447
-0.29169999999999996,-73.15472131602105
-0.29270000000000007,-73.53669336698461
-0.29369999999999996,-73.93281253094682
-0.2947000000000001,-74.58357972888473
-0.29569999999999996,-75.33337671781321
-0.2967000000000001,-75.98414391575112
-0.29769999999999996,-76.46514575770523
-0.2987000000000001,-76.98858893865528
-0.29969999999999997,-77.68179747558916
-0.3007000000000001,-78.51647714250953
-0.30169999999999997,-79.20968567944341
-0.3027000000000001,-79.7755701993894
-0.30369999999999997,-80.34145471933543
-0.3047000000000001,-81.09125170826391
-0.30569999999999997,-81.95422560118158
-0.3067000000000001,-82.70402259011003
-0.3077,-83.22746577106011
-0.3087000000000001,-83.75090895201016
-0.3097,-84.44411748894404
-0.3107000000000001,-85.32123849486035
-0.3117,-86.05688837079018
-0.3127000000000001,-86.7076555687281
-0.3137,-87.37256987966467
-0.3147000000000001,-88.15066109459043
-0.3157,-89.07022343950271
-0.3167000000000001,-89.84831465442848
-0.3177,-90.41419917437449
-0.3187000000000001,-91.03667214631511
-0.3197,-91.81476336124088
-0.3207000000000001,-92.6918843671572
-0.3217,-93.46997558208298
-0.3227000000000001,-94.07830144102493
-0.3237,-94.7432157519615
-0.3247000000000001,-95.56374830588322
-0.3257,-96.52575198979144
-0.3267000000000001,-97.40287299570777
-0.3277,-98.05364019364569
-0.3287000000000001,-98.74684873057957
-0.3297,-99.62396973649588
-0.3307000000000001,-100.62841475940007
-0.3317,-101.59041844330828
-0.3327000000000001,-102.28362698024215
-0.3337,-102.97683551717601
-0.3347000000000001,-103.93883920108425
-0.3357,-104.90084288499246
-0.3367000000000001,-105.7779638909088
-0.3377,-106.4287310888467
-0.3387000000000001,-107.12193962578058
-0.3397,-108.0839433096888
-0.3407000000000001,-109.08838833259297
-0.3417,-110.00795067750525
-0.3427000000000001,-110.74360055343507
-0.3437,-111.49339754236355
-0.3447000000000001,-112.48369545226906
-0.3457,-113.58717026616378
-0.3467000000000001,-114.57746817606933
-0.3477,-115.4121478429897
-0.3487000000000001,-116.24682750991008
-0.3497,-117.25127253281424
-0.3507000000000001,-118.29815889471436
-0.3517,-119.20357412662798
-0.3527000000000001,-119.99581245455242
-0.3537,-120.77390366947817
-0.3547000000000001,-121.77834869238235
-0.3557,-122.91011773227437
-0.35670000000000013,-123.95700409417452
-0.3577,-124.87656643908679
-0.35870000000000013,-125.79612878399907
-0.3597,-127.012780501883
-0.36070000000000013,-128.41334468874936
-0.3617,-129.58755506763737
-0.3626999999999999,-130.59200009054155
-0.3637,-131.5115624354538
-0.3646999999999999,-132.55844879735392
-0.3657,-133.73265917624192
-0.3666999999999999,-134.82198687713802
-0.3677,-135.65666654405837
-0.3686999999999999,-136.562081775972
-0.36970000000000003,-137.70799792886265
-0.3706999999999999,-138.96709098574257
-0.37170000000000003,-140.14130136463055
-0.3726999999999999,-141.27307040452254
-0.37370000000000003,-142.31995676642268
-0.3746999999999999,-143.73466806628772
-0.37570000000000003,-145.14937936615277
-0.3766999999999999,-146.4226195360313
-0.37770000000000004,-147.55438857592333
-0.3786999999999999,-148.68615761581535
-0.37970000000000004,-149.95939778569388
-0.3806999999999999,-151.37410908555893
-0.38170000000000004,-152.64734925543743
-0.38269999999999993,-153.77911829532948
-0.38370000000000004,-154.9108873352215
-0.38469999999999993,-156.18412750510007
-0.38570000000000004,-157.59883880496508
-0.38669999999999993,-156.75001202504606
-0.38570000000000004,-152.36440699546444
-0.38469999999999993,-148.82762874580186
-0.38370000000000004,-145.85673501608528
-0.38269999999999993,-143.3102546763282
-0.38170000000000004,-140.70718588457655
-0.3806999999999999,-138.04752864083028
-0.37970000000000004,-135.51519541407185
-0.3786999999999999,-133.2516573342878
-0.37770000000000004,-131.2003259494835
-0.3766999999999999,-129.1489945646792
-0.37570000000000003,-126.88545648489513
-0.3746999999999999,-124.70680108310299
-0.37370000000000003,-122.69791103729463
-0.3726999999999999,-120.81634500847414
-0.37170000000000003,-118.86404341466037
-0.3706999999999999,-116.72782935186417
-0.36970000000000003,-114.63405662806393
-0.3686999999999999,-112.75249059924342
-0.3677,-111.09727837840134
-0.3666999999999999,-109.30059502757274
-0.3657,-107.39073477275493
-0.3646999999999999,-105.46672740493848
-0.3637,-103.81151518409638
-0.3626999999999999,-102.24118564124619
-0.3617,-100.58597342040412
-0.36070000000000013,-98.74684873057957
-0.3597,-96.87942981475771
-0.35870000000000013,-95.12518780292505
-0.3577,-93.69632939006138
-0.35670000000000013,-91.68743934425302
-0.3557,-90.11710980140283
-0.3547000000000001,-88.9853407615108
-0.3537,-87.75454193062824
-0.3527000000000001,-86.5378902127443
-0.3517,-85.32123849486035
-0.3507000000000001,-83.66602627401826
-0.3497,-81.99666694017753
-0.3487000000000001,-80.42633739732734
-0.3477,-78.99747898446365
-0.3467000000000001,-77.46959078060941
-0.3457,-75.81437855976732
-0.3447000000000001,-74.14501922592657
-0.3437,-72.75860215205884
-0.3427000000000001,-71.48536198218031
-0.3417,-70.09894490831257
-0.3407000000000001,-68.57105670445833
-0.3397,-67.04316850060408
-0.3387000000000001,-65.76992833072556
-0.3377,-64.63815929083353
-0.3367000000000001,-63.37906623395363
-0.3357,-62.02094338608321
-0.3347000000000001,-60.67696765121143
-0.3337,-59.54519861131939
-0.3327000000000001,-58.45587091042332
-0.3317,-57.182630740544774
-0.3307000000000001,-55.73962521468245
-0.3297,-54.26832546282281
-0.3287000000000001,-53.079967970936174
-0.3277,-52.033081609036046
-0.3267000000000001,-50.90131256914402
-0.3257,-49.642219512264134
-0.3247000000000001,-48.32653800338966
-0.3237,-47.19476896349763
-0.3227000000000001,-46.2327652795894
-0.3217,-45.143437578693316
-0.3207000000000001,-43.79946184382153
-0.3197,-42.526221673943
-0.3187000000000001,-41.43689397304693
-0.3177,-40.51733162813464
-0.3167000000000001,-39.51288660523048
-0.3157,-38.253793548350586
-0.3147000000000001,-37.037141830466666
-0.3137,-35.99025546856653
-0.3127000000000001,-35.11313446265021
-0.3117,-34.15113077874198
-0.3107000000000001,-32.93447906085806
-0.3097,-31.76026868197007
-0.3087000000000001,-30.8407063370578
-0.3077,-30.00602667013743
-0.3067000000000001,-29.14305277721976
-0.30569999999999997,-28.05372507632368
-0.3047000000000001,-27.00683871442355
-0.30369999999999997,-26.129717708507226
-0.3027000000000001,-25.39406783257741
-0.30169999999999997,-24.559388165657033
-0.3007000000000001,-23.47006046476096
-0.29969999999999997,-22.42317410286083
-0.2987000000000001,-21.58849443594046
-0.29769999999999996,-20.89528589900659
-0.2967000000000001,-20.06060623208622
-0.29569999999999996,-19.112749661176647
-0.2947000000000001,-18.10830463827247
-0.29369999999999996,-17.40094898833995
-0.29270000000000007,-16.792623129397985
-0.29169999999999996,-16.014531914472215
-0.29070000000000007,-15.094969569559943
-0.28969999999999996,-14.175407224647667
-0.28870000000000007,-13.436927926118118
-0.28769999999999996,-12.869628694872238
-0.28670000000000007,-12.170761312738911
-0.28569999999999995,-11.255443101726232
-0.28470000000000006,-10.340124890713554
-0.28369999999999995,-9.685113558876042
-0.28270000000000006,-9.073958277334345
-0.28169999999999995,-8.4203616567967
-0.28070000000000006,-7.5474847847799715
-0.27969999999999995,-6.719878674358924
-0.27870000000000006,-6.064867342521412
-0.27769999999999995,-5.5414241615713475
-0.27670000000000006,-4.9302688800296535
-0.27569999999999995,-4.102662769608606
-0.27470000000000006,-3.361354048479327
-0.27369999999999994,-2.706342716641815
-0.27270000000000005,-2.226755585987568
-0.27169999999999994,-1.6594563547416883
-0.27070000000000005,-0.9181476336124089
-0.26969999999999994,-0.1330535977523067
-0.26870000000000005,0.43403342679859325
-0.26769999999999994,0.870188920546984
-0.26670000000000005,1.4373466806628774
