Potential V vs RHE, Current mA cm-2
0.05339999999999995,-0.02703513294042085
0.05239999999999995,-0.02819519620631018
0.051399999999999946,-0.028676198048264292
0.050399999999999945,-0.029015728760231903
0.049399999999999944,-0.029326965246202208
0.04839999999999994,-0.02966649595816982
0.04739999999999994,-0.030034320896134725
0.04639999999999994,-0.03033141026910639
0.04539999999999994,-0.030600205416080745
0.04439999999999994,-0.030883147676053754
0.04339999999999994,-0.031180237049025412
0.04239999999999994,-0.03151976776099302
0.04139999999999994,-0.031802710020966025
0.040399999999999936,-0.032085652280939035
0.039399999999999935,-0.03238274165391069
0.038399999999999934,-0.032722272365878304
0.03739999999999993,-0.033061803077845904
0.03639999999999993,-0.03337303956381622
0.03539999999999993,-0.03364183471079057
0.03439999999999993,-0.03395307119676088
0.03339999999999993,-0.034278454795729836
0.03239999999999993,-0.0346321326206961
0.03139999999999993,-0.03494336910666641
0.030399999999999927,-0.03522631136663941
0.029399999999999926,-0.035551694965608366
0.028399999999999925,-0.03587707856457733
0.027399999999999924,-0.03625905061554088
0.026399999999999924,-0.036584434214509846
0.025399999999999923,-0.03689567070048015
0.024399999999999922,-0.037221054299449115
0.02339999999999992,-0.03757473212441537
0.02239999999999992,-0.037956704175378934
0.02139999999999992,-0.03828208777434789
0.020399999999999918,-0.0385933242603182
0.019399999999999917,-0.03890456074628851
0.018399999999999916,-0.03927238568425342
0.017399999999999916,-0.03966850484821563
0.016399999999999915,-0.04002218267318189
0.015399999999999914,-0.040347566272150845
0.014399999999999913,-0.04068709698411845
0.013399999999999912,-0.04106906903508201
0.012399999999999911,-0.041465188199044226
0.01139999999999991,-0.041818866024010484
0.01039999999999991,-0.04217254384897674
0.009399999999999908,-0.04251207456094436
0.008399999999999908,-0.04287989949890925
0.007399999999999907,-0.04331846000186742
0.006399999999999906,-0.04367213782683368
0.005399999999999905,-0.044025815651799936
0.004399999999999904,-0.044393640589764846
0.003399999999999903,-0.044775612640728414
0.002399999999999902,-0.04521417314368657
0.0013999999999999013,-0.04559614519465013
0.00039999999999990044,-0.045963970132615044
-0.0006000000000001005,-0.046331795070579954
-0.0016000000000001013,-0.046713767121543515
-0.0026000000000001022,-0.047166474737500325
-0.003600000000000103,-0.04757674101446118
-0.004600000000000104,-0.04793041883942745
-0.005600000000000105,-0.04835483222938696
-0.006600000000000106,-0.04876509850634782
-0.007600000000000107,-0.049203659009305976
-0.008600000000000108,-0.04961392528626684
-0.009600000000000108,-0.0499958973372304
-0.01060000000000011,-0.050377869388193955
-0.01160000000000011,-0.05083057700415077
-0.012600000000000111,-0.051311578846104884
-0.013600000000000112,-0.051735992236064385
-0.014600000000000113,-0.052132111400026604
-0.015600000000000114,-0.05254237767698746
-0.016600000000000115,-0.05299508529294428
-0.017600000000000116,-0.05344779290890109
-0.018600000000000116,-0.053872206298860595
-0.019600000000000117,-0.05431076680181876
-0.020600000000000118,-0.05473518019177826
-0.02160000000000012,-0.05518788780773508
-0.02260000000000012,-0.05565474253669054
-0.02360000000000012,-0.05607915592665005
-0.024600000000000122,-0.05651771642960821
-0.025600000000000123,-0.05694212981956772
-0.026600000000000124,-0.05740898454852319
-0.027600000000000124,-0.057904133503475945
-0.028600000000000125,-0.058328546893435466
-0.029600000000000126,-0.058752960283394974
-0.030600000000000127,-0.05919152078635314
-0.03160000000000013,-0.05964422840230994
-0.03260000000000013,-0.06011108313126542
-0.03360000000000013,-0.060577937860220865
-0.03460000000000002,-0.06101649836317903
-0.03560000000000002,-0.061483353092134506
-0.03660000000000002,-0.061936060708091316
-0.03760000000000002,-0.06247365100204002
-0.03860000000000002,-0.06292635861799684
-0.039600000000000024,-0.06337906623395365
-0.040600000000000025,-0.06384592096290911
-0.041600000000000026,-0.06435521703086051
-0.04260000000000003,-0.06486451309881193
-0.04360000000000003,-0.0653596620537647
-0.04460000000000003,-0.06579822255672285
-0.04560000000000003,-0.06626507728567832
-0.04660000000000003,-0.06677437335362973
-0.04760000000000003,-0.06728366942158114
-0.04860000000000003,-0.06776467126353526
-0.04960000000000003,-0.06821737887949207
-0.050600000000000034,-0.06869838072144617
-0.051600000000000035,-0.0691793825634003
-0.052600000000000036,-0.06970282574435036
-0.053600000000000037,-0.07019797469930313
-0.05460000000000004,-0.07067897654125724
-0.05560000000000004,-0.07114583127021269
-0.05660000000000004,-0.07166927445116276
-0.05760000000000004,-0.07217857051911417
-0.05860000000000004,-0.07265957236106828
-0.05960000000000004,-0.07312642709002375
-0.06060000000000004,-0.07360742893197786
-0.061600000000000044,-0.07411672499992927
-0.06260000000000004,-0.07465431529387798
-0.06360000000000005,-0.07512117002283344
-0.06460000000000005,-0.07558802475178891
-0.06560000000000005,-0.07606902659374302
-0.06660000000000005,-0.07657832266169443
-0.06760000000000005,-0.0771017658426445
-0.06860000000000005,-0.07758276768459862
-0.06960000000000005,-0.07806376952655272
-0.07060000000000005,-0.07854477136850684
-0.07160000000000005,-0.07902577321046096
-0.07260000000000005,-0.079549216391411
-0.07360000000000005,-0.08004436534636378
-0.07460000000000006,-0.08048292584932194
-0.07560000000000006,-0.08094978057827738
-0.07660000000000006,-0.08145907664622881
-0.07760000000000006,-0.08199666694017753
-0.07860000000000006,-0.08246352166913298
-0.07960000000000006,-0.08291622928508981
-0.08060000000000006,-0.08336893690104662
-0.08160000000000006,-0.08380749740400478
-0.08260000000000006,-0.08430264635895754
-0.08360000000000006,-0.084769501087913
-0.08460000000000006,-0.08520806159087116
-0.08560000000000006,-0.08567491631982663
-0.08660000000000007,-0.08612762393578344
-0.08760000000000007,-0.08663692000373484
-0.08860000000000007,-0.08708962761969166
-0.08960000000000007,-0.08749989389665253
-0.09060000000000007,-0.08792430728661203
-0.09160000000000007,-0.08836286778957018
-0.09260000000000007,-0.08882972251852565
-0.09360000000000007,-0.08928243013448246
-0.09460000000000007,-0.08970684352444197
-0.09560000000000007,-0.09013125691440148
-0.09660000000000007,-0.09056981741735964
-0.09760000000000008,-0.09102252503331647
-0.09860000000000008,-0.09147523264927326
-0.09960000000000008,-0.09185720470023684
-0.10060000000000008,-0.09225332386419903
-0.10160000000000008,-0.09269188436715721
-0.10260000000000008,-0.09314459198311402
-0.10360000000000008,-0.09355485826007487
-0.10460000000000008,-0.09395097742403709
-0.10560000000000008,-0.09431880236200199
-0.10660000000000008,-0.09470077441296555
-0.10760000000000008,-0.09512518780292507
-0.10860000000000009,-0.09552130696688728
-0.10960000000000009,-0.09588913190485218
-0.11060000000000009,-0.0962569568428171
-0.11160000000000009,-0.096624781780782
-0.11260000000000009,-0.09703504805774286
-0.11360000000000009,-0.09738872588270912
-0.11460000000000009,-0.09772825659467674
-0.11560000000000009,-0.09806778730664434
-0.11660000000000009,-0.09840731801861195
-0.1176000000000001,-0.09880343718257417
-0.1186000000000001,-0.09912882078154311
-0.1196000000000001,-0.09942591015451478
-0.1206000000000001,-0.09973714664048508
-0.1216000000000001,-0.10006253023945405
-0.1226000000000001,-0.10043035517741895
-0.1236000000000001,-0.10072744455039061
-0.1246000000000001,-0.10098209258436633
-0.1256000000000001,-0.10127918195733798
-0.1266000000000001,-0.10157627133030964
-0.1276000000000001,-0.10191580204227724
-0.1286000000000001,-0.1021845971892516
-0.1296000000000001,-0.10241095099723
-0.1306000000000001,-0.10267974614420436
-0.1316000000000001,-0.10293439417818008
-0.1326000000000001,-0.10320318932515443
-0.1336000000000001,-0.10347198447212877
-0.1346000000000001,-0.1036983382801072
-0.1356000000000001,-0.10391054497508695
-0.1366000000000001,-0.10416519300906264
-0.1376000000000001,-0.1044056939300397
-0.1386000000000001,-0.10463204773801811
-0.1396000000000001,-0.10481596020700056
-0.1406000000000001,-0.10501401978898167
-0.14160000000000011,-0.10522622648396143
-0.14260000000000012,-0.10545258029193984
-0.14360000000000012,-0.1056364927609223
-0.14460000000000012,-0.10580625811690608
-0.14560000000000012,-0.10596187635989125
-0.14660000000000012,-0.10613164171587507
-0.14760000000000012,-0.10634384841085481
-0.14860000000000012,-0.10649946665383996
-0.14960000000000012,-0.10664093778382645
-0.15060000000000012,-0.10675411468781566
-0.15160000000000012,-0.10690973293080082
-0.15260000000000012,-0.10707949828678462
-0.15360000000000013,-0.10722096941677112
-0.15460000000000013,-0.10730585209476304
-0.15560000000000013,-0.10741902899875223
-0.15660000000000013,-0.10751805878974278
-0.15760000000000013,-0.10767367703272793
-0.15860000000000013,-0.10778685393671714
-0.15960000000000002,-0.1078575895017104
-0.16060000000000002,-0.10791417795370499
-0.16160000000000002,-0.10801320774469556
-0.16260000000000002,-0.10811223753568612
-0.16360000000000002,-0.10819712021367801
-0.16460000000000002,-0.1082254144396753
-0.16560000000000002,-0.10832444423066585
-0.16660000000000003,-0.10840932690865775
-0.16760000000000003,-0.10849420958664967
-0.16860000000000003,-0.10853665092564563
-0.16960000000000003,-0.10853665092564563
-0.17060000000000003,-0.10855079803864424
-0.17160000000000003,-0.10859323937764022
-0.17260000000000003,-0.10864982782963481
-0.17360000000000003,-0.10866397494263345
-0.17460000000000003,-0.10864982782963481
-0.17560000000000003,-0.10864982782963481
-0.17660000000000003,-0.10866397494263345
-0.17760000000000004,-0.10870641628162941
-0.17860000000000004,-0.10870641628162941
-0.17960000000000004,-0.10866397494263345
-0.18060000000000004,-0.10863568071663617
-0.18160000000000004,-0.10863568071663617
-0.18260000000000004,-0.10863568071663617
-0.18360000000000004,-0.10860738649063886
-0.18460000000000004,-0.10857909226464157
-0.18560000000000004,-0.10852250381264696
-0.18660000000000004,-0.10849420958664967
-0.18760000000000004,-0.10849420958664967
-0.18860000000000005,-0.10845176824765372
-0.18960000000000005,-0.1083668855696618
-0.19060000000000005,-0.10829615000466856
-0.19160000000000005,-0.10828200289166989
-0.19260000000000005,-0.10825370866567262
-0.19360000000000005,-0.10818297310067936
-0.19460000000000005,-0.1080839433096888
-0.19560000000000005,-0.10802735485769419
-0.19660000000000005,-0.10795661929270095
-0.19760000000000005,-0.10791417795370499
-0.19860000000000005,-0.10784344238871174
-0.19960000000000006,-0.10774441259772119
-0.20060000000000006,-0.1076595299197293
-0.20160000000000006,-0.1075463530157401
-0.20260000000000006,-0.10750391167674413
-0.20360000000000006,-0.10740488188575359
-0.20460000000000006,-0.10730585209476304
-0.20560000000000006,-0.10717852807777517
-0.20660000000000006,-0.10712193962578058
-0.20760000000000006,-0.10705120406078733
-0.20860000000000006,-0.10696632138279542
-0.20960000000000006,-0.10682485025280893
-0.21060000000000006,-0.10671167334881972
-0.21160000000000007,-0.10662679067082782
-0.21260000000000007,-0.10654190799283592
-0.21360000000000007,-0.10644287820184536
-0.21460000000000007,-0.10630140707185885
-0.21560000000000007,-0.10617408305487101
-0.21660000000000007,-0.10607505326388045
-0.21760000000000007,-0.1060326119248845
-0.21860000000000007,-0.10590528790789665
-0.21960000000000007,-0.10576381677791014
-0.22060000000000007,-0.10562234564792364
-0.22160000000000007,-0.10550916874393444
-0.22260000000000008,-0.10541013895294389
-0.22360000000000008,-0.10529696204895468
-0.22460000000000008,-0.10515549091896817
-0.22560000000000008,-0.10498572556298437
-0.22660000000000008,-0.10490084288499248
-0.22760000000000008,-0.10480181309400192
-0.22860000000000008,-0.10467448907701406
-0.22960000000000008,-0.10453301794702756
-0.23060000000000008,-0.10439154681704105
-0.23160000000000008,-0.10427836991305185
-0.23260000000000008,-0.10419348723505996
-0.23360000000000009,-0.10405201610507345
-0.2346000000000001,-0.10389639786208829
-0.2356000000000001,-0.10378322095809908
-0.2366000000000001,-0.10364174982811258
-0.2376000000000001,-0.10355686715012069
-0.2386000000000001,-0.10344369024613147
-0.2396000000000001,-0.1032739248901477
-0.2406000000000001,-0.10311830664716252
-0.2416000000000001,-0.10299098263017467
-0.2426000000000001,-0.10292024706518142
-0.2436000000000001,-0.10279292304819357
-0.2446000000000001,-0.10263730480520841
-0.2456000000000001,-0.10249583367522191
-0.2466000000000001,-0.1023826567712327
-0.2476000000000001,-0.10228362698024217
-0.2486000000000001,-0.1021845971892516
-0.2496000000000001,-0.1020148318332678
-0.2506000000000001,-0.10185921359028265
-0.2516000000000001,-0.10174603668629344
-0.2526000000000001,-0.10164700689530289
-0.2536000000000001,-0.10151968287831505
-0.2546000000000001,-0.10136406463532988
-0.2556000000000001,-0.10123674061834202
-0.2566000000000001,-0.10112356371435283
-0.2576000000000001,-0.10102453392336228
-0.2586000000000001,-0.10088306279337576
-0.2596000000000001,-0.10075573877638791
-0.2606000000000001,-0.10060012053340277
-0.2616000000000001,-0.10048694362941356
-0.2626000000000001,-0.10040206095142165
-0.2636000000000001,-0.1002747369344338
-0.2646000000000001,-0.1001332658044473
-0.2656000000000001,-0.0999917946744608
-0.2666000000000001,-0.09986447065747293
-0.2676000000000001,-0.09977958797948104
-0.2686000000000001,-0.09966641107549183
-0.2696000000000001,-0.09951079283250668
-0.2706000000000001,-0.09938346881551882
-0.2716000000000001,-0.09925614479853098
-0.2726000000000001,-0.09918540923353773
-0.2736000000000001,-0.09905808521654987
-0.2746000000000001,-0.09891661408656337
-0.2756000000000001,-0.09880343718257417
-0.2766000000000001,-0.0986761131655863
-0.2776000000000001,-0.09860537760059306
-0.2786000000000001,-0.09849220069660385
-0.2796000000000001,-0.0983365824536187
-0.2806000000000001,-0.0982234055496295
-0.28160000000000013,-0.09811022864564029
-0.28260000000000013,-0.0980536401936457
-0.28360000000000013,-0.09792631617665784
-0.2846,-0.09778484504667133
-0.2856,-0.09768581525568078
-0.2866,-0.09757263835169158
-0.2876,-0.09750190278669833
-0.2886,-0.09740287299570777
-0.2896,-0.09727554897871993
-0.2906,-0.09714822496173206
-0.2916,-0.09706334228374017
-0.2926,-0.09699260671874692
-0.2936,-0.096907724040755
-0.29460000000000003,-0.0967662529107685
-0.29560000000000003,-0.09663892889378066
-0.29660000000000003,-0.09655404621578875
-0.29760000000000003,-0.09649745776379416
-0.29860000000000003,-0.09639842797280361
-0.29960000000000003,-0.09627110395581574
-0.30060000000000003,-0.09615792705182655
-0.30160000000000003,-0.096058897260836
-0.30260000000000004,-0.09600230880884139
-0.30360000000000004,-0.09588913190485218
-0.30460000000000004,-0.09576180788786433
-0.30560000000000004,-0.09566277809687378
-0.30660000000000004,-0.09557789541888188
-0.30760000000000004,-0.09550715985388863
-0.30860000000000004,-0.09542227717589671
-0.30960000000000004,-0.09529495315890889
-0.31060000000000004,-0.09519592336791832
-0.31160000000000004,-0.0951110406899264
-0.31260000000000004,-0.09506859935093047
-0.31360000000000005,-0.09498371667293856
-0.31460000000000005,-0.09485639265595071
-0.31560000000000005,-0.09475736286496016
-0.31660000000000005,-0.09468662729996691
-0.31760000000000005,-0.0946300388479723
-0.31860000000000005,-0.09455930328297905
-0.31960000000000005,-0.09447442060498715
-0.32060000000000005,-0.09436124370099794
-0.32160000000000005,-0.09429050813600469
-0.32260000000000005,-0.09424806679700874
-0.32360000000000005,-0.09414903700601819
-0.32460000000000006,-0.09405000721502763
-0.32560000000000006,-0.09395097742403709
-0.32660000000000006,-0.09389438897204248
-0.32760000000000006,-0.09383780052004788
-0.32860000000000006,-0.09378121206805329
-0.32960000000000006,-0.09365388805106543
-0.33060000000000006,-0.09355485826007487
-0.33160000000000006,-0.09351241692107892
-0.33260000000000006,-0.09345582846908432
-0.33360000000000006,-0.09338509290409107
-0.33460000000000006,-0.09328606311310052
-0.33560000000000006,-0.09320118043510862
-0.33660000000000007,-0.09314459198311402
-0.33760000000000007,-0.0930880035311194
-0.33860000000000007,-0.09303141507912481
-0.33960000000000007,-0.09293238528813427
-0.34060000000000007,-0.09284750261014235
-0.34160000000000007,-0.0927767670451491
-0.34260000000000007,-0.0927767670451491
-0.34360000000000007,-0.09267773725415854
-0.3446000000000001,-0.09257870746316801
-0.3456000000000001,-0.0925221190111734
-0.3466000000000001,-0.09246553055917879
-0.34759999999999996,-0.0924372363331815
-0.3486000000000001,-0.09236650076818824
-0.34959999999999997,-0.09228161809019635
-0.3506000000000001,-0.09219673541220444
-0.35159999999999997,-0.09212599984721119
-0.3526000000000001,-0.09211185273421253
-0.35359999999999997,-0.09205526428221794
-0.3546000000000001,-0.09197038160422603
-0.35559999999999997,-0.09188549892623413
-0.3566000000000001,-0.09181476336124088
-0.3576,-0.09181476336124088
-0.3586000000000001,-0.09177232202224493
-0.3596,-0.09168743934425302
-0.3606000000000001,-0.09161670377925978
-0.3616,-0.09154596821426653
-0.3626000000000001,-0.09156011532726518
-0.3636,-0.09148937976227192
-0.3646000000000001,-0.09140449708428001
-0.3656,-0.09133376151928675
-0.3666000000000001,-0.09129132018029082
-0.3676,-0.0912630259542935
-0.3686000000000001,-0.09122058461529756
-0.3696,-0.09113570193730568
-0.3706000000000001,-0.09109326059830972
-0.3716,-0.09105081925931376
-0.3726000000000001,-0.09102252503331647
-0.3736,-0.09098008369432051
-0.3746000000000001,-0.09089520101632861
-0.3756,-0.09082446545133536
-0.3766000000000001,-0.09079617122533806
-0.3776,-0.09076787699934075
-0.3786000000000001,-0.09073958277334346
-0.3796,-0.09066884720835021
-0.3806000000000001,-0.09059811164335696
-0.3816,-0.09054152319136234
-0.3826000000000001,-0.090555670304361
-0.3836,-0.09051322896536505
-0.3846000000000001,-0.09044249340037179
-0.3856,-0.09037175783537854
-0.3866000000000001,-0.09034346360938124
-0.3876,-0.09034346360938124
-0.3886000000000001,-0.09028687515738665
-0.3896,-0.09023028670539203
-0.3906000000000001,-0.09017369825339744
-0.3916,-0.09013125691440148
-0.3926000000000001,-0.09011710980140283
-0.3936,-0.09008881557540553
-0.3946000000000001,-0.09001808001041228
-0.3956,-0.08997563867141634
-0.3966000000000001,-0.08994734444541903
-0.3976,-0.08993319733242039
-0.3986000000000001,-0.08989075599342443
-0.3996,-0.08983416754142984
-0.4006000000000001,-0.08979172620243389
-0.4016,-0.08973513775043927
-0.4026000000000001,-0.08973513775043927
-0.4036,-0.08973513775043927
-0.4046000000000001,-0.08965025507244738
-0.4056,-0.08962196084645008
-0.40660000000000013,-0.08956537239445547
-0.4076,-0.08956537239445547
-0.40860000000000013,-0.08955122528145683
-0.4096,-0.08949463682946222
-0.41060000000000013,-0.08943804837746762
-0.4116,-0.08942390126446896
-0.41260000000000013,-0.08940975415147032
-0.4136,-0.08938145992547303
-0.41460000000000014,-0.08931072436047977
-0.4156,-0.08926828302148382
-0.41660000000000014,-0.08923998879548652
-0.4176,-0.08925413590848516
-0.41860000000000014,-0.08921169456948921
-0.41960000000000003,-0.08918340034349191
-0.42060000000000014,-0.0891268118914973
-0.42160000000000003,-0.08911266477849866
-0.42260000000000014,-0.0891268118914973
-0.42360000000000003,-0.0890985176655
-0.42460000000000014,-0.08905607632650406
-0.42560000000000003,-0.08898534076151081
-0.42660000000000015,-0.08898534076151081
-0.42760000000000004,-0.08898534076151081
-0.42860000000000015,-0.08897119364851215
-0.42960000000000004,-0.0889004580835189
-0.43060000000000015,-0.08887216385752161
-0.43160000000000004,-0.08884386963152431
-0.43260000000000015,-0.08884386963152431
-0.43360000000000004,-0.088815575405527
-0.43460000000000015,-0.08880142829252836
-0.43560000000000004,-0.08877313406653106
