Sept. 15, 2024   05:49:32
Cyclic Voltammetry
File: c:/users/guazh/data/20240903_batch_252_500/2024-09-03-exp358\exp358-2024-09-15t05_38_50-h2koh\exp358_cv_sr_300mvs_efin_-1500mv.bin
Data Source:  Experiment
Instrument Model:  CHI760E
Header: CV ran at 300 mVs
Note: 

Init E (V) = -1
High E (V) = -1
Low E (V) = -1.5
Final E (V) = -1
Init P/N = N
Scan Rate (V/s) = 0.3
Segment = 3
Sample Interval (V) = 0.001
Quiet Time (sec) = 2
Sensitivity (A/V) = 0.01
Comp R (ohm) = 1.9

Results:

Channel 1:
Segment 1:

Segment 2:

Segment 3:

Potential/V, Current/A

-1.000, 1.557e-5
-1.001, 7.107e-5
-1.002, 1.111e-4
-1.003, 1.389e-4
-1.004, 1.605e-4
-1.005, 1.759e-4
-1.006, 1.882e-4
-1.007, 1.975e-4
-1.008, 2.067e-4
-1.009, 2.129e-4
-1.010, 2.191e-4
-1.011, 2.221e-4
-1.012, 2.283e-4
-1.013, 2.314e-4
-1.014, 2.345e-4
-1.015, 2.345e-4
-1.016, 2.376e-4
-1.017, 2.376e-4
-1.018, 2.406e-4
-1.019, 2.437e-4
-1.020, 2.437e-4
-1.021, 2.468e-4
-1.022, 2.468e-4
-1.023, 2.499e-4
-1.024, 2.530e-4
-1.025, 2.530e-4
-1.026, 2.530e-4
-1.027, 2.530e-4
-1.028, 2.561e-4
-1.029, 2.591e-4
-1.030, 2.591e-4
-1.031, 2.591e-4
-1.032, 2.591e-4
-1.033, 2.622e-4
-1.034, 2.622e-4
-1.035, 2.622e-4
-1.036, 2.622e-4
-1.037, 2.622e-4
-1.038, 2.653e-4
-1.039, 2.653e-4
-1.040, 2.653e-4
-1.041, 2.653e-4
-1.042, 2.653e-4
-1.043, 2.653e-4
-1.044, 2.684e-4
-1.045, 2.684e-4
-1.046, 2.684e-4
-1.047, 2.684e-4
-1.048, 2.715e-4
-1.049, 2.715e-4
-1.050, 2.684e-4
-1.051, 2.684e-4
-1.052, 2.684e-4
-1.053, 2.715e-4
-1.054, 2.715e-4
-1.055, 2.715e-4
-1.056, 2.715e-4
-1.057, 2.715e-4
-1.058, 2.746e-4
-1.059, 2.746e-4
-1.060, 2.715e-4
-1.061, 2.715e-4
-1.062, 2.746e-4
-1.063, 2.746e-4
-1.064, 2.746e-4
-1.065, 2.746e-4
-1.066, 2.715e-4
-1.067, 2.715e-4
-1.068, 2.746e-4
-1.069, 2.746e-4
-1.070, 2.746e-4
-1.071, 2.746e-4
-1.072, 2.746e-4
-1.073, 2.746e-4
-1.074, 2.776e-4
-1.075, 2.746e-4
-1.076, 2.746e-4
-1.077, 2.746e-4
-1.078, 2.746e-4
-1.079, 2.746e-4
-1.080, 2.746e-4
-1.081, 2.746e-4
-1.082, 2.746e-4
-1.083, 2.746e-4
-1.084, 2.746e-4
-1.085, 2.746e-4
-1.086, 2.746e-4
-1.087, 2.746e-4
-1.088, 2.746e-4
-1.089, 2.746e-4
-1.090, 2.746e-4
-1.091, 2.715e-4
-1.092, 2.715e-4
-1.093, 2.746e-4
-1.094, 2.746e-4
-1.095, 2.715e-4
-1.096, 2.746e-4
-1.097, 2.715e-4
-1.098, 2.746e-4
-1.099, 2.746e-4
-1.100, 2.715e-4
-1.101, 2.715e-4
-1.102, 2.715e-4
-1.103, 2.715e-4
-1.104, 2.715e-4
-1.105, 2.715e-4
-1.106, 2.715e-4
-1.107, 2.715e-4
-1.108, 2.715e-4
-1.109, 2.746e-4
-1.110, 2.715e-4
-1.111, 2.715e-4
-1.112, 2.715e-4
-1.113, 2.715e-4
-1.114, 2.715e-4
-1.115, 2.684e-4
-1.116, 2.684e-4
-1.117, 2.684e-4
-1.118, 2.715e-4
-1.119, 2.715e-4
-1.120, 2.684e-4
-1.121, 2.684e-4
-1.122, 2.684e-4
-1.123, 2.715e-4
-1.124, 2.715e-4
-1.125, 2.684e-4
-1.126, 2.684e-4
-1.127, 2.684e-4
-1.128, 2.715e-4
-1.129, 2.684e-4
-1.130, 2.684e-4
-1.131, 2.684e-4
-1.132, 2.684e-4
-1.133, 2.684e-4
-1.134, 2.715e-4
-1.135, 2.684e-4
-1.136, 2.653e-4
-1.137, 2.684e-4
-1.138, 2.684e-4
-1.139, 2.684e-4
-1.140, 2.684e-4
-1.141, 2.653e-4
-1.142, 2.653e-4
-1.143, 2.684e-4
-1.144, 2.684e-4
-1.145, 2.653e-4
-1.146, 2.653e-4
-1.147, 2.653e-4
-1.148, 2.653e-4
-1.149, 2.653e-4
-1.150, 2.653e-4
-1.151, 2.653e-4
-1.152, 2.653e-4
-1.153, 2.653e-4
-1.154, 2.653e-4
-1.155, 2.653e-4
-1.156, 2.653e-4
-1.157, 2.653e-4
-1.158, 2.653e-4
-1.159, 2.653e-4
-1.160, 2.653e-4
-1.161, 2.653e-4
-1.162, 2.653e-4
-1.163, 2.684e-4
-1.164, 2.653e-4
-1.165, 2.653e-4
-1.166, 2.653e-4
-1.167, 2.653e-4
-1.168, 2.653e-4
-1.169, 2.653e-4
-1.170, 2.653e-4
-1.171, 2.653e-4
-1.172, 2.653e-4
-1.173, 2.684e-4
-1.174, 2.684e-4
-1.175, 2.653e-4
-1.176, 2.653e-4
-1.177, 2.684e-4
-1.178, 2.684e-4
-1.179, 2.684e-4
-1.180, 2.684e-4
-1.181, 2.684e-4
-1.182, 2.684e-4
-1.183, 2.684e-4
-1.184, 2.684e-4
-1.185, 2.684e-4
-1.186, 2.684e-4
-1.187, 2.684e-4
-1.188, 2.715e-4
-1.189, 2.684e-4
-1.190, 2.684e-4
-1.191, 2.684e-4
-1.192, 2.684e-4
-1.193, 2.715e-4
-1.194, 2.715e-4
-1.195, 2.715e-4
-1.196, 2.715e-4
-1.197, 2.715e-4
-1.198, 2.746e-4
-1.199, 2.746e-4
-1.200, 2.715e-4
-1.201, 2.746e-4
-1.202, 2.746e-4
-1.203, 2.746e-4
-1.204, 2.776e-4
-1.205, 2.746e-4
-1.206, 2.746e-4
-1.207, 2.776e-4
-1.208, 2.776e-4
-1.209, 2.807e-4
-1.210, 2.807e-4
-1.211, 2.776e-4
-1.212, 2.807e-4
-1.213, 2.807e-4
-1.214, 2.838e-4
-1.215, 2.838e-4
-1.216, 2.838e-4
-1.217, 2.838e-4
-1.218, 2.869e-4
-1.219, 2.869e-4
-1.220, 2.869e-4
-1.221, 2.869e-4
-1.222, 2.900e-4
-1.223, 2.900e-4
-1.224, 2.900e-4
-1.225, 2.931e-4
-1.226, 2.931e-4
-1.227, 2.961e-4
-1.228, 2.961e-4
-1.229, 2.992e-4
-1.230, 2.992e-4
-1.231, 2.992e-4
-1.232, 2.992e-4
-1.233, 3.023e-4
-1.234, 3.023e-4
-1.235, 3.023e-4
-1.236, 3.054e-4
-1.237, 3.054e-4
-1.238, 3.085e-4
-1.239, 3.115e-4
-1.240, 3.115e-4
-1.241, 3.115e-4
-1.242, 3.146e-4
-1.243, 3.177e-4
-1.244, 3.177e-4
-1.245, 3.208e-4
-1.246, 3.208e-4
-1.247, 3.239e-4
-1.248, 3.270e-4
-1.249, 3.270e-4
-1.250, 3.300e-4
-1.251, 3.331e-4
-1.252, 3.331e-4
-1.253, 3.362e-4
-1.254, 3.393e-4
-1.255, 3.393e-4
-1.256, 3.424e-4
-1.257, 3.455e-4
-1.258, 3.485e-4
-1.259, 3.516e-4
-1.260, 3.516e-4
-1.261, 3.547e-4
-1.262, 3.578e-4
-1.263, 3.640e-4
-1.264, 3.670e-4
-1.265, 3.670e-4
-1.266, 3.701e-4
-1.267, 3.732e-4
-1.268, 3.794e-4
-1.269, 3.825e-4
-1.270, 3.855e-4
-1.271, 3.855e-4
-1.272, 3.917e-4
-1.273, 3.948e-4
-1.274, 3.979e-4
-1.275, 4.040e-4
-1.276, 4.071e-4
-1.277, 4.071e-4
-1.278, 4.164e-4
-1.279, 4.195e-4
-1.280, 4.225e-4
-1.281, 4.256e-4
-1.282, 4.318e-4
-1.283, 4.349e-4
-1.284, 4.410e-4
-1.285, 4.441e-4
-1.286, 4.503e-4
-1.287, 4.565e-4
-1.288, 4.595e-4
-1.289, 4.657e-4
-1.290, 4.688e-4
-1.291, 4.750e-4
-1.292, 4.811e-4
-1.293, 4.904e-4
-1.294, 4.935e-4
-1.295, 4.996e-4
-1.296, 5.058e-4
-1.297, 5.120e-4
-1.298, 5.212e-4
-1.299, 5.243e-4
-1.300, 5.335e-4
-1.301, 5.366e-4
-1.302, 5.459e-4
-1.303, 5.551e-4
-1.304, 5.613e-4
-1.305, 5.674e-4
-1.306, 5.736e-4
-1.307, 5.829e-4
-1.308, 5.921e-4
-1.309, 5.983e-4
-1.310, 6.044e-4
-1.311, 6.106e-4
-1.312, 6.199e-4
-1.313, 6.322e-4
-1.314, 6.445e-4
-1.315, 6.507e-4
-1.316, 6.599e-4
-1.317, 6.692e-4
-1.318, 6.784e-4
-1.319, 6.877e-4
-1.320, 7.000e-4
-1.321, 7.093e-4
-1.322, 7.185e-4
-1.323, 7.309e-4
-1.324, 7.401e-4
-1.325, 7.524e-4
-1.326, 7.617e-4
-1.327, 7.740e-4
-1.328, 7.863e-4
-1.329, 7.987e-4
-1.330, 8.079e-4
-1.331, 8.233e-4
-1.332, 8.357e-4
-1.333, 8.511e-4
-1.334, 8.634e-4
-1.335, 8.758e-4
-1.336, 8.881e-4
-1.337, 9.004e-4
-1.338, 9.158e-4
-1.339, 9.313e-4
-1.340, 9.467e-4
-1.341, 9.590e-4
-1.342, 9.713e-4
-1.343, 9.898e-4
-1.344, 1.002e-3
-1.345, 1.018e-3
-1.346, 1.033e-3
-1.347, 1.051e-3
-1.348, 1.070e-3
-1.349, 1.082e-3
-1.350, 1.101e-3
-1.351, 1.116e-3
-1.352, 1.132e-3
-1.353, 1.150e-3
-1.354, 1.166e-3
-1.355, 1.184e-3
-1.356, 1.203e-3
-1.357, 1.221e-3
-1.358, 1.236e-3
-1.359, 1.255e-3
-1.360, 1.270e-3
-1.361, 1.292e-3
-1.362, 1.314e-3
-1.363, 1.335e-3
-1.364, 1.354e-3
-1.365, 1.369e-3
-1.366, 1.391e-3
-1.367, 1.415e-3
-1.368, 1.434e-3
-1.369, 1.455e-3
-1.370, 1.477e-3
-1.371, 1.495e-3
-1.372, 1.520e-3
-1.373, 1.542e-3
-1.374, 1.563e-3
-1.375, 1.585e-3
-1.376, 1.610e-3
-1.377, 1.631e-3
-1.378, 1.656e-3
-1.379, 1.677e-3
-1.380, 1.699e-3
-1.381, 1.721e-3
-1.382, 1.745e-3
-1.383, 1.770e-3
-1.384, 1.795e-3
-1.385, 1.816e-3
-1.386, 1.841e-3
-1.387, 1.865e-3
-1.388, 1.893e-3
-1.389, 1.918e-3
-1.390, 1.943e-3
-1.391, 1.970e-3
-1.392, 1.992e-3
-1.393, 2.017e-3
-1.394, 2.044e-3
-1.395, 2.072e-3
-1.396, 2.100e-3
-1.397, 2.121e-3
-1.398, 2.149e-3
-1.399, 2.174e-3
-1.400, 2.205e-3
-1.401, 2.232e-3
-1.402, 2.257e-3
-1.403, 2.288e-3
-1.404, 2.316e-3
-1.405, 2.340e-3
-1.406, 2.371e-3
-1.407, 2.399e-3
-1.408, 2.420e-3
-1.409, 2.448e-3
-1.410, 2.476e-3
-1.411, 2.510e-3
-1.412, 2.544e-3
-1.413, 2.575e-3
-1.414, 2.605e-3
-1.415, 2.627e-3
-1.416, 2.649e-3
-1.417, 2.679e-3
-1.418, 2.713e-3
-1.419, 2.744e-3
-1.420, 2.775e-3
-1.421, 2.800e-3
-1.422, 2.824e-3
-1.423, 2.855e-3
-1.424, 2.895e-3
-1.425, 2.929e-3
-1.426, 2.960e-3
-1.427, 2.994e-3
-1.428, 3.025e-3
-1.429, 3.059e-3
-1.430, 3.089e-3
-1.431, 3.123e-3
-1.432, 3.157e-3
-1.433, 3.191e-3
-1.434, 3.222e-3
-1.435, 3.256e-3
-1.436, 3.290e-3
-1.437, 3.324e-3
-1.438, 3.358e-3
-1.439, 3.388e-3
-1.440, 3.422e-3
-1.441, 3.450e-3
-1.442, 3.487e-3
-1.443, 3.524e-3
-1.444, 3.555e-3
-1.445, 3.589e-3
-1.446, 3.626e-3
-1.447, 3.660e-3
-1.448, 3.694e-3
-1.449, 3.728e-3
-1.450, 3.765e-3
-1.451, 3.802e-3
-1.452, 3.839e-3
-1.453, 3.873e-3
-1.454, 3.894e-3
-1.455, 3.925e-3
-1.456, 3.959e-3
-1.457, 4.002e-3
-1.458, 4.048e-3
-1.459, 4.082e-3
-1.460, 4.113e-3
-1.461, 4.144e-3
-1.462, 4.178e-3
-1.463, 4.224e-3
-1.464, 4.267e-3
-1.465, 4.304e-3
-1.466, 4.341e-3
-1.467, 4.375e-3
-1.468, 4.412e-3
-1.469, 4.449e-3
-1.470, 4.483e-3
-1.471, 4.526e-3
-1.472, 4.566e-3
-1.473, 4.606e-3
-1.474, 4.640e-3
-1.475, 4.680e-3
-1.476, 4.723e-3
-1.477, 4.764e-3
-1.478, 4.801e-3
-1.479, 4.844e-3
-1.480, 4.881e-3
-1.481, 4.908e-3
-1.482, 4.942e-3
-1.483, 4.989e-3
-1.484, 5.035e-3
-1.485, 5.072e-3
-1.486, 5.112e-3
-1.487, 5.155e-3
-1.488, 5.195e-3
-1.489, 5.235e-3
-1.490, 5.282e-3
-1.491, 5.319e-3
-1.492, 5.362e-3
-1.493, 5.408e-3
-1.494, 5.448e-3
-1.495, 5.494e-3
-1.496, 5.534e-3
-1.497, 5.581e-3
-1.498, 5.618e-3
-1.499, 5.645e-3
-1.500, 5.618e-3
-1.499, 5.528e-3
-1.498, 5.473e-3
-1.497, 5.439e-3
-1.496, 5.402e-3
-1.495, 5.349e-3
-1.494, 5.294e-3
-1.493, 5.238e-3
-1.492, 5.195e-3
-1.491, 5.167e-3
-1.490, 5.127e-3
-1.489, 5.078e-3
-1.488, 5.023e-3
-1.487, 4.973e-3
-1.486, 4.930e-3
-1.485, 4.887e-3
-1.484, 4.841e-3
-1.483, 4.797e-3
-1.482, 4.751e-3
-1.481, 4.708e-3
-1.480, 4.665e-3
-1.479, 4.619e-3
-1.478, 4.569e-3
-1.477, 4.532e-3
-1.476, 4.492e-3
-1.475, 4.452e-3
-1.474, 4.403e-3
-1.473, 4.354e-3
-1.472, 4.313e-3
-1.471, 4.276e-3
-1.470, 4.246e-3
-1.469, 4.215e-3
-1.468, 4.169e-3
-1.467, 4.122e-3
-1.466, 4.079e-3
-1.465, 4.045e-3
-1.464, 4.014e-3
-1.463, 3.971e-3
-1.462, 3.931e-3
-1.461, 3.894e-3
-1.460, 3.854e-3
-1.459, 3.817e-3
-1.458, 3.780e-3
-1.457, 3.743e-3
-1.456, 3.703e-3
-1.455, 3.666e-3
-1.454, 3.632e-3
-1.453, 3.595e-3
-1.452, 3.555e-3
-1.451, 3.521e-3
-1.450, 3.487e-3
-1.449, 3.450e-3
-1.448, 3.416e-3
-1.447, 3.379e-3
-1.446, 3.342e-3
-1.445, 3.305e-3
-1.444, 3.268e-3
-1.443, 3.231e-3
-1.442, 3.194e-3
-1.441, 3.154e-3
-1.440, 3.117e-3
-1.439, 3.080e-3
-1.438, 3.049e-3
-1.437, 3.019e-3
-1.436, 2.985e-3
-1.435, 2.948e-3
-1.434, 2.911e-3
-1.433, 2.877e-3
-1.432, 2.846e-3
-1.431, 2.812e-3
-1.430, 2.784e-3
-1.429, 2.750e-3
-1.428, 2.716e-3
-1.427, 2.682e-3
-1.426, 2.652e-3
-1.425, 2.621e-3
-1.424, 2.587e-3
-1.423, 2.556e-3
-1.422, 2.525e-3
-1.421, 2.491e-3
-1.420, 2.460e-3
-1.419, 2.430e-3
-1.418, 2.399e-3
-1.417, 2.371e-3
-1.416, 2.340e-3
-1.415, 2.312e-3
-1.414, 2.282e-3
-1.413, 2.251e-3
-1.412, 2.220e-3
-1.411, 2.192e-3
-1.410, 2.161e-3
-1.409, 2.137e-3
-1.408, 2.106e-3
-1.407, 2.081e-3
-1.406, 2.050e-3
-1.405, 2.023e-3
-1.404, 2.001e-3
-1.403, 1.976e-3
-1.402, 1.946e-3
-1.401, 1.918e-3
-1.400, 1.890e-3
-1.399, 1.862e-3
-1.398, 1.838e-3
-1.397, 1.810e-3
-1.396, 1.785e-3
-1.395, 1.761e-3
-1.394, 1.733e-3
-1.393, 1.708e-3
-1.392, 1.684e-3
-1.391, 1.656e-3
-1.390, 1.631e-3
-1.389, 1.610e-3
-1.388, 1.582e-3
-1.387, 1.560e-3
-1.386, 1.536e-3
-1.385, 1.511e-3
-1.384, 1.486e-3
-1.383, 1.462e-3
-1.382, 1.440e-3
-1.381, 1.418e-3
-1.380, 1.394e-3
-1.379, 1.369e-3
-1.378, 1.344e-3
-1.377, 1.326e-3
-1.376, 1.304e-3
-1.375, 1.280e-3
-1.374, 1.258e-3
-1.373, 1.236e-3
-1.372, 1.218e-3
-1.371, 1.199e-3
-1.370, 1.178e-3
-1.369, 1.156e-3
-1.368, 1.135e-3
-1.367, 1.116e-3
-1.366, 1.095e-3
-1.365, 1.073e-3
-1.364, 1.051e-3
-1.363, 1.033e-3
-1.362, 1.014e-3
-1.361, 9.960e-4
-1.360, 9.775e-4
-1.359, 9.559e-4
-1.358, 9.405e-4
-1.357, 9.220e-4
-1.356, 9.004e-4
-1.355, 8.850e-4
-1.354, 8.665e-4
-1.353, 8.480e-4
-1.352, 8.295e-4
-1.351, 8.079e-4
-1.350, 7.894e-4
-1.349, 7.740e-4
-1.348, 7.586e-4
-1.347, 7.432e-4
-1.346, 7.278e-4
-1.345, 7.093e-4
-1.344, 6.908e-4
-1.343, 6.754e-4
-1.342, 6.599e-4
-1.341, 6.445e-4
-1.340, 6.291e-4
-1.339, 6.137e-4
-1.338, 5.983e-4
-1.337, 5.829e-4
-1.336, 5.674e-4
-1.335, 5.520e-4
-1.334, 5.366e-4
-1.333, 5.243e-4
-1.332, 5.120e-4
-1.331, 4.965e-4
-1.330, 4.811e-4
-1.329, 4.657e-4
-1.328, 4.534e-4
-1.327, 4.410e-4
-1.326, 4.287e-4
-1.325, 4.133e-4
-1.324, 4.010e-4
-1.323, 3.886e-4
-1.322, 3.763e-4
-1.321, 3.640e-4
-1.320, 3.516e-4
-1.319, 3.393e-4
-1.318, 3.270e-4
-1.317, 3.146e-4
-1.316, 3.023e-4
-1.315, 2.900e-4
-1.314, 2.807e-4
-1.313, 2.684e-4
-1.312, 2.561e-4
-1.311, 2.468e-4
-1.310, 2.345e-4
-1.309, 2.252e-4
-1.308, 2.160e-4
-1.307, 2.067e-4
-1.306, 1.944e-4
-1.305, 1.821e-4
-1.304, 1.759e-4
-1.303, 1.666e-4
-1.302, 1.574e-4
-1.301, 1.451e-4
-1.300, 1.358e-4
-1.299, 1.266e-4
-1.298, 1.173e-4
-1.297, 1.111e-4
-1.296, 1.019e-4
-1.295, 9.265e-5
-1.294, 8.340e-5
-1.293, 7.723e-5
-1.292, 6.798e-5
-1.291, 6.182e-5
-1.290, 5.257e-5
-1.289, 4.332e-5
-1.288, 3.715e-5
-1.287, 3.099e-5
-1.286, 2.482e-5
-1.285, 1.557e-5
-1.284, 6.322e-6
-1.283, 1.559e-7
-1.282, -6.010e-6
-1.281, -1.218e-5
-1.280, -2.143e-5
-1.279, -2.759e-5
-1.278, -3.068e-5
-1.277, -3.684e-5
-1.276, -4.301e-5
-1.275, -4.917e-5
-1.274, -5.534e-5
-1.273, -6.151e-5
-1.272, -6.459e-5
-1.271, -7.076e-5
-1.270, -7.692e-5
-1.269, -8.309e-5
-1.268, -8.617e-5
-1.267, -8.925e-5
-1.266, -9.542e-5
-1.265, -1.016e-4
-1.264, -1.078e-4
-1.263, -1.108e-4
-1.262, -1.139e-4
-1.261, -1.201e-4
-1.260, -1.232e-4
-1.259, -1.263e-4
-1.258, -1.293e-4
-1.257, -1.324e-4
-1.256, -1.355e-4
-1.255, -1.417e-4
-1.254, -1.448e-4
-1.253, -1.478e-4
-1.252, -1.509e-4
-1.251, -1.540e-4
-1.250, -1.571e-4
-1.249, -1.602e-4
-1.248, -1.632e-4
-1.247, -1.663e-4
-1.246, -1.694e-4
-1.245, -1.725e-4
-1.244, -1.756e-4
-1.243, -1.787e-4
-1.242, -1.787e-4
-1.241, -1.817e-4
-1.240, -1.848e-4
-1.239, -1.879e-4
-1.238, -1.879e-4
-1.237, -1.910e-4
-1.236, -1.941e-4
-1.235, -1.972e-4
-1.234, -2.002e-4
-1.233, -2.002e-4
-1.232, -2.033e-4
-1.231, -2.033e-4
-1.230, -2.064e-4
-1.229, -2.095e-4
-1.228, -2.126e-4
-1.227, -2.126e-4
-1.226, -2.157e-4
-1.225, -2.157e-4
-1.224, -2.187e-4
-1.223, -2.187e-4
-1.222, -2.187e-4
-1.221, -2.187e-4
-1.220, -2.218e-4
-1.219, -2.249e-4
-1.218, -2.249e-4
-1.217, -2.249e-4
-1.216, -2.249e-4
-1.215, -2.280e-4
-1.214, -2.311e-4
-1.213, -2.311e-4
-1.212, -2.311e-4
-1.211, -2.311e-4
-1.210, -2.342e-4
-1.209, -2.342e-4
-1.208, -2.372e-4
-1.207, -2.342e-4
-1.206, -2.372e-4
-1.205, -2.372e-4
-1.204, -2.403e-4
-1.203, -2.403e-4
-1.202, -2.403e-4
-1.201, -2.403e-4
-1.200, -2.403e-4
-1.199, -2.434e-4
-1.198, -2.434e-4
-1.197, -2.434e-4
-1.196, -2.434e-4
-1.195, -2.434e-4
-1.194, -2.465e-4
-1.193, -2.465e-4
-1.192, -2.465e-4
-1.191, -2.465e-4
-1.190, -2.496e-4
-1.189, -2.496e-4
-1.188, -2.496e-4
-1.187, -2.465e-4
-1.186, -2.496e-4
-1.185, -2.496e-4
-1.184, -2.527e-4
-1.183, -2.527e-4
-1.182, -2.527e-4
-1.181, -2.527e-4
-1.180, -2.527e-4
-1.179, -2.527e-4
-1.178, -2.527e-4
-1.177, -2.527e-4
-1.176, -2.557e-4
-1.175, -2.557e-4
-1.174, -2.557e-4
-1.173, -2.527e-4
-1.172, -2.557e-4
-1.171, -2.557e-4
-1.170, -2.557e-4
-1.169, -2.557e-4
-1.168, -2.557e-4
-1.167, -2.557e-4
-1.166, -2.557e-4
-1.165, -2.557e-4
-1.164, -2.588e-4
-1.163, -2.588e-4
-1.162, -2.557e-4
-1.161, -2.588e-4
-1.160, -2.588e-4
-1.159, -2.588e-4
-1.158, -2.557e-4
-1.157, -2.588e-4
-1.156, -2.588e-4
-1.155, -2.588e-4
-1.154, -2.588e-4
-1.153, -2.588e-4
-1.152, -2.588e-4
-1.151, -2.619e-4
-1.150, -2.619e-4
-1.149, -2.619e-4
-1.148, -2.619e-4
-1.147, -2.588e-4
-1.146, -2.619e-4
-1.145, -2.619e-4
-1.144, -2.619e-4
-1.143, -2.619e-4
-1.142, -2.619e-4
-1.141, -2.619e-4
-1.140, -2.650e-4
-1.139, -2.619e-4
-1.138, -2.619e-4
-1.137, -2.619e-4
-1.136, -2.619e-4
-1.135, -2.650e-4
-1.134, -2.650e-4
-1.133, -2.650e-4
-1.132, -2.650e-4
-1.131, -2.650e-4
-1.130, -2.681e-4
-1.129, -2.650e-4
-1.128, -2.650e-4
-1.127, -2.650e-4
-1.126, -2.681e-4
-1.125, -2.681e-4
-1.124, -2.681e-4
-1.123, -2.681e-4
-1.122, -2.681e-4
-1.121, -2.681e-4
-1.120, -2.681e-4
-1.119, -2.712e-4
-1.118, -2.681e-4
-1.117, -2.681e-4
-1.116, -2.712e-4
-1.115, -2.712e-4
-1.114, -2.712e-4
-1.113, -2.712e-4
-1.112, -2.712e-4
-1.111, -2.712e-4
-1.110, -2.712e-4
-1.109, -2.742e-4
-1.108, -2.712e-4
-1.107, -2.712e-4
-1.106, -2.742e-4
-1.105, -2.742e-4
-1.104, -2.742e-4
-1.103, -2.742e-4
-1.102, -2.742e-4
-1.101, -2.742e-4
-1.100, -2.773e-4
-1.099, -2.773e-4
-1.098, -2.773e-4
-1.097, -2.773e-4
-1.096, -2.773e-4
-1.095, -2.804e-4
-1.094, -2.804e-4
-1.093, -2.804e-4
-1.092, -2.804e-4
-1.091, -2.804e-4
-1.090, -2.835e-4
-1.089, -2.835e-4
-1.088, -2.804e-4
-1.087, -2.804e-4
-1.086, -2.835e-4
-1.085, -2.835e-4
-1.084, -2.866e-4
-1.083, -2.835e-4
-1.082, -2.835e-4
-1.081, -2.866e-4
-1.080, -2.866e-4
-1.079, -2.866e-4
-1.078, -2.866e-4
-1.077, -2.866e-4
-1.076, -2.897e-4
-1.075, -2.927e-4
-1.074, -2.927e-4
-1.073, -2.927e-4
-1.072, -2.927e-4
-1.071, -2.927e-4
-1.070, -2.927e-4
-1.069, -2.958e-4
-1.068, -2.958e-4
-1.067, -2.927e-4
-1.066, -2.958e-4
-1.065, -2.989e-4
-1.064, -2.989e-4
-1.063, -2.989e-4
-1.062, -2.989e-4
-1.061, -2.989e-4
-1.060, -3.020e-4
-1.059, -3.051e-4
-1.058, -3.020e-4
-1.057, -3.020e-4
-1.056, -3.051e-4
-1.055, -3.051e-4
-1.054, -3.082e-4
-1.053, -3.082e-4
-1.052, -3.082e-4
-1.051, -3.082e-4
-1.050, -3.112e-4
-1.049, -3.112e-4
-1.048, -3.112e-4
-1.047, -3.112e-4
-1.046, -3.143e-4
-1.045, -3.143e-4
-1.044, -3.174e-4
-1.043, -3.174e-4
-1.042, -3.174e-4
-1.041, -3.174e-4
-1.040, -3.205e-4
-1.039, -3.205e-4
-1.038, -3.205e-4
-1.037, -3.205e-4
-1.036, -3.236e-4
-1.035, -3.236e-4
-1.034, -3.267e-4
-1.033, -3.267e-4
-1.032, -3.267e-4
-1.031, -3.297e-4
-1.030, -3.297e-4
-1.029, -3.328e-4
-1.028, -3.328e-4
-1.027, -3.328e-4
-1.026, -3.328e-4
-1.025, -3.359e-4
-1.024, -3.390e-4
-1.023, -3.390e-4
-1.022, -3.390e-4
-1.021, -3.421e-4
-1.020, -3.421e-4
-1.019, -3.452e-4
-1.018, -3.452e-4
-1.017, -3.452e-4
-1.016, -3.452e-4
-1.015, -3.482e-4
-1.014, -3.482e-4
-1.013, -3.482e-4
-1.012, -3.482e-4
-1.011, -3.513e-4
-1.010, -3.513e-4
-1.009, -3.544e-4
-1.008, -3.544e-4
-1.007, -3.575e-4
-1.006, -3.575e-4
-1.005, -3.606e-4
-1.004, -3.606e-4
-1.003, -3.637e-4
-1.002, -3.637e-4
-1.001, -3.667e-4
