Sept. 15, 2024   05:50:21
Cyclic Voltammetry
File: c:/users/guazh/data/20240903_batch_252_500/2024-09-03-exp358\exp358-2024-09-15t05_38_50-h2koh\exp358_cv_sr_500mvs_efin_-1500mv.bin
Data Source:  Experiment
Instrument Model:  CHI760E
Header: CV ran at 500 mVs
Note: 

Init E (V) = -1
High E (V) = -1
Low E (V) = -1.5
Final E (V) = -1
Init P/N = N
Scan Rate (V/s) = 0.5
Segment = 3
Sample Interval (V) = 0.001
Quiet Time (sec) = 2
Sensitivity (A/V) = 0.01
Comp R (ohm) = 1.9

Results:

Channel 1:
Segment 1:

Segment 2:

Segment 3:

Potential/V, Current/A

-1.000, 1.865e-5
-1.001, 8.032e-5
-1.002, 1.266e-4
-1.003, 1.666e-4
-1.004, 2.036e-4
-1.005, 2.283e-4
-1.006, 2.530e-4
-1.007, 2.715e-4
-1.008, 2.869e-4
-1.009, 3.023e-4
-1.010, 3.115e-4
-1.011, 3.239e-4
-1.012, 3.331e-4
-1.013, 3.393e-4
-1.014, 3.485e-4
-1.015, 3.547e-4
-1.016, 3.578e-4
-1.017, 3.609e-4
-1.018, 3.670e-4
-1.019, 3.701e-4
-1.020, 3.732e-4
-1.021, 3.763e-4
-1.022, 3.825e-4
-1.023, 3.825e-4
-1.024, 3.855e-4
-1.025, 3.886e-4
-1.026, 3.917e-4
-1.027, 3.917e-4
-1.028, 3.948e-4
-1.029, 3.979e-4
-1.030, 3.979e-4
-1.031, 4.010e-4
-1.032, 4.010e-4
-1.033, 4.010e-4
-1.034, 4.010e-4
-1.035, 4.010e-4
-1.036, 4.040e-4
-1.037, 4.040e-4
-1.038, 4.071e-4
-1.039, 4.071e-4
-1.040, 4.102e-4
-1.041, 4.102e-4
-1.042, 4.102e-4
-1.043, 4.102e-4
-1.044, 4.133e-4
-1.045, 4.133e-4
-1.046, 4.133e-4
-1.047, 4.164e-4
-1.048, 4.164e-4
-1.049, 4.164e-4
-1.050, 4.164e-4
-1.051, 4.195e-4
-1.052, 4.164e-4
-1.053, 4.195e-4
-1.054, 4.195e-4
-1.055, 4.195e-4
-1.056, 4.195e-4
-1.057, 4.195e-4
-1.058, 4.195e-4
-1.059, 4.225e-4
-1.060, 4.225e-4
-1.061, 4.225e-4
-1.062, 4.225e-4
-1.063, 4.225e-4
-1.064, 4.256e-4
-1.065, 4.256e-4
-1.066, 4.256e-4
-1.067, 4.256e-4
-1.068, 4.256e-4
-1.069, 4.256e-4
-1.070, 4.256e-4
-1.071, 4.287e-4
-1.072, 4.287e-4
-1.073, 4.287e-4
-1.074, 4.256e-4
-1.075, 4.256e-4
-1.076, 4.287e-4
-1.077, 4.287e-4
-1.078, 4.287e-4
-1.079, 4.287e-4
-1.080, 4.287e-4
-1.081, 4.287e-4
-1.082, 4.287e-4
-1.083, 4.287e-4
-1.084, 4.287e-4
-1.085, 4.256e-4
-1.086, 4.287e-4
-1.087, 4.287e-4
-1.088, 4.287e-4
-1.089, 4.287e-4
-1.090, 4.256e-4
-1.091, 4.287e-4
-1.092, 4.256e-4
-1.093, 4.256e-4
-1.094, 4.256e-4
-1.095, 4.256e-4
-1.096, 4.256e-4
-1.097, 4.287e-4
-1.098, 4.287e-4
-1.099, 4.256e-4
-1.100, 4.256e-4
-1.101, 4.256e-4
-1.102, 4.256e-4
-1.103, 4.256e-4
-1.104, 4.256e-4
-1.105, 4.256e-4
-1.106, 4.256e-4
-1.107, 4.256e-4
-1.108, 4.256e-4
-1.109, 4.256e-4
-1.110, 4.256e-4
-1.111, 4.256e-4
-1.112, 4.256e-4
-1.113, 4.256e-4
-1.114, 4.256e-4
-1.115, 4.256e-4
-1.116, 4.256e-4
-1.117, 4.225e-4
-1.118, 4.225e-4
-1.119, 4.225e-4
-1.120, 4.225e-4
-1.121, 4.256e-4
-1.122, 4.256e-4
-1.123, 4.256e-4
-1.124, 4.225e-4
-1.125, 4.225e-4
-1.126, 4.225e-4
-1.127, 4.225e-4
-1.128, 4.225e-4
-1.129, 4.225e-4
-1.130, 4.225e-4
-1.131, 4.256e-4
-1.132, 4.225e-4
-1.133, 4.225e-4
-1.134, 4.225e-4
-1.135, 4.225e-4
-1.136, 4.225e-4
-1.137, 4.225e-4
-1.138, 4.225e-4
-1.139, 4.225e-4
-1.140, 4.225e-4
-1.141, 4.225e-4
-1.142, 4.225e-4
-1.143, 4.225e-4
-1.144, 4.195e-4
-1.145, 4.225e-4
-1.146, 4.225e-4
-1.147, 4.225e-4
-1.148, 4.225e-4
-1.149, 4.225e-4
-1.150, 4.225e-4
-1.151, 4.195e-4
-1.152, 4.195e-4
-1.153, 4.195e-4
-1.154, 4.195e-4
-1.155, 4.225e-4
-1.156, 4.225e-4
-1.157, 4.225e-4
-1.158, 4.225e-4
-1.159, 4.225e-4
-1.160, 4.195e-4
-1.161, 4.195e-4
-1.162, 4.225e-4
-1.163, 4.195e-4
-1.164, 4.225e-4
-1.165, 4.225e-4
-1.166, 4.225e-4
-1.167, 4.195e-4
-1.168, 4.195e-4
-1.169, 4.225e-4
-1.170, 4.195e-4
-1.171, 4.225e-4
-1.172, 4.225e-4
-1.173, 4.225e-4
-1.174, 4.225e-4
-1.175, 4.195e-4
-1.176, 4.195e-4
-1.177, 4.195e-4
-1.178, 4.225e-4
-1.179, 4.225e-4
-1.180, 4.225e-4
-1.181, 4.225e-4
-1.182, 4.225e-4
-1.183, 4.225e-4
-1.184, 4.195e-4
-1.185, 4.225e-4
-1.186, 4.225e-4
-1.187, 4.256e-4
-1.188, 4.256e-4
-1.189, 4.256e-4
-1.190, 4.256e-4
-1.191, 4.256e-4
-1.192, 4.256e-4
-1.193, 4.256e-4
-1.194, 4.256e-4
-1.195, 4.256e-4
-1.196, 4.287e-4
-1.197, 4.287e-4
-1.198, 4.287e-4
-1.199, 4.287e-4
-1.200, 4.287e-4
-1.201, 4.287e-4
-1.202, 4.287e-4
-1.203, 4.287e-4
-1.204, 4.318e-4
-1.205, 4.318e-4
-1.206, 4.318e-4
-1.207, 4.318e-4
-1.208, 4.318e-4
-1.209, 4.318e-4
-1.210, 4.349e-4
-1.211, 4.349e-4
-1.212, 4.349e-4
-1.213, 4.380e-4
-1.214, 4.380e-4
-1.215, 4.380e-4
-1.216, 4.380e-4
-1.217, 4.380e-4
-1.218, 4.410e-4
-1.219, 4.410e-4
-1.220, 4.441e-4
-1.221, 4.441e-4
-1.222, 4.441e-4
-1.223, 4.472e-4
-1.224, 4.472e-4
-1.225, 4.472e-4
-1.226, 4.472e-4
-1.227, 4.503e-4
-1.228, 4.503e-4
-1.229, 4.534e-4
-1.230, 4.565e-4
-1.231, 4.565e-4
-1.232, 4.565e-4
-1.233, 4.565e-4
-1.234, 4.595e-4
-1.235, 4.595e-4
-1.236, 4.595e-4
-1.237, 4.626e-4
-1.238, 4.626e-4
-1.239, 4.657e-4
-1.240, 4.657e-4
-1.241, 4.688e-4
-1.242, 4.688e-4
-1.243, 4.688e-4
-1.244, 4.719e-4
-1.245, 4.750e-4
-1.246, 4.780e-4
-1.247, 4.811e-4
-1.248, 4.811e-4
-1.249, 4.842e-4
-1.250, 4.842e-4
-1.251, 4.873e-4
-1.252, 4.873e-4
-1.253, 4.904e-4
-1.254, 4.935e-4
-1.255, 4.965e-4
-1.256, 4.996e-4
-1.257, 5.027e-4
-1.258, 5.027e-4
-1.259, 5.058e-4
-1.260, 5.089e-4
-1.261, 5.120e-4
-1.262, 5.150e-4
-1.263, 5.181e-4
-1.264, 5.212e-4
-1.265, 5.212e-4
-1.266, 5.243e-4
-1.267, 5.274e-4
-1.268, 5.305e-4
-1.269, 5.335e-4
-1.270, 5.397e-4
-1.271, 5.428e-4
-1.272, 5.459e-4
-1.273, 5.489e-4
-1.274, 5.520e-4
-1.275, 5.551e-4
-1.276, 5.582e-4
-1.277, 5.613e-4
-1.278, 5.674e-4
-1.279, 5.736e-4
-1.280, 5.767e-4
-1.281, 5.829e-4
-1.282, 5.859e-4
-1.283, 5.890e-4
-1.284, 5.952e-4
-1.285, 5.983e-4
-1.286, 6.014e-4
-1.287, 6.075e-4
-1.288, 6.137e-4
-1.289, 6.199e-4
-1.290, 6.229e-4
-1.291, 6.291e-4
-1.292, 6.322e-4
-1.293, 6.384e-4
-1.294, 6.414e-4
-1.295, 6.476e-4
-1.296, 6.538e-4
-1.297, 6.599e-4
-1.298, 6.661e-4
-1.299, 6.723e-4
-1.300, 6.784e-4
-1.301, 6.846e-4
-1.302, 6.908e-4
-1.303, 7.000e-4
-1.304, 7.062e-4
-1.305, 7.124e-4
-1.306, 7.216e-4
-1.307, 7.278e-4
-1.308, 7.339e-4
-1.309, 7.370e-4
-1.310, 7.463e-4
-1.311, 7.524e-4
-1.312, 7.617e-4
-1.313, 7.709e-4
-1.314, 7.802e-4
-1.315, 7.863e-4
-1.316, 7.956e-4
-1.317, 8.048e-4
-1.318, 8.141e-4
-1.319, 8.203e-4
-1.320, 8.295e-4
-1.321, 8.418e-4
-1.322, 8.511e-4
-1.323, 8.603e-4
-1.324, 8.696e-4
-1.325, 8.788e-4
-1.326, 8.912e-4
-1.327, 9.035e-4
-1.328, 9.128e-4
-1.329, 9.220e-4
-1.330, 9.343e-4
-1.331, 9.436e-4
-1.332, 9.559e-4
-1.333, 9.652e-4
-1.334, 9.775e-4
-1.335, 9.898e-4
-1.336, 1.002e-3
-1.337, 1.014e-3
-1.338, 1.027e-3
-1.339, 1.039e-3
-1.340, 1.051e-3
-1.341, 1.064e-3
-1.342, 1.076e-3
-1.343, 1.092e-3
-1.344, 1.104e-3
-1.345, 1.119e-3
-1.346, 1.135e-3
-1.347, 1.150e-3
-1.348, 1.166e-3
-1.349, 1.178e-3
-1.350, 1.193e-3
-1.351, 1.206e-3
-1.352, 1.221e-3
-1.353, 1.236e-3
-1.354, 1.255e-3
-1.355, 1.270e-3
-1.356, 1.286e-3
-1.357, 1.301e-3
-1.358, 1.320e-3
-1.359, 1.335e-3
-1.360, 1.354e-3
-1.361, 1.369e-3
-1.362, 1.388e-3
-1.363, 1.406e-3
-1.364, 1.425e-3
-1.365, 1.440e-3
-1.366, 1.458e-3
-1.367, 1.477e-3
-1.368, 1.495e-3
-1.369, 1.517e-3
-1.370, 1.536e-3
-1.371, 1.557e-3
-1.372, 1.576e-3
-1.373, 1.594e-3
-1.374, 1.616e-3
-1.375, 1.634e-3
-1.376, 1.653e-3
-1.377, 1.674e-3
-1.378, 1.696e-3
-1.379, 1.717e-3
-1.380, 1.739e-3
-1.381, 1.761e-3
-1.382, 1.782e-3
-1.383, 1.807e-3
-1.384, 1.825e-3
-1.385, 1.847e-3
-1.386, 1.865e-3
-1.387, 1.887e-3
-1.388, 1.912e-3
-1.389, 1.933e-3
-1.390, 1.958e-3
-1.391, 1.980e-3
-1.392, 2.004e-3
-1.393, 2.032e-3
-1.394, 2.057e-3
-1.395, 2.081e-3
-1.396, 2.106e-3
-1.397, 2.134e-3
-1.398, 2.155e-3
-1.399, 2.177e-3
-1.400, 2.198e-3
-1.401, 2.223e-3
-1.402, 2.248e-3
-1.403, 2.272e-3
-1.404, 2.297e-3
-1.405, 2.322e-3
-1.406, 2.349e-3
-1.407, 2.377e-3
-1.408, 2.402e-3
-1.409, 2.430e-3
-1.410, 2.457e-3
-1.411, 2.485e-3
-1.412, 2.516e-3
-1.413, 2.541e-3
-1.414, 2.571e-3
-1.415, 2.596e-3
-1.416, 2.624e-3
-1.417, 2.652e-3
-1.418, 2.682e-3
-1.419, 2.716e-3
-1.420, 2.750e-3
-1.421, 2.778e-3
-1.422, 2.806e-3
-1.423, 2.837e-3
-1.424, 2.864e-3
-1.425, 2.892e-3
-1.426, 2.920e-3
-1.427, 2.951e-3
-1.428, 2.982e-3
-1.429, 3.015e-3
-1.430, 3.049e-3
-1.431, 3.083e-3
-1.432, 3.117e-3
-1.433, 3.148e-3
-1.434, 3.176e-3
-1.435, 3.207e-3
-1.436, 3.237e-3
-1.437, 3.271e-3
-1.438, 3.305e-3
-1.439, 3.342e-3
-1.440, 3.376e-3
-1.441, 3.410e-3
-1.442, 3.441e-3
-1.443, 3.472e-3
-1.444, 3.509e-3
-1.445, 3.540e-3
-1.446, 3.573e-3
-1.447, 3.610e-3
-1.448, 3.647e-3
-1.449, 3.684e-3
-1.450, 3.718e-3
-1.451, 3.752e-3
-1.452, 3.789e-3
-1.453, 3.823e-3
-1.454, 3.857e-3
-1.455, 3.888e-3
-1.456, 3.922e-3
-1.457, 3.953e-3
-1.458, 3.990e-3
-1.459, 4.024e-3
-1.460, 4.061e-3
-1.461, 4.098e-3
-1.462, 4.135e-3
-1.463, 4.175e-3
-1.464, 4.209e-3
-1.465, 4.246e-3
-1.466, 4.283e-3
-1.467, 4.320e-3
-1.468, 4.357e-3
-1.469, 4.394e-3
-1.470, 4.428e-3
-1.471, 4.464e-3
-1.472, 4.501e-3
-1.473, 4.538e-3
-1.474, 4.579e-3
-1.475, 4.619e-3
-1.476, 4.659e-3
-1.477, 4.699e-3
-1.478, 4.736e-3
-1.479, 4.776e-3
-1.480, 4.819e-3
-1.481, 4.856e-3
-1.482, 4.893e-3
-1.483, 4.927e-3
-1.484, 4.964e-3
-1.485, 5.004e-3
-1.486, 5.047e-3
-1.487, 5.090e-3
-1.488, 5.130e-3
-1.489, 5.174e-3
-1.490, 5.214e-3
-1.491, 5.251e-3
-1.492, 5.288e-3
-1.493, 5.325e-3
-1.494, 5.365e-3
-1.495, 5.408e-3
-1.496, 5.451e-3
-1.497, 5.491e-3
-1.498, 5.528e-3
-1.499, 5.571e-3
-1.500, 5.562e-3
-1.499, 5.476e-3
-1.498, 5.408e-3
-1.497, 5.346e-3
-1.496, 5.294e-3
-1.495, 5.245e-3
-1.494, 5.201e-3
-1.493, 5.155e-3
-1.492, 5.109e-3
-1.491, 5.063e-3
-1.490, 5.019e-3
-1.489, 4.976e-3
-1.488, 4.936e-3
-1.487, 4.893e-3
-1.486, 4.850e-3
-1.485, 4.807e-3
-1.484, 4.760e-3
-1.483, 4.717e-3
-1.482, 4.677e-3
-1.481, 4.637e-3
-1.480, 4.603e-3
-1.479, 4.563e-3
-1.478, 4.523e-3
-1.477, 4.480e-3
-1.476, 4.437e-3
-1.475, 4.397e-3
-1.474, 4.357e-3
-1.473, 4.313e-3
-1.472, 4.270e-3
-1.471, 4.230e-3
-1.470, 4.187e-3
-1.469, 4.147e-3
-1.468, 4.107e-3
-1.467, 4.070e-3
-1.466, 4.036e-3
-1.465, 3.999e-3
-1.464, 3.956e-3
-1.463, 3.910e-3
-1.462, 3.863e-3
-1.461, 3.823e-3
-1.460, 3.780e-3
-1.459, 3.740e-3
-1.458, 3.700e-3
-1.457, 3.669e-3
-1.456, 3.635e-3
-1.455, 3.598e-3
-1.454, 3.564e-3
-1.453, 3.530e-3
-1.452, 3.490e-3
-1.451, 3.453e-3
-1.450, 3.413e-3
-1.449, 3.373e-3
-1.448, 3.336e-3
-1.447, 3.302e-3
-1.446, 3.271e-3
-1.445, 3.237e-3
-1.444, 3.204e-3
-1.443, 3.167e-3
-1.442, 3.133e-3
-1.441, 3.096e-3
-1.440, 3.059e-3
-1.439, 3.025e-3
-1.438, 2.991e-3
-1.437, 2.954e-3
-1.436, 2.920e-3
-1.435, 2.883e-3
-1.434, 2.849e-3
-1.433, 2.815e-3
-1.432, 2.784e-3
-1.431, 2.753e-3
-1.430, 2.719e-3
-1.429, 2.689e-3
-1.428, 2.658e-3
-1.427, 2.624e-3
-1.426, 2.590e-3
-1.425, 2.559e-3
-1.424, 2.525e-3
-1.423, 2.494e-3
-1.422, 2.460e-3
-1.421, 2.430e-3
-1.420, 2.399e-3
-1.419, 2.365e-3
-1.418, 2.334e-3
-1.417, 2.303e-3
-1.416, 2.275e-3
-1.415, 2.248e-3
-1.414, 2.217e-3
-1.413, 2.189e-3
-1.412, 2.161e-3
-1.411, 2.131e-3
-1.410, 2.100e-3
-1.409, 2.069e-3
-1.408, 2.041e-3
-1.407, 2.013e-3
-1.406, 1.986e-3
-1.405, 1.961e-3
-1.404, 1.930e-3
-1.403, 1.906e-3
-1.402, 1.878e-3
-1.401, 1.850e-3
-1.400, 1.822e-3
-1.399, 1.795e-3
-1.398, 1.767e-3
-1.397, 1.739e-3
-1.396, 1.714e-3
-1.395, 1.690e-3
-1.394, 1.665e-3
-1.393, 1.640e-3
-1.392, 1.616e-3
-1.391, 1.588e-3
-1.390, 1.563e-3
-1.389, 1.539e-3
-1.388, 1.511e-3
-1.387, 1.486e-3
-1.386, 1.462e-3
-1.385, 1.437e-3
-1.384, 1.412e-3
-1.383, 1.391e-3
-1.382, 1.366e-3
-1.381, 1.341e-3
-1.380, 1.320e-3
-1.379, 1.292e-3
-1.378, 1.267e-3
-1.377, 1.243e-3
-1.376, 1.221e-3
-1.375, 1.199e-3
-1.374, 1.181e-3
-1.373, 1.159e-3
-1.372, 1.141e-3
-1.371, 1.119e-3
-1.370, 1.098e-3
-1.369, 1.073e-3
-1.368, 1.051e-3
-1.367, 1.027e-3
-1.366, 1.005e-3
-1.365, 9.868e-4
-1.364, 9.652e-4
-1.363, 9.467e-4
-1.362, 9.282e-4
-1.361, 9.097e-4
-1.360, 8.912e-4
-1.359, 8.696e-4
-1.358, 8.511e-4
-1.357, 8.295e-4
-1.356, 8.110e-4
-1.355, 7.925e-4
-1.354, 7.740e-4
-1.353, 7.555e-4
-1.352, 7.370e-4
-1.351, 7.185e-4
-1.350, 7.000e-4
-1.349, 6.815e-4
-1.348, 6.630e-4
-1.347, 6.476e-4
-1.346, 6.291e-4
-1.345, 6.137e-4
-1.344, 5.952e-4
-1.343, 5.798e-4
-1.342, 5.613e-4
-1.341, 5.459e-4
-1.340, 5.305e-4
-1.339, 5.150e-4
-1.338, 4.965e-4
-1.337, 4.811e-4
-1.336, 4.657e-4
-1.335, 4.503e-4
-1.334, 4.349e-4
-1.333, 4.195e-4
-1.332, 4.040e-4
-1.331, 3.886e-4
-1.330, 3.763e-4
-1.329, 3.609e-4
-1.328, 3.485e-4
-1.327, 3.331e-4
-1.326, 3.177e-4
-1.325, 3.054e-4
-1.324, 2.900e-4
-1.323, 2.776e-4
-1.322, 2.622e-4
-1.321, 2.530e-4
-1.320, 2.376e-4
-1.319, 2.252e-4
-1.318, 2.129e-4
-1.317, 2.006e-4
-1.316, 1.882e-4
-1.315, 1.759e-4
-1.314, 1.636e-4
-1.313, 1.512e-4
-1.312, 1.389e-4
-1.311, 1.296e-4
-1.310, 1.173e-4
-1.309, 1.050e-4
-1.308, 9.265e-5
-1.307, 8.340e-5
-1.306, 7.415e-5
-1.305, 6.182e-5
-1.304, 5.257e-5
-1.303, 4.024e-5
-1.302, 3.099e-5
-1.301, 2.174e-5
-1.300, 9.405e-6
-1.299, 1.559e-7
-1.298, -1.218e-5
-1.297, -1.834e-5
-1.296, -2.759e-5
-1.295, -3.684e-5
-1.294, -4.609e-5
-1.293, -5.534e-5
-1.292, -6.459e-5
-1.291, -7.384e-5
-1.290, -8.309e-5
-1.289, -9.234e-5
-1.288, -9.542e-5
-1.287, -1.047e-4
-1.286, -1.139e-4
-1.285, -1.201e-4
-1.284, -1.293e-4
-1.283, -1.386e-4
-1.282, -1.448e-4
-1.281, -1.509e-4
-1.280, -1.602e-4
-1.279, -1.632e-4
-1.278, -1.694e-4
-1.277, -1.787e-4
-1.276, -1.848e-4
-1.275, -1.910e-4
-1.274, -1.972e-4
-1.273, -2.033e-4
-1.272, -2.095e-4
-1.271, -2.126e-4
-1.270, -2.187e-4
-1.269, -2.249e-4
-1.268, -2.311e-4
-1.267, -2.372e-4
-1.266, -2.434e-4
-1.265, -2.496e-4
-1.264, -2.527e-4
-1.263, -2.588e-4
-1.262, -2.619e-4
-1.261, -2.650e-4
-1.260, -2.712e-4
-1.259, -2.742e-4
-1.258, -2.804e-4
-1.257, -2.866e-4
-1.256, -2.866e-4
-1.255, -2.927e-4
-1.254, -2.958e-4
-1.253, -2.989e-4
-1.252, -3.020e-4
-1.251, -3.082e-4
-1.250, -3.112e-4
-1.249, -3.143e-4
-1.248, -3.205e-4
-1.247, -3.236e-4
-1.246, -3.236e-4
-1.245, -3.267e-4
-1.244, -3.297e-4
-1.243, -3.328e-4
-1.242, -3.390e-4
-1.241, -3.390e-4
-1.240, -3.421e-4
-1.239, -3.452e-4
-1.238, -3.482e-4
-1.237, -3.513e-4
-1.236, -3.513e-4
-1.235, -3.544e-4
-1.234, -3.575e-4
-1.233, -3.606e-4
-1.232, -3.606e-4
-1.231, -3.637e-4
-1.230, -3.667e-4
-1.229, -3.667e-4
-1.228, -3.698e-4
-1.227, -3.729e-4
-1.226, -3.729e-4
-1.225, -3.760e-4
-1.224, -3.760e-4
-1.223, -3.791e-4
-1.222, -3.791e-4
-1.221, -3.791e-4
-1.220, -3.821e-4
-1.219, -3.821e-4
-1.218, -3.852e-4
-1.217, -3.852e-4
-1.216, -3.883e-4
-1.215, -3.914e-4
-1.214, -3.914e-4
-1.213, -3.914e-4
-1.212, -3.914e-4
-1.211, -3.914e-4
-1.210, -3.945e-4
-1.209, -3.945e-4
-1.208, -3.976e-4
-1.207, -3.976e-4
-1.206, -3.976e-4
-1.205, -3.976e-4
-1.204, -4.006e-4
-1.203, -4.006e-4
-1.202, -4.006e-4
-1.201, -4.006e-4
-1.200, -4.037e-4
-1.199, -4.037e-4
-1.198, -4.037e-4
-1.197, -4.037e-4
-1.196, -4.037e-4
-1.195, -4.037e-4
-1.194, -4.068e-4
-1.193, -4.068e-4
-1.192, -4.068e-4
-1.191, -4.099e-4
-1.190, -4.099e-4
-1.189, -4.099e-4
-1.188, -4.099e-4
-1.187, -4.099e-4
-1.186, -4.099e-4
-1.185, -4.099e-4
-1.184, -4.099e-4
-1.183, -4.130e-4
-1.182, -4.130e-4
-1.181, -4.130e-4
-1.180, -4.130e-4
-1.179, -4.130e-4
-1.178, -4.130e-4
-1.177, -4.130e-4
-1.176, -4.161e-4
-1.175, -4.161e-4
-1.174, -4.161e-4
-1.173, -4.161e-4
-1.172, -4.161e-4
-1.171, -4.161e-4
-1.170, -4.161e-4
-1.169, -4.191e-4
-1.168, -4.161e-4
-1.167, -4.161e-4
-1.166, -4.191e-4
-1.165, -4.191e-4
-1.164, -4.191e-4
-1.163, -4.191e-4
-1.162, -4.161e-4
-1.161, -4.191e-4
-1.160, -4.191e-4
-1.159, -4.191e-4
-1.158, -4.191e-4
-1.157, -4.191e-4
-1.156, -4.191e-4
-1.155, -4.191e-4
-1.154, -4.191e-4
-1.153, -4.191e-4
-1.152, -4.222e-4
-1.151, -4.222e-4
-1.150, -4.222e-4
-1.149, -4.222e-4
-1.148, -4.222e-4
-1.147, -4.222e-4
-1.146, -4.222e-4
-1.145, -4.222e-4
-1.144, -4.222e-4
-1.143, -4.222e-4
-1.142, -4.253e-4
-1.141, -4.222e-4
-1.140, -4.253e-4
-1.139, -4.222e-4
-1.138, -4.222e-4
-1.137, -4.253e-4
-1.136, -4.253e-4
-1.135, -4.253e-4
-1.134, -4.253e-4
-1.133, -4.253e-4
-1.132, -4.284e-4
-1.131, -4.253e-4
-1.130, -4.253e-4
-1.129, -4.253e-4
-1.128, -4.253e-4
-1.127, -4.284e-4
-1.126, -4.284e-4
-1.125, -4.284e-4
-1.124, -4.284e-4
-1.123, -4.284e-4
-1.122, -4.284e-4
-1.121, -4.284e-4
-1.120, -4.284e-4
-1.119, -4.284e-4
-1.118, -4.284e-4
-1.117, -4.315e-4
-1.116, -4.315e-4
-1.115, -4.315e-4
-1.114, -4.315e-4
-1.113, -4.315e-4
-1.112, -4.346e-4
-1.111, -4.315e-4
-1.110, -4.315e-4
-1.109, -4.346e-4
-1.108, -4.346e-4
-1.107, -4.346e-4
-1.106, -4.346e-4
-1.105, -4.346e-4
-1.104, -4.346e-4
-1.103, -4.346e-4
-1.102, -4.346e-4
-1.101, -4.376e-4
-1.100, -4.376e-4
-1.099, -4.376e-4
-1.098, -4.407e-4
-1.097, -4.407e-4
-1.096, -4.376e-4
-1.095, -4.376e-4
-1.094, -4.376e-4
-1.093, -4.376e-4
-1.092, -4.376e-4
-1.091, -4.407e-4
-1.090, -4.407e-4
-1.089, -4.438e-4
-1.088, -4.438e-4
-1.087, -4.438e-4
-1.086, -4.438e-4
-1.085, -4.469e-4
-1.084, -4.469e-4
-1.083, -4.469e-4
-1.082, -4.469e-4
-1.081, -4.500e-4
-1.080, -4.500e-4
-1.079, -4.500e-4
-1.078, -4.531e-4
-1.077, -4.531e-4
-1.076, -4.561e-4
-1.075, -4.561e-4
-1.074, -4.592e-4
-1.073, -4.561e-4
-1.072, -4.561e-4
-1.071, -4.561e-4
-1.070, -4.592e-4
-1.069, -4.592e-4
-1.068, -4.592e-4
-1.067, -4.623e-4
-1.066, -4.623e-4
-1.065, -4.623e-4
-1.064, -4.654e-4
-1.063, -4.654e-4
-1.062, -4.654e-4
-1.061, -4.654e-4
-1.060, -4.685e-4
-1.059, -4.685e-4
-1.058, -4.716e-4
-1.057, -4.716e-4
-1.056, -4.716e-4
-1.055, -4.746e-4
-1.054, -4.746e-4
-1.053, -4.746e-4
-1.052, -4.777e-4
-1.051, -4.777e-4
-1.050, -4.777e-4
-1.049, -4.808e-4
-1.048, -4.808e-4
-1.047, -4.808e-4
-1.046, -4.808e-4
-1.045, -4.839e-4
-1.044, -4.839e-4
-1.043, -4.870e-4
-1.042, -4.870e-4
-1.041, -4.901e-4
-1.040, -4.901e-4
-1.039, -4.901e-4
-1.038, -4.901e-4
-1.037, -4.901e-4
-1.036, -4.931e-4
-1.035, -4.931e-4
-1.034, -4.962e-4
-1.033, -4.993e-4
-1.032, -4.993e-4
-1.031, -4.993e-4
-1.030, -5.024e-4
-1.029, -5.024e-4
-1.028, -5.024e-4
-1.027, -5.055e-4
-1.026, -5.055e-4
-1.025, -5.086e-4
-1.024, -5.116e-4
-1.023, -5.116e-4
-1.022, -5.147e-4
-1.021, -5.147e-4
-1.020, -5.147e-4
-1.019, -5.147e-4
-1.018, -5.178e-4
-1.017, -5.209e-4
-1.016, -5.209e-4
-1.015, -5.240e-4
-1.014, -5.240e-4
-1.013, -5.240e-4
-1.012, -5.271e-4
-1.011, -5.271e-4
-1.010, -5.301e-4
-1.009, -5.301e-4
-1.008, -5.332e-4
-1.007, -5.363e-4
-1.006, -5.363e-4
-1.005, -5.394e-4
-1.004, -5.394e-4
-1.003, -5.394e-4
-1.002, -5.425e-4
-1.001, -5.425e-4
