Potential V vs RHE, Current mA cm-2
0.013299999999999867,0.12863969849672777
0.012299999999999978,-0.5692798270656908
0.011299999999999866,-1.0490084288499246
0.010299999999999976,-1.4415908145624723
0.009299999999999864,-1.7910245056291363
0.008299999999999974,-2.1390434853959355
0.007299999999999862,-2.4446211261667834
0.006299999999999972,-2.706342716641815
0.00529999999999986,-3.0119203574126634
0.0042999999999999705,-3.2297858975918787
0.0032999999999998586,-3.403795387475278
0.0022999999999999687,-3.5353635383627267
0.0012999999999998568,-3.7093730282461257
0.00029999999999996696,-3.840941179133574
-0.000700000000000145,-3.971094618721158
-0.0017000000000000348,-4.102662769608606
-0.0027000000000001467,-4.23281620919619
-0.0037000000000000366,-4.406825699079589
-0.0047000000000001485,-4.582249900262854
-0.005700000000000038,-4.756259390146253
-0.00670000000000015,-4.9302688800296535
-0.00770000000000004,-5.0618370309171015
-0.008700000000000152,-5.191990470504685
-0.009700000000000042,-5.279702571096316
-0.010700000000000154,-5.367414671687949
-0.011700000000000044,-5.453712060979717
-0.012700000000000156,-5.5414241615713475
-0.013700000000000045,-5.629136262162981
-0.014700000000000157,-5.759289701750564
-0.015700000000000047,-5.9347139029338285
-0.01670000000000016,-6.064867342521412
-0.01770000000000005,-6.196435493408861
-0.01870000000000016,-6.326588932996443
-0.01970000000000005,-6.458157083883892
-0.020700000000000163,-6.54445447317566
-0.021700000000000053,-6.588310523471475
-0.022700000000000164,-6.6760226240631075
-0.023700000000000054,-6.719878674358924
-0.024700000000000166,-6.806176063650692
-0.025700000000000056,-6.893888164242324
-0.026700000000000168,-7.067897654125724
-0.027700000000000058,-7.199465805013171
-0.02870000000000017,-7.329619244600755
-0.02970000000000006,-7.50504344578402
-0.03070000000000017,-7.635196885371603
-0.03170000000000006,-7.722908985963235
-0.03270000000000017,-7.809206375255003
-0.03370000000000006,-7.896918475846635
-0.034700000000000175,-7.940774526142452
-0.035700000000000065,-7.984630576438266
-0.03670000000000018,-8.11478401602585
-0.03770000000000007,-8.202496116617484
-0.03870000000000018,-8.332649556205066
-0.03970000000000007,-8.464217707092514
-0.04070000000000018,-8.594371146680096
-0.04170000000000007,-8.725939297567548
-0.04270000000000018,-8.85609273715513
-0.04370000000000007,-8.943804837746763
-0.044700000000000184,-9.031516938338395
-0.045700000000000074,-9.11781432763016
-0.046700000000000186,-9.161670377925978
-0.047700000000000076,-9.24938247851761
-0.04870000000000019,-9.335679867809377
-0.04970000000000008,-9.423391968401008
-0.05070000000000019,-9.59740145828441
-0.05170000000000008,-9.728969609171857
-0.05270000000000019,-9.85912304875944
-0.05370000000000008,-9.946835149351072
-0.05470000000000019,-10.078403300238522
-0.05570000000000008,-10.164700689530287
-0.056700000000000195,-10.208556739826104
-0.057700000000000085,-10.296268840417738
-0.058700000000000196,-10.296268840417738
-0.059700000000000086,-10.382566229709504
-0.0607000000000002,-10.470278330301136
-0.06170000000000009,-10.601846481188586
-0.0627000000000002,-10.688143870480351
-0.06370000000000009,-10.863568071663616
-0.0647000000000002,-10.949865460955383
-0.06570000000000009,-11.037577561547016
-0.0667000000000002,-11.1677310011346
-0.0677000000000001,-11.211587051430415
-0.0687000000000002,-11.211587051430415
-0.0697000000000001,-11.255443101726232
-0.07070000000000021,-11.299299152022046
-0.0717000000000001,-11.385596541313816
-0.07270000000000021,-11.473308641905447
-0.0737000000000001,-11.56102074249708
-0.07470000000000021,-11.647318131788847
-0.0757000000000001,-11.778886282676295
-0.07670000000000021,-11.86659838326793
-0.0777000000000001,-11.952895772559694
-0.07870000000000021,-11.996751822855511
-0.0797000000000001,-12.040607873151327
-0.08070000000000022,-12.040607873151327
-0.0817000000000001,-12.040607873151327
-0.08270000000000022,-12.084463923447142
-0.08370000000000011,-12.12831997374296
-0.08470000000000022,-12.170761312738911
-0.08570000000000011,-12.258473413330542
-0.08670000000000022,-12.302329463626359
-0.08770000000000011,-12.390041564217992
-0.08870000000000022,-12.432482903213943
-0.08970000000000011,-12.520195003805576
-0.09070000000000022,-12.520195003805576
-0.09170000000000011,-12.520195003805576
-0.09270000000000023,-12.520195003805576
-0.09370000000000012,-12.476338953509758
-0.09470000000000023,-12.520195003805576
-0.09570000000000012,-12.520195003805576
-0.09670000000000023,-12.56405105410139
-0.09770000000000012,-12.607907104397206
-0.09870000000000023,-12.651763154693022
-0.09970000000000012,-12.694204493688973
-0.10070000000000023,-12.73806054398479
-0.10170000000000012,-12.781916594280606
-0.10270000000000024,-12.73806054398479
-0.10370000000000013,-12.694204493688973
-0.10470000000000024,-12.651763154693022
-0.10570000000000013,-12.607907104397206
-0.10670000000000024,-12.56405105410139
-0.10770000000000013,-12.56405105410139
-0.10870000000000024,-12.56405105410139
-0.10970000000000013,-12.56405105410139
-0.11070000000000024,-12.56405105410139
-0.11170000000000013,-12.56405105410139
-0.11270000000000002,-12.56405105410139
-0.11370000000000013,-12.520195003805576
-0.11470000000000002,-12.476338953509758
-0.11570000000000014,-12.390041564217992
-0.11670000000000003,-12.302329463626359
-0.11770000000000014,-12.258473413330542
-0.11870000000000003,-12.214617363034726
-0.11970000000000014,-12.170761312738911
-0.12070000000000003,-12.170761312738911
-0.12170000000000014,-12.170761312738911
-0.12270000000000003,-12.170761312738911
-0.12370000000000014,-12.170761312738911
-0.12470000000000003,-12.12831997374296
-0.12570000000000014,-12.084463923447142
-0.12670000000000003,-11.996751822855511
-0.12770000000000015,-11.909039722263879
-0.12870000000000004,-11.778886282676295
-0.12970000000000015,-11.73503023238048
-0.13070000000000004,-11.647318131788847
-0.13170000000000015,-11.647318131788847
-0.13270000000000004,-11.604876792792895
-0.13370000000000015,-11.604876792792895
-0.13470000000000004,-11.604876792792895
-0.13570000000000015,-11.517164692201263
-0.13670000000000004,-11.473308641905447
-0.13770000000000016,-11.385596541313816
-0.13870000000000005,-11.255443101726232
-0.13970000000000016,-11.1677310011346
-0.14070000000000005,-11.081433611842833
-0.14170000000000016,-10.993721511251199
-0.14270000000000005,-10.906009410659568
-0.14370000000000016,-10.906009410659568
-0.14470000000000005,-10.863568071663616
-0.14570000000000016,-10.819712021367803
-0.14670000000000005,-10.775855971071984
-0.14770000000000016,-10.731999920776168
-0.14870000000000005,-10.644287820184536
-0.14970000000000017,-10.557990430892769
-0.15070000000000006,-10.470278330301136
-0.15170000000000017,-10.382566229709504
-0.15270000000000006,-10.296268840417738
-0.15370000000000017,-10.208556739826104
-0.15470000000000006,-10.164700689530287
-0.15570000000000017,-10.164700689530287
-0.15670000000000006,-10.164700689530287
-0.15770000000000017,-10.164700689530287
-0.15870000000000006,-10.120844639234473
-0.15970000000000018,-10.078403300238522
-0.16070000000000007,-9.99069119964689
-0.16170000000000018,-9.902979099055257
-0.16270000000000007,-9.85912304875944
-0.16370000000000018,-9.772825659467674
-0.16470000000000007,-9.685113558876042
-0.16570000000000018,-9.641257508580225
-0.16670000000000007,-9.59740145828441
-0.16770000000000018,-9.59740145828441
-0.16870000000000007,-9.59740145828441
-0.16970000000000018,-9.55496011928846
-0.17070000000000007,-9.511104068992642
-0.17170000000000019,-9.467248018696827
-0.17270000000000008,-9.423391968401008
-0.1737000000000002,-9.335679867809377
-0.17470000000000008,-9.24938247851761
-0.1757000000000002,-9.161670377925978
-0.17670000000000008,-9.11781432763016
-0.1777000000000002,-9.073958277334345
-0.17870000000000008,-9.031516938338395
-0.1797000000000002,-9.031516938338395
-0.18070000000000008,-9.031516938338395
-0.1817000000000002,-9.031516938338395
-0.18270000000000008,-8.987660888042578
-0.1837000000000002,-8.943804837746763
-0.1847000000000001,-8.85609273715513
-0.1857000000000002,-8.812236686859313
-0.1867000000000001,-8.725939297567548
-0.1877000000000002,-8.68208324727173
-0.1887000000000001,-8.638227196975913
-0.1897000000000002,-8.638227196975913
-0.1907000000000001,-8.68208324727173
-0.1917000000000001,-8.638227196975913
-0.19269999999999998,-8.68208324727173
-0.1937000000000001,-8.638227196975913
-0.19469999999999998,-8.638227196975913
-0.1957000000000001,-8.594371146680096
-0.19669999999999999,-8.508073757388331
-0.1977000000000001,-8.464217707092514
-0.1987,-8.376505606500881
-0.1997000000000001,-8.332649556205066
-0.2007,-8.288793505909249
-0.2017000000000001,-8.288793505909249
-0.2027,-8.288793505909249
-0.2037000000000001,-8.288793505909249
-0.2047,-8.288793505909249
-0.2057000000000001,-8.288793505909249
-0.2067,-8.246352166913299
-0.2077000000000001,-8.202496116617484
-0.2087,-8.158640066321666
-0.2097000000000001,-8.070927965730034
-0.2107,-8.027071915434218
-0.2117000000000001,-7.984630576438266
-0.2127,-7.984630576438266
-0.2137000000000001,-7.984630576438266
-0.2147,-7.984630576438266
-0.2157000000000001,-8.027071915434218
-0.2167,-8.027071915434218
-0.21770000000000012,-8.027071915434218
-0.2187,-7.940774526142452
-0.21970000000000012,-7.896918475846635
-0.2207,-7.853062425550818
-0.22170000000000012,-7.809206375255003
-0.2227,-7.7653503249591855
-0.22370000000000012,-7.7653503249591855
-0.2247,-7.7653503249591855
-0.22570000000000012,-7.7653503249591855
-0.2267,-7.7653503249591855
-0.22770000000000012,-7.809206375255003
-0.22870000000000001,-7.809206375255003
-0.22970000000000013,-7.7653503249591855
-0.23070000000000002,-7.722908985963235
-0.23170000000000013,-7.679052935667419
-0.23270000000000002,-7.635196885371603
-0.23370000000000013,-7.591340835075788
-0.23470000000000002,-7.5474847847799715
-0.23570000000000013,-7.50504344578402
-0.23670000000000002,-7.50504344578402
-0.2376999999999999,-7.5474847847799715
-0.23870000000000002,-7.5474847847799715
-0.2396999999999999,-7.591340835075788
-0.24070000000000003,-7.5474847847799715
-0.24169999999999991,-7.5474847847799715
-0.24270000000000003,-7.461187395488204
-0.24369999999999992,-7.4173313451923875
-0.24470000000000003,-7.37347529489657
-0.24569999999999992,-7.329619244600755
-0.24670000000000003,-7.329619244600755
-0.24769999999999992,-7.329619244600755
-0.24870000000000003,-7.329619244600755
-0.24969999999999992,-7.37347529489657
-0.25070000000000003,-7.37347529489657
-0.2516999999999999,-7.37347529489657
-0.25270000000000004,-7.4173313451923875
-0.2536999999999999,-7.37347529489657
-0.25470000000000004,-7.329619244600755
-0.2556999999999999,-7.28576319430494
-0.25670000000000004,-7.243321855308987
-0.25769999999999993,-7.199465805013171
-0.25870000000000004,-7.199465805013171
-0.25969999999999993,-7.199465805013171
-0.26070000000000004,-7.199465805013171
-0.26169999999999993,-7.199465805013171
-0.26270000000000004,-7.243321855308987
-0.26369999999999993,-7.243321855308987
-0.26470000000000005,-7.243321855308987
-0.26569999999999994,-7.243321855308987
-0.26670000000000005,-7.155609754717355
-0.26769999999999994,-7.155609754717355
-0.26870000000000005,-7.111753704421539
-0.26969999999999994,-7.067897654125724
-0.27070000000000005,-7.067897654125724
-0.27169999999999994,-7.067897654125724
-0.27270000000000005,-7.111753704421539
-0.27369999999999994,-7.155609754717355
-0.27470000000000006,-7.199465805013171
-0.27569999999999995,-7.199465805013171
-0.27670000000000006,-7.199465805013171
-0.27769999999999995,-7.155609754717355
-0.27870000000000006,-7.111753704421539
-0.27969999999999995,-7.067897654125724
-0.28070000000000006,-7.067897654125724
-0.28169999999999995,-7.024041603829907
-0.28270000000000006,-7.024041603829907
-0.28369999999999995,-7.067897654125724
-0.28470000000000006,-7.067897654125724
-0.28569999999999995,-7.111753704421539
-0.28670000000000007,-7.155609754717355
-0.28769999999999996,-7.155609754717355
-0.28870000000000007,-7.111753704421539
-0.28969999999999996,-7.111753704421539
-0.29070000000000007,-7.067897654125724
-0.29169999999999996,-7.024041603829907
-0.29270000000000007,-7.024041603829907
-0.29369999999999996,-7.024041603829907
-0.2947000000000001,-7.024041603829907
-0.29569999999999996,-7.067897654125724
-0.2967000000000001,-7.111753704421539
-0.29769999999999996,-7.155609754717355
-0.2987000000000001,-7.199465805013171
-0.29969999999999997,-7.199465805013171
-0.3007000000000001,-7.155609754717355
-0.30169999999999997,-7.155609754717355
-0.3027000000000001,-7.155609754717355
-0.30369999999999997,-7.111753704421539
-0.3047000000000001,-7.111753704421539
-0.30569999999999997,-7.111753704421539
-0.3067000000000001,-7.155609754717355
-0.3077,-7.199465805013171
-0.3087000000000001,-7.243321855308987
-0.3097,-7.28576319430494
-0.3107000000000001,-7.28576319430494
-0.3117,-7.329619244600755
-0.3127000000000001,-7.329619244600755
-0.3137,-7.28576319430494
-0.3147000000000001,-7.28576319430494
-0.3157,-7.28576319430494
-0.3167000000000001,-7.28576319430494
-0.3177,-7.28576319430494
-0.3187000000000001,-7.37347529489657
-0.3197,-7.4173313451923875
-0.3207000000000001,-7.50504344578402
-0.3217,-7.5474847847799715
-0.3227000000000001,-7.591340835075788
-0.3237,-7.635196885371603
-0.3247000000000001,-7.679052935667419
-0.3257,-7.679052935667419
-0.3267000000000001,-7.679052935667419
-0.3277,-7.722908985963235
-0.3287000000000001,-7.7653503249591855
-0.3297,-7.809206375255003
-0.3307000000000001,-7.853062425550818
-0.3317,-7.896918475846635
-0.3327000000000001,-7.984630576438266
-0.3337,-8.027071915434218
-0.3347000000000001,-8.070927965730034
-0.3357,-8.027071915434218
-0.3367000000000001,-8.070927965730034
-0.3377,-8.070927965730034
-0.3387000000000001,-8.070927965730034
-0.3397,-8.11478401602585
-0.3407000000000001,-8.158640066321666
-0.3417,-8.246352166913299
-0.3427000000000001,-8.332649556205066
-0.3437,-8.4203616567967
-0.3447000000000001,-8.55051509638428
-0.3457,-8.638227196975913
-0.3467000000000001,-8.725939297567548
-0.3477,-8.812236686859313
-0.3487000000000001,-8.85609273715513
-0.3497,-8.899948787450944
-0.3507000000000001,-8.987660888042578
-0.3517,-9.073958277334345
-0.3527000000000001,-9.205526428221793
-0.3537,-9.335679867809377
-0.3547000000000001,-9.423391968401008
-0.3557,-9.59740145828441
-0.35670000000000013,-9.728969609171857
-0.3577,-9.81668170976349
-0.35870000000000013,-9.902979099055257
-0.3597,-9.99069119964689
-0.36070000000000013,-10.078403300238522
-0.3617,-10.120844639234473
-0.3626999999999999,-10.25241279012192
-0.3637,-10.340124890713554
-0.3646999999999999,-10.514134380596953
-0.3657,-10.644287820184536
-0.3666999999999999,-10.819712021367803
-0.3677,-11.037577561547016
-0.3686999999999999,-11.255443101726232
-0.36970000000000003,-11.473308641905447
-0.3706999999999999,-11.647318131788847
-0.37170000000000003,-11.86659838326793
-0.3726999999999999,-12.084463923447142
-0.37370000000000003,-12.302329463626359
-0.3746999999999999,-12.56405105410139
-0.37570000000000003,-12.825772644576423
-0.3766999999999999,-13.13135028534727
-0.37770000000000004,-13.436927926118118
-0.3786999999999999,-13.741090855589102
-0.37970000000000004,-14.090524546655764
-0.3806999999999999,-14.401761032626075
-0.38170000000000004,-14.741291744593681
-0.38269999999999993,-15.05252823056399
-0.38370000000000004,-15.349617603535648
-0.38469999999999993,-15.70329542850191
-0.38570000000000004,-16.056973253468165
-0.38669999999999993,-16.438945304431726
-0.38770000000000004,-16.877505807389888
-0.38869999999999993,-17.316066310348052
-0.38970000000000005,-17.839509491298113
-0.39069999999999994,-18.40539401124413
-0.39170000000000005,-18.97127853119014
-0.39269999999999994,-19.579604390132108
-0.39370000000000005,-20.159636023076775
-0.39469999999999994,-20.810403221014692
-0.39570000000000005,-21.418729079956652
-0.39669999999999994,-22.069496277894572
-0.39770000000000005,-22.819293266823045
-0.39869999999999994,-23.55494314275286
-0.39970000000000006,-24.34718147067728
-0.40069999999999995,-25.210155363594954
-0.40170000000000006,-26.129717708507226
-0.40269999999999995,-27.134162731411404
-0.40370000000000006,-28.13860775431558
-0.40469999999999995,-29.18549411621571
-0.40570000000000006,-30.189939139119886
-0.40669999999999995,-31.23682550102001
-0.40770000000000006,-32.32615320191609
-0.40869999999999995,-33.41548090281216
-0.40970000000000006,-34.58969128170015
-0.41069999999999995,-35.721460321592176
-0.41170000000000007,-36.99470049147071
-0.41269999999999996,-38.253793548350586
-0.41370000000000007,-39.51288660523048
-0.41469999999999996,-40.87100945310091
-0.41570000000000007,-42.186690961975394
-0.41669999999999996,-43.57310803584313
-0.41770000000000007,-44.88878954471762
-0.41869999999999996,-46.27520661858535
-0.4197000000000001,-47.633329466455784
-0.42069999999999996,-48.97730520132757
-0.4217000000000001,-50.335428049198
-0.42269999999999996,-51.77843357506035
-0.4237000000000001,-53.22143910092268
-0.42469999999999997,-54.69273885278232
-0.4257000000000001,-56.22062705663656
-0.42669999999999997,-57.79095659948675
-0.4277000000000001,-59.36128614233694
-0.42869999999999997,-60.889174346191176
-0.4297000000000001,-62.37462121104946
-0.43069999999999997,-63.902509414903705
-0.4317000000000001,-65.43039761875795
-0.4327,-66.91584448361623
-0.4337000000000001,-68.44373268747047
-0.4347,-69.95747377832606
-0.4357000000000001,-71.44292064318435
-0.4367,-72.92836750804264
-0.4377000000000001,-74.41381437290093
-0.4387,-75.85681989876326
-0.4397000000000001,-77.243236972631
-0.4407,-78.60135982050144
-0.4417000000000001,-79.94533555537322
-0.4427,-81.91178426218562
-0.4437000000000001,-82.78890526810196
-0.4447,-84.09043966397778
-0.4457000000000001,-85.44856251184822
-0.4467,-86.93400937670651
-0.4477000000000001,-88.46189758056073
-0.4487,-90.07466846240689
-0.4497000000000001,-91.68743934425302
-0.4507,-93.21532754810727
-0.4517000000000001,-94.7432157519615
-0.4527,-96.12963282582925
-0.4537000000000001,-97.44531433470372
-0.4547,-98.7044073915836
-0.4557000000000001,-99.87861777047159
-0.4567,-101.06697526235823
-0.4577000000000001,-102.24118564124619
-0.4587,-103.45783735913014
-0.4597000000000001,-104.68863619001272
-0.4607,-105.99017058588855
-0.4617000000000001,-107.20682230377247
-0.4627,-108.48006247365102
-0.4637000000000001,-109.73915553053091
-0.4647,-110.96995436141347
-0.4657000000000001,-112.18660607929739
-0.4667,-113.36081645818538
-0.4677000000000001,-114.53502683707337
-0.4687,-115.76582566795594
-0.4697000000000001,-117.02491872483584
-0.4707,-118.15668776472786
-0.4717000000000001,-119.38748659561045
-0.4727,-120.60413831349437
-0.4737000000000001,-121.82079003137831
-0.4747,-122.95255907127036
-0.4757000000000001,-124.22579924114888
-0.4767,-125.35756828104091
-0.4777000000000001,-126.40445464294103
-0.4787,-127.45134100484115
-0.4797000000000001,-128.54066870573723
-0.4807,-129.67243774562928
-0.48170000000000013,-130.76176544652535
-0.4827,-131.95012293841197
-0.48370000000000013,-133.03945063930803
-0.4847,-134.21366101819604
-0.48570000000000013,-135.3029887190921
-0.4867,-135.65666654405837
-0.48570000000000013,-134.46830905217172
-0.4847,-133.37898135127566
-0.48370000000000013,-132.20477097238768
-0.4827,-131.03056059349967
-0.48170000000000013,-129.89879155360765
-0.4807,-128.752875400717
-0.4797000000000001,-127.72013615181551
-0.4787,-126.57421999892482
-0.4777000000000001,-125.48489229802875
-0.4767,-124.43800593612862
-0.4757000000000001,-123.43356091322445
-0.4747,-122.34423321232836
-0.4737000000000001,-121.29734685042824
-0.4727,-120.25046048852812
-0.4717000000000001,-118.99136743164823
-0.4707,-117.94448106974811
-0.4697000000000001,-116.81271202985609
-0.4687,-115.76582566795594
-0.4677000000000001,-114.80382198404773
-0.4667,-113.84181830013951
-0.4657000000000001,-112.87981461623129
-0.4647,-111.91781093232305
-0.4637000000000001,-111.05483703940537
-0.4627,-109.9655093385093
