Aug. 23, 2024   10:25:47
Cyclic Voltammetry
File: c:/users/guazh/data/20240813_batch_94_500/2024-08-15-exp168\exp168-2024-08-23t10_16_02-arkoh\exp168_cv_sr_100mvs_efin_-1500mv.bin
Data Source:  Experiment
Instrument Model:  CHI760E
Header: CV ran at 100 mVs
Note: 

Init E (V) = -1
High E (V) = -1
Low E (V) = -1.5
Final E (V) = -1
Init P/N = N
Scan Rate (V/s) = 0.1
Segment = 3
Sample Interval (V) = 0.001
Quiet Time (sec) = 2
Sensitivity (A/V) = 0.01
Comp R (ohm) = 1.7

Results:

Channel 1:
Segment 1:

Segment 2:

Segment 3:

Potential/V, Current/A

-1.000, 4.053e-6
-1.001, 9.973e-6
-1.002, 1.252e-5
-1.003, 1.340e-5
-1.004, 1.526e-5
-1.005, 1.596e-5
-1.006, 1.678e-5
-1.007, 1.792e-5
-1.008, 1.790e-5
-1.009, 1.931e-5
-1.010, 1.945e-5
-1.011, 1.981e-5
-1.012, 2.081e-5
-1.013, 2.052e-5
-1.014, 2.147e-5
-1.015, 2.156e-5
-1.016, 2.194e-5
-1.017, 2.254e-5
-1.018, 2.234e-5
-1.019, 2.316e-5
-1.020, 2.307e-5
-1.021, 2.341e-5
-1.022, 2.397e-5
-1.023, 2.371e-5
-1.024, 2.476e-5
-1.025, 2.458e-5
-1.026, 2.488e-5
-1.027, 2.547e-5
-1.028, 2.489e-5
-1.029, 2.573e-5
-1.030, 2.557e-5
-1.031, 2.598e-5
-1.032, 2.640e-5
-1.033, 2.592e-5
-1.034, 2.675e-5
-1.035, 2.651e-5
-1.036, 2.706e-5
-1.037, 2.749e-5
-1.038, 2.691e-5
-1.039, 2.770e-5
-1.040, 2.753e-5
-1.041, 2.774e-5
-1.042, 2.825e-5
-1.043, 2.783e-5
-1.044, 2.859e-5
-1.045, 2.850e-5
-1.046, 2.846e-5
-1.047, 2.918e-5
-1.048, 2.852e-5
-1.049, 2.942e-5
-1.050, 2.930e-5
-1.051, 2.953e-5
-1.052, 3.018e-5
-1.053, 2.950e-5
-1.054, 3.031e-5
-1.055, 3.014e-5
-1.056, 3.028e-5
-1.057, 3.088e-5
-1.058, 3.060e-5
-1.059, 3.129e-5
-1.060, 3.153e-5
-1.061, 3.167e-5
-1.062, 3.225e-5
-1.063, 3.213e-5
-1.064, 3.291e-5
-1.065, 3.296e-5
-1.066, 3.317e-5
-1.067, 3.374e-5
-1.068, 3.333e-5
-1.069, 3.410e-5
-1.070, 3.400e-5
-1.071, 3.425e-5
-1.072, 3.471e-5
-1.073, 3.420e-5
-1.074, 3.487e-5
-1.075, 3.490e-5
-1.076, 3.489e-5
-1.077, 3.536e-5
-1.078, 3.466e-5
-1.079, 3.542e-5
-1.080, 3.521e-5
-1.081, 3.536e-5
-1.082, 3.563e-5
-1.083, 3.496e-5
-1.084, 3.578e-5
-1.085, 3.542e-5
-1.086, 3.569e-5
-1.087, 3.586e-5
-1.088, 3.547e-5
-1.089, 3.607e-5
-1.090, 3.580e-5
-1.091, 3.588e-5
-1.092, 3.627e-5
-1.093, 3.566e-5
-1.094, 3.633e-5
-1.095, 3.615e-5
-1.096, 3.609e-5
-1.097, 3.654e-5
-1.098, 3.593e-5
-1.099, 3.665e-5
-1.100, 3.651e-5
-1.101, 3.659e-5
-1.102, 3.670e-5
-1.103, 3.624e-5
-1.104, 3.662e-5
-1.105, 3.659e-5
-1.106, 3.669e-5
-1.107, 3.705e-5
-1.108, 3.641e-5
-1.109, 3.689e-5
-1.110, 3.507e-5
-1.111, 3.660e-5
-1.112, 3.809e-5
-1.113, 3.689e-5
-1.114, 3.738e-5
-1.115, 3.708e-5
-1.116, 3.709e-5
-1.117, 3.748e-5
-1.118, 3.672e-5
-1.119, 3.730e-5
-1.120, 3.710e-5
-1.121, 3.720e-5
-1.122, 3.760e-5
-1.123, 3.680e-5
-1.124, 3.740e-5
-1.125, 3.718e-5
-1.126, 3.718e-5
-1.127, 3.768e-5
-1.128, 3.688e-5
-1.129, 3.757e-5
-1.130, 3.738e-5
-1.131, 3.712e-5
-1.132, 3.777e-5
-1.133, 3.705e-5
-1.134, 3.762e-5
-1.135, 3.737e-5
-1.136, 3.719e-5
-1.137, 3.767e-5
-1.138, 3.693e-5
-1.139, 3.735e-5
-1.140, 3.735e-5
-1.141, 3.720e-5
-1.142, 3.774e-5
-1.143, 3.696e-5
-1.144, 3.742e-5
-1.145, 3.717e-5
-1.146, 3.724e-5
-1.147, 3.768e-5
-1.148, 3.701e-5
-1.149, 3.753e-5
-1.150, 3.729e-5
-1.151, 3.735e-5
-1.152, 3.774e-5
-1.153, 3.690e-5
-1.154, 3.778e-5
-1.155, 3.742e-5
-1.156, 3.734e-5
-1.157, 3.762e-5
-1.158, 3.703e-5
-1.159, 3.784e-5
-1.160, 3.751e-5
-1.161, 3.739e-5
-1.162, 3.797e-5
-1.163, 3.715e-5
-1.164, 3.781e-5
-1.165, 3.767e-5
-1.166, 3.742e-5
-1.167, 3.802e-5
-1.168, 3.757e-5
-1.169, 3.805e-5
-1.170, 3.793e-5
-1.171, 3.780e-5
-1.172, 3.832e-5
-1.173, 3.762e-5
-1.174, 3.835e-5
-1.175, 3.814e-5
-1.176, 3.831e-5
-1.177, 3.873e-5
-1.178, 3.823e-5
-1.179, 3.891e-5
-1.180, 3.872e-5
-1.181, 3.869e-5
-1.182, 3.923e-5
-1.183, 3.880e-5
-1.184, 3.957e-5
-1.185, 3.954e-5
-1.186, 3.946e-5
-1.187, 4.003e-5
-1.188, 3.942e-5
-1.189, 4.020e-5
-1.190, 4.030e-5
-1.191, 4.031e-5
-1.192, 3.934e-5
-1.193, 3.983e-5
-1.194, 4.072e-5
-1.195, 4.069e-5
-1.196, 4.111e-5
-1.197, 4.196e-5
-1.198, 4.175e-5
-1.199, 4.201e-5
-1.200, 4.244e-5
-1.201, 4.276e-5
-1.202, 4.340e-5
-1.203, 4.278e-5
-1.204, 4.387e-5
-1.205, 4.414e-5
-1.206, 4.411e-5
-1.207, 4.498e-5
-1.208, 4.478e-5
-1.209, 4.585e-5
-1.210, 4.631e-5
-1.211, 4.742e-5
-1.212, 4.746e-5
-1.213, 4.705e-5
-1.214, 4.806e-5
-1.215, 4.833e-5
-1.216, 4.868e-5
-1.217, 4.969e-5
-1.218, 4.956e-5
-1.219, 5.051e-5
-1.220, 5.110e-5
-1.221, 5.136e-5
-1.222, 5.255e-5
-1.223, 5.257e-5
-1.224, 5.377e-5
-1.225, 5.421e-5
-1.226, 5.472e-5
-1.227, 5.577e-5
-1.228, 5.610e-5
-1.229, 5.776e-5
-1.230, 5.809e-5
-1.231, 5.854e-5
-1.232, 6.001e-5
-1.233, 6.026e-5
-1.234, 6.188e-5
-1.235, 6.240e-5
-1.236, 6.315e-5
-1.237, 6.464e-5
-1.238, 6.511e-5
-1.239, 6.650e-5
-1.240, 6.748e-5
-1.241, 6.828e-5
-1.242, 7.009e-5
-1.243, 7.075e-5
-1.244, 7.247e-5
-1.245, 7.344e-5
-1.246, 7.445e-5
-1.247, 7.633e-5
-1.248, 7.695e-5
-1.249, 7.893e-5
-1.250, 8.029e-5
-1.251, 8.153e-5
-1.252, 8.356e-5
-1.253, 8.446e-5
-1.254, 8.659e-5
-1.255, 8.812e-5
-1.256, 8.947e-5
-1.257, 9.174e-5
-1.258, 9.275e-5
-1.259, 9.529e-5
-1.260, 9.716e-5
-1.261, 9.884e-5
-1.262, 1.013e-4
-1.263, 1.030e-4
-1.264, 1.053e-4
-1.265, 1.074e-4
-1.266, 1.094e-4
-1.267, 1.122e-4
-1.268, 1.140e-4
-1.269, 1.169e-4
-1.270, 1.195e-4
-1.271, 1.217e-4
-1.272, 1.250e-4
-1.273, 1.270e-4
-1.274, 1.304e-4
-1.275, 1.330e-4
-1.276, 1.357e-4
-1.277, 1.394e-4
-1.278, 1.418e-4
-1.279, 1.456e-4
-1.280, 1.489e-4
-1.281, 1.519e-4
-1.282, 1.561e-4
-1.283, 1.589e-4
-1.284, 1.633e-4
-1.285, 1.667e-4
-1.286, 1.702e-4
-1.287, 1.750e-4
-1.288, 1.783e-4
-1.289, 1.831e-4
-1.290, 1.872e-4
-1.291, 1.912e-4
-1.292, 1.964e-4
-1.293, 2.002e-4
-1.294, 2.057e-4
-1.295, 2.106e-4
-1.296, 2.151e-4
-1.297, 2.210e-4
-1.298, 2.254e-4
-1.299, 2.314e-4
-1.300, 2.369e-4
-1.301, 2.421e-4
-1.302, 2.487e-4
-1.303, 2.540e-4
-1.304, 2.606e-4
-1.305, 2.668e-4
-1.306, 2.730e-4
-1.307, 2.803e-4
-1.308, 2.864e-4
-1.309, 2.937e-4
-1.310, 3.010e-4
-1.311, 3.079e-4
-1.312, 3.161e-4
-1.313, 3.230e-4
-1.314, 3.315e-4
-1.315, 3.394e-4
-1.316, 3.475e-4
-1.317, 3.568e-4
-1.318, 3.646e-4
-1.319, 3.741e-4
-1.320, 3.827e-4
-1.321, 3.911e-4
-1.322, 4.013e-4
-1.323, 4.101e-4
-1.324, 4.206e-4
-1.325, 4.307e-4
-1.326, 4.409e-4
-1.327, 4.521e-4
-1.328, 4.621e-4
-1.329, 4.738e-4
-1.330, 4.850e-4
-1.331, 4.965e-4
-1.332, 5.093e-4
-1.333, 5.206e-4
-1.334, 5.338e-4
-1.335, 5.464e-4
-1.336, 5.588e-4
-1.337, 5.729e-4
-1.338, 5.858e-4
-1.339, 5.999e-4
-1.340, 6.137e-4
-1.341, 6.276e-4
-1.342, 6.430e-4
-1.343, 6.571e-4
-1.344, 6.729e-4
-1.345, 6.882e-4
-1.346, 7.040e-4
-1.347, 7.222e-4
-1.348, 7.371e-4
-1.349, 7.545e-4
-1.350, 7.712e-4
-1.351, 7.885e-4
-1.352, 8.069e-4
-1.353, 8.245e-4
-1.354, 8.434e-4
-1.355, 8.614e-4
-1.356, 8.803e-4
-1.357, 9.002e-4
-1.358, 9.189e-4
-1.359, 9.392e-4
-1.360, 9.589e-4
-1.361, 9.792e-4
-1.362, 1.000e-3
-1.363, 1.020e-3
-1.364, 1.042e-3
-1.365, 1.063e-3
-1.366, 1.085e-3
-1.367, 1.107e-3
-1.368, 1.129e-3
-1.369, 1.152e-3
-1.370, 1.175e-3
-1.371, 1.197e-3
-1.372, 1.221e-3
-1.373, 1.244e-3
-1.374, 1.268e-3
-1.375, 1.292e-3
-1.376, 1.316e-3
-1.377, 1.342e-3
-1.378, 1.366e-3
-1.379, 1.391e-3
-1.380, 1.417e-3
-1.381, 1.442e-3
-1.382, 1.469e-3
-1.383, 1.494e-3
-1.384, 1.521e-3
-1.385, 1.547e-3
-1.386, 1.573e-3
-1.387, 1.601e-3
-1.388, 1.628e-3
-1.389, 1.656e-3
-1.390, 1.683e-3
-1.391, 1.711e-3
-1.392, 1.739e-3
-1.393, 1.766e-3
-1.394, 1.795e-3
-1.395, 1.823e-3
-1.396, 1.851e-3
-1.397, 1.880e-3
-1.398, 1.908e-3
-1.399, 1.938e-3
-1.400, 1.966e-3
-1.401, 1.995e-3
-1.402, 2.025e-3
-1.403, 2.053e-3
-1.404, 2.083e-3
-1.405, 2.111e-3
-1.406, 2.141e-3
-1.407, 2.171e-3
-1.408, 2.199e-3
-1.409, 2.229e-3
-1.410, 2.258e-3
-1.411, 2.287e-3
-1.412, 2.317e-3
-1.413, 2.345e-3
-1.414, 2.378e-3
-1.415, 2.409e-3
-1.416, 2.438e-3
-1.417, 2.468e-3
-1.418, 2.497e-3
-1.419, 2.527e-3
-1.420, 2.556e-3
-1.421, 2.586e-3
-1.422, 2.615e-3
-1.423, 2.655e-3
-1.424, 2.683e-3
-1.425, 2.713e-3
-1.426, 2.741e-3
-1.427, 2.768e-3
-1.428, 2.798e-3
-1.429, 2.826e-3
-1.430, 2.859e-3
-1.431, 2.887e-3
-1.432, 2.917e-3
-1.433, 2.945e-3
-1.434, 2.978e-3
-1.435, 3.004e-3
-1.436, 3.034e-3
-1.437, 3.065e-3
-1.438, 3.097e-3
-1.439, 3.133e-3
-1.440, 3.160e-3
-1.441, 3.190e-3
-1.442, 3.217e-3
-1.443, 3.246e-3
-1.444, 3.274e-3
-1.445, 3.300e-3
-1.446, 3.329e-3
-1.447, 3.355e-3
-1.448, 3.383e-3
-1.449, 3.414e-3
-1.450, 3.442e-3
-1.451, 3.465e-3
-1.452, 3.507e-3
-1.453, 3.566e-3
-1.454, 3.591e-3
-1.455, 3.613e-3
-1.456, 3.639e-3
-1.457, 3.670e-3
-1.458, 3.699e-3
-1.459, 3.725e-3
-1.460, 3.757e-3
-1.461, 3.787e-3
-1.462, 3.815e-3
-1.463, 3.845e-3
-1.464, 3.877e-3
-1.465, 3.907e-3
-1.466, 3.944e-3
-1.467, 3.977e-3
-1.468, 4.005e-3
-1.469, 4.044e-3
-1.470, 4.085e-3
-1.471, 4.136e-3
-1.472, 4.179e-3
-1.473, 4.219e-3
-1.474, 4.252e-3
-1.475, 4.294e-3
-1.476, 4.334e-3
-1.477, 4.379e-3
-1.478, 4.419e-3
-1.479, 4.452e-3
-1.480, 4.487e-3
-1.481, 4.526e-3
-1.482, 4.559e-3
-1.483, 4.601e-3
-1.484, 4.636e-3
-1.485, 4.690e-3
-1.486, 4.726e-3
-1.487, 4.756e-3
-1.488, 4.795e-3
-1.489, 4.828e-3
-1.490, 4.864e-3
-1.491, 4.904e-3
-1.492, 4.937e-3
-1.493, 4.973e-3
-1.494, 5.005e-3
-1.495, 5.040e-3
-1.496, 5.076e-3
-1.497, 5.108e-3
-1.498, 5.152e-3
-1.499, 5.190e-3
-1.500, 5.179e-3
-1.499, 5.121e-3
-1.498, 5.063e-3
-1.497, 5.009e-3
-1.496, 4.952e-3
-1.495, 4.894e-3
-1.494, 4.847e-3
-1.493, 4.797e-3
-1.492, 4.750e-3
-1.491, 4.701e-3
-1.490, 4.660e-3
-1.489, 4.611e-3
-1.488, 4.569e-3
-1.487, 4.508e-3
-1.486, 4.461e-3
-1.485, 4.415e-3
-1.484, 4.376e-3
-1.483, 4.334e-3
-1.482, 4.282e-3
-1.481, 4.248e-3
-1.480, 4.201e-3
-1.479, 4.156e-3
-1.478, 4.126e-3
-1.477, 4.086e-3
-1.476, 4.038e-3
-1.475, 3.993e-3
-1.474, 3.951e-3
-1.473, 3.905e-3
-1.472, 3.855e-3
-1.471, 3.815e-3
-1.470, 3.771e-3
-1.469, 3.735e-3
-1.468, 3.692e-3
-1.467, 3.642e-3
-1.466, 3.607e-3
-1.465, 3.566e-3
-1.464, 3.516e-3
-1.463, 3.474e-3
-1.462, 3.436e-3
-1.461, 3.395e-3
-1.460, 3.351e-3
-1.459, 3.309e-3
-1.458, 3.267e-3
-1.457, 3.230e-3
-1.456, 3.195e-3
-1.455, 3.152e-3
-1.454, 3.111e-3
-1.453, 3.072e-3
-1.452, 3.033e-3
-1.451, 2.991e-3
-1.450, 2.949e-3
-1.449, 2.909e-3
-1.448, 2.875e-3
-1.447, 2.832e-3
-1.446, 2.801e-3
-1.445, 2.762e-3
-1.444, 2.728e-3
-1.443, 2.690e-3
-1.442, 2.659e-3
-1.441, 2.625e-3
-1.440, 2.593e-3
-1.439, 2.554e-3
-1.438, 2.515e-3
-1.437, 2.482e-3
-1.436, 2.450e-3
-1.435, 2.417e-3
-1.434, 2.380e-3
-1.433, 2.346e-3
-1.432, 2.314e-3
-1.431, 2.282e-3
-1.430, 2.249e-3
-1.429, 2.213e-3
-1.428, 2.179e-3
-1.427, 2.147e-3
-1.426, 2.119e-3
-1.425, 2.088e-3
-1.424, 2.054e-3
-1.423, 2.025e-3
-1.422, 1.992e-3
-1.421, 1.959e-3
-1.420, 1.929e-3
-1.419, 1.898e-3
-1.418, 1.871e-3
-1.417, 1.838e-3
-1.416, 1.816e-3
-1.415, 1.787e-3
-1.414, 1.758e-3
-1.413, 1.731e-3
-1.412, 1.701e-3
-1.411, 1.672e-3
-1.410, 1.645e-3
-1.409, 1.616e-3
-1.408, 1.591e-3
-1.407, 1.564e-3
-1.406, 1.538e-3
-1.405, 1.509e-3
-1.404, 1.483e-3
-1.403, 1.455e-3
-1.402, 1.429e-3
-1.401, 1.404e-3
-1.400, 1.380e-3
-1.399, 1.355e-3
-1.398, 1.329e-3
-1.397, 1.301e-3
-1.396, 1.277e-3
-1.395, 1.259e-3
-1.394, 1.237e-3
-1.393, 1.212e-3
-1.392, 1.193e-3
-1.391, 1.171e-3
-1.390, 1.147e-3
-1.389, 1.127e-3
-1.388, 1.106e-3
-1.387, 1.086e-3
-1.386, 1.066e-3
-1.385, 1.047e-3
-1.384, 1.027e-3
-1.383, 1.008e-3
-1.382, 9.873e-4
-1.381, 9.685e-4
-1.380, 9.462e-4
-1.379, 9.285e-4
-1.378, 9.115e-4
-1.377, 8.927e-4
-1.376, 8.758e-4
-1.375, 8.575e-4
-1.374, 8.405e-4
-1.373, 8.236e-4
-1.372, 8.075e-4
-1.371, 7.909e-4
-1.370, 7.752e-4
-1.369, 7.576e-4
-1.368, 7.425e-4
-1.367, 7.271e-4
-1.366, 7.124e-4
-1.365, 6.967e-4
-1.364, 6.813e-4
-1.363, 6.665e-4
-1.362, 6.512e-4
-1.361, 6.380e-4
-1.360, 6.239e-4
-1.359, 6.098e-4
-1.358, 5.968e-4
-1.357, 5.827e-4
-1.356, 5.704e-4
-1.355, 5.575e-4
-1.354, 5.448e-4
-1.353, 5.328e-4
-1.352, 5.212e-4
-1.351, 5.097e-4
-1.350, 4.976e-4
-1.349, 4.858e-4
-1.348, 4.754e-4
-1.347, 4.629e-4
-1.346, 4.541e-4
-1.345, 4.429e-4
-1.344, 4.329e-4
-1.343, 4.232e-4
-1.342, 4.125e-4
-1.341, 4.032e-4
-1.340, 3.935e-4
-1.339, 3.833e-4
-1.338, 3.746e-4
-1.337, 3.654e-4
-1.336, 3.572e-4
-1.335, 3.482e-4
-1.334, 3.391e-4
-1.333, 3.317e-4
-1.332, 3.230e-4
-1.331, 3.155e-4
-1.330, 3.080e-4
-1.329, 2.999e-4
-1.328, 2.929e-4
-1.327, 2.850e-4
-1.326, 2.783e-4
-1.325, 2.698e-4
-1.324, 2.616e-4
-1.323, 2.576e-4
-1.322, 2.508e-4
-1.321, 2.447e-4
-1.320, 2.383e-4
-1.319, 2.316e-4
-1.318, 2.262e-4
-1.317, 2.200e-4
-1.316, 2.149e-4
-1.315, 2.092e-4
-1.314, 2.036e-4
-1.313, 1.998e-4
-1.312, 1.934e-4
-1.311, 1.888e-4
-1.310, 1.845e-4
-1.309, 1.788e-4
-1.308, 1.742e-4
-1.307, 1.692e-4
-1.306, 1.651e-4
-1.305, 1.608e-4
-1.304, 1.563e-4
-1.303, 1.527e-4
-1.302, 1.477e-4
-1.301, 1.444e-4
-1.300, 1.404e-4
-1.299, 1.361e-4
-1.298, 1.330e-4
-1.297, 1.285e-4
-1.296, 1.253e-4
-1.295, 1.220e-4
-1.294, 1.182e-4
-1.293, 1.156e-4
-1.292, 1.114e-4
-1.291, 1.091e-4
-1.290, 1.060e-4
-1.289, 1.026e-4
-1.288, 1.001e-4
-1.287, 9.668e-5
-1.286, 9.439e-5
-1.285, 9.217e-5
-1.284, 8.865e-5
-1.283, 8.644e-5
-1.282, 8.323e-5
-1.281, 8.129e-5
-1.280, 7.864e-5
-1.279, 7.615e-5
-1.278, 7.421e-5
-1.277, 7.142e-5
-1.276, 6.947e-5
-1.275, 6.758e-5
-1.274, 6.512e-5
-1.273, 6.326e-5
-1.272, 6.084e-5
-1.271, 5.935e-5
-1.270, 5.753e-5
-1.269, 5.543e-5
-1.268, 5.392e-5
-1.267, 5.137e-5
-1.266, 5.037e-5
-1.265, 4.844e-5
-1.264, 4.665e-5
-1.263, 4.567e-5
-1.262, 4.322e-5
-1.261, 4.212e-5
-1.260, 4.082e-5
-1.259, 3.887e-5
-1.258, 3.805e-5
-1.257, 3.601e-5
-1.256, 3.521e-5
-1.255, 3.381e-5
-1.254, 3.192e-5
-1.253, 3.134e-5
-1.252, 2.949e-5
-1.251, 2.864e-5
-1.250, 2.773e-5
-1.249, 2.603e-5
-1.248, 2.559e-5
-1.247, 2.386e-5
-1.246, 2.310e-5
-1.245, 2.230e-5
-1.244, 2.088e-5
-1.243, 2.047e-5
-1.242, 1.872e-5
-1.241, 1.813e-5
-1.240, 1.750e-5
-1.239, 1.626e-5
-1.238, 1.580e-5
-1.237, 1.451e-5
-1.236, 1.392e-5
-1.235, 1.327e-5
-1.234, 1.200e-5
-1.233, 1.175e-5
-1.232, 1.061e-5
-1.231, 1.023e-5
-1.230, 9.489e-6
-1.229, 7.980e-6
-1.228, 8.167e-6
-1.227, 6.875e-6
-1.226, 6.776e-6
-1.225, 6.154e-6
-1.224, 5.178e-6
-1.223, 5.128e-6
-1.222, 3.836e-6
-1.221, 3.717e-6
-1.220, 3.214e-6
-1.219, 2.356e-6
-1.218, 2.474e-6
-1.217, 1.369e-6
-1.216, 1.162e-6
-1.215, 8.169e-7
-1.214, 5.722e-8
-1.213, 6.709e-8
-1.212, -8.208e-7
-1.211, -1.087e-6
-1.210, -1.294e-6
-1.209, -2.468e-6
-1.208, -2.034e-6
-1.207, -3.051e-6
-1.206, -3.199e-6
-1.205, -3.327e-6
-1.204, -4.234e-6
-1.203, -3.998e-6
-1.202, -4.757e-6
-1.201, -5.024e-6
-1.200, -5.142e-6
-1.199, -5.744e-6
-1.198, -5.685e-6
-1.197, -6.484e-6
-1.196, -6.632e-6
-1.195, -6.691e-6
-1.194, -7.480e-6
-1.193, -7.115e-6
-1.192, -7.885e-6
-1.191, -8.082e-6
-1.190, -8.240e-6
-1.189, -8.773e-6
-1.188, -8.566e-6
-1.187, -9.552e-6
-1.186, -9.454e-6
-1.185, -9.404e-6
-1.184, -1.009e-5
-1.183, -9.621e-6
-1.182, -1.056e-5
-1.181, -1.045e-5
-1.180, -1.062e-5
-1.179, -1.138e-5
-1.178, -1.120e-5
-1.177, -1.201e-5
-1.176, -1.175e-5
-1.175, -1.190e-5
-1.174, -1.253e-5
-1.173, -1.187e-5
-1.172, -1.275e-5
-1.171, -1.287e-5
-1.170, -1.297e-5
-1.169, -1.349e-5
-1.168, -1.329e-5
-1.167, -1.382e-5
-1.166, -1.378e-5
-1.165, -1.404e-5
-1.164, -1.443e-5
-1.163, -1.420e-5
-1.162, -1.468e-5
-1.161, -1.485e-5
-1.160, -1.489e-5
-1.159, -1.549e-5
-1.158, -1.499e-5
-1.157, -1.577e-5
-1.156, -1.579e-5
-1.155, -1.576e-5
-1.154, -1.638e-5
-1.153, -1.605e-5
-1.152, -1.671e-5
-1.151, -1.673e-5
-1.150, -1.678e-5
-1.149, -1.711e-5
-1.148, -1.669e-5
-1.147, -1.740e-5
-1.146, -1.748e-5
-1.145, -1.764e-5
-1.144, -1.801e-5
-1.143, -1.754e-5
-1.142, -1.833e-5
-1.141, -1.818e-5
-1.140, -1.836e-5
-1.139, -1.892e-5
-1.138, -1.839e-5
-1.137, -1.921e-5
-1.136, -1.910e-5
-1.135, -1.912e-5
-1.134, -1.964e-5
-1.133, -1.921e-5
-1.132, -1.989e-5
-1.131, -1.973e-5
-1.130, -1.985e-5
-1.129, -2.054e-5
-1.128, -1.999e-5
-1.127, -2.077e-5
-1.126, -2.079e-5
-1.125, -2.083e-5
-1.124, -2.121e-5
-1.123, -2.068e-5
-1.122, -2.161e-5
-1.121, -2.140e-5
-1.120, -2.162e-5
-1.119, -2.213e-5
-1.118, -2.188e-5
-1.117, -2.235e-5
-1.116, -2.248e-5
-1.115, -2.229e-5
-1.114, -2.293e-5
-1.113, -2.263e-5
-1.112, -2.318e-5
-1.111, -2.308e-5
-1.110, -2.336e-5
-1.109, -2.374e-5
-1.108, -2.353e-5
-1.107, -2.426e-5
-1.106, -2.407e-5
-1.105, -2.411e-5
-1.104, -2.462e-5
-1.103, -2.420e-5
-1.102, -2.511e-5
-1.101, -2.492e-5
-1.100, -2.519e-5
-1.099, -2.566e-5
-1.098, -2.536e-5
-1.097, -2.598e-5
-1.096, -2.593e-5
-1.095, -2.590e-5
-1.094, -2.673e-5
-1.093, -2.623e-5
-1.092, -2.681e-5
-1.091, -2.700e-5
-1.090, -2.701e-5
-1.089, -2.768e-5
-1.088, -2.713e-5
-1.087, -2.798e-5
-1.086, -2.799e-5
-1.085, -2.809e-5
-1.084, -2.859e-5
-1.083, -2.841e-5
-1.082, -2.907e-5
-1.081, -2.910e-5
-1.080, -2.903e-5
-1.079, -2.969e-5
-1.078, -2.934e-5
-1.077, -2.988e-5
-1.076, -3.008e-5
-1.075, -3.026e-5
-1.074, -3.082e-5
-1.073, -3.039e-5
-1.072, -3.111e-5
-1.071, -3.121e-5
-1.070, -3.143e-5
-1.069, -3.192e-5
-1.068, -3.163e-5
-1.067, -3.239e-5
-1.066, -3.241e-5
-1.065, -3.264e-5
-1.064, -3.348e-5
-1.063, -3.306e-5
-1.062, -3.391e-5
-1.061, -3.392e-5
-1.060, -3.397e-5
-1.059, -3.480e-5
-1.058, -3.435e-5
-1.057, -3.512e-5
-1.056, -3.526e-5
-1.055, -3.546e-5
-1.054, -3.645e-5
-1.053, -3.595e-5
-1.052, -3.688e-5
-1.051, -3.689e-5
-1.050, -3.725e-5
-1.049, -3.793e-5
-1.048, -3.752e-5
-1.047, -3.859e-5
-1.046, -3.882e-5
-1.045, -3.882e-5
-1.044, -3.979e-5
-1.043, -3.956e-5
-1.042, -4.065e-5
-1.041, -4.087e-5
-1.040, -4.104e-5
-1.039, -4.176e-5
-1.038, -4.169e-5
-1.037, -4.265e-5
-1.036, -4.291e-5
-1.035, -4.318e-5
-1.034, -4.418e-5
-1.033, -4.412e-5
-1.032, -4.506e-5
-1.031, -4.522e-5
-1.030, -4.576e-5
-1.029, -4.676e-5
-1.028, -4.665e-5
-1.027, -4.799e-5
-1.026, -4.834e-5
-1.025, -4.890e-5
-1.024, -4.987e-5
-1.023, -4.979e-5
-1.022, -5.129e-5
-1.021, -5.159e-5
-1.020, -5.218e-5
-1.019, -5.355e-5
-1.018, -5.349e-5
-1.017, -5.501e-5
-1.016, -5.533e-5
-1.015, -5.600e-5
-1.014, -5.732e-5
-1.013, -5.731e-5
-1.012, -5.895e-5
-1.011, -5.941e-5
-1.010, -6.023e-5
-1.009, -6.146e-5
-1.008, -6.147e-5
-1.007, -6.313e-5
-1.006, -6.377e-5
-1.005, -6.438e-5
-1.004, -6.565e-5
-1.003, -6.601e-5
-1.002, -6.759e-5
-1.001, -6.828e-5
