Aug. 23, 2024   10:26:34
Cyclic Voltammetry
File: c:/users/guazh/data/20240813_batch_94_500/2024-08-15-exp168\exp168-2024-08-23t10_16_02-arkoh\exp168_cv_sr_300mvs_efin_-1500mv.bin
Data Source:  Experiment
Instrument Model:  CHI760E
Header: CV ran at 300 mVs
Note: 

Init E (V) = -1
High E (V) = -1
Low E (V) = -1.5
Final E (V) = -1
Init P/N = N
Scan Rate (V/s) = 0.3
Segment = 3
Sample Interval (V) = 0.001
Quiet Time (sec) = 2
Sensitivity (A/V) = 0.01
Comp R (ohm) = 1.7

Results:

Channel 1:
Segment 1:

Segment 2:

Segment 3:

Potential/V, Current/A

-1.000, 9.405e-6
-1.001, 2.174e-5
-1.002, 2.790e-5
-1.003, 3.099e-5
-1.004, 3.715e-5
-1.005, 4.024e-5
-1.006, 4.332e-5
-1.007, 4.332e-5
-1.008, 4.332e-5
-1.009, 4.640e-5
-1.010, 4.949e-5
-1.011, 4.949e-5
-1.012, 4.949e-5
-1.013, 4.949e-5
-1.014, 5.257e-5
-1.015, 5.565e-5
-1.016, 5.257e-5
-1.017, 5.257e-5
-1.018, 5.257e-5
-1.019, 5.565e-5
-1.020, 5.565e-5
-1.021, 5.565e-5
-1.022, 5.565e-5
-1.023, 5.565e-5
-1.024, 5.873e-5
-1.025, 5.873e-5
-1.026, 5.873e-5
-1.027, 5.873e-5
-1.028, 5.873e-5
-1.029, 6.182e-5
-1.030, 6.182e-5
-1.031, 6.182e-5
-1.032, 6.182e-5
-1.033, 6.182e-5
-1.034, 6.490e-5
-1.035, 6.182e-5
-1.036, 6.182e-5
-1.037, 6.182e-5
-1.038, 6.182e-5
-1.039, 6.490e-5
-1.040, 6.490e-5
-1.041, 6.798e-5
-1.042, 6.490e-5
-1.043, 6.490e-5
-1.044, 6.490e-5
-1.045, 6.798e-5
-1.046, 6.798e-5
-1.047, 6.490e-5
-1.048, 6.798e-5
-1.049, 6.798e-5
-1.050, 6.798e-5
-1.051, 6.798e-5
-1.052, 6.798e-5
-1.053, 6.798e-5
-1.054, 6.798e-5
-1.055, 6.798e-5
-1.056, 6.798e-5
-1.057, 6.798e-5
-1.058, 6.798e-5
-1.059, 7.107e-5
-1.060, 7.107e-5
-1.061, 7.107e-5
-1.062, 7.107e-5
-1.063, 7.107e-5
-1.064, 7.107e-5
-1.065, 7.415e-5
-1.066, 7.415e-5
-1.067, 7.107e-5
-1.068, 7.415e-5
-1.069, 7.415e-5
-1.070, 7.415e-5
-1.071, 7.723e-5
-1.072, 7.415e-5
-1.073, 7.723e-5
-1.074, 7.723e-5
-1.075, 8.032e-5
-1.076, 8.032e-5
-1.077, 8.032e-5
-1.078, 8.032e-5
-1.079, 8.340e-5
-1.080, 8.340e-5
-1.081, 8.340e-5
-1.082, 8.340e-5
-1.083, 8.340e-5
-1.084, 8.340e-5
-1.085, 8.648e-5
-1.086, 8.648e-5
-1.087, 8.340e-5
-1.088, 8.648e-5
-1.089, 8.648e-5
-1.090, 8.648e-5
-1.091, 8.648e-5
-1.092, 8.648e-5
-1.093, 8.648e-5
-1.094, 8.648e-5
-1.095, 8.648e-5
-1.096, 8.648e-5
-1.097, 8.648e-5
-1.098, 8.648e-5
-1.099, 8.648e-5
-1.100, 8.957e-5
-1.101, 8.648e-5
-1.102, 8.648e-5
-1.103, 8.648e-5
-1.104, 8.648e-5
-1.105, 8.648e-5
-1.106, 8.957e-5
-1.107, 8.648e-5
-1.108, 8.648e-5
-1.109, 8.648e-5
-1.110, 8.957e-5
-1.111, 8.957e-5
-1.112, 8.957e-5
-1.113, 8.957e-5
-1.114, 8.957e-5
-1.115, 8.957e-5
-1.116, 8.957e-5
-1.117, 8.957e-5
-1.118, 8.957e-5
-1.119, 8.957e-5
-1.120, 8.957e-5
-1.121, 8.957e-5
-1.122, 8.957e-5
-1.123, 8.957e-5
-1.124, 8.957e-5
-1.125, 8.957e-5
-1.126, 8.957e-5
-1.127, 8.957e-5
-1.128, 8.957e-5
-1.129, 8.957e-5
-1.130, 8.957e-5
-1.131, 8.957e-5
-1.132, 8.957e-5
-1.133, 8.957e-5
-1.134, 8.957e-5
-1.135, 8.957e-5
-1.136, 8.957e-5
-1.137, 8.957e-5
-1.138, 8.957e-5
-1.139, 8.957e-5
-1.140, 8.957e-5
-1.141, 8.957e-5
-1.142, 8.957e-5
-1.143, 8.957e-5
-1.144, 8.957e-5
-1.145, 8.957e-5
-1.146, 8.957e-5
-1.147, 8.957e-5
-1.148, 8.957e-5
-1.149, 8.957e-5
-1.150, 8.957e-5
-1.151, 8.957e-5
-1.152, 8.957e-5
-1.153, 8.957e-5
-1.154, 8.957e-5
-1.155, 8.957e-5
-1.156, 8.957e-5
-1.157, 8.957e-5
-1.158, 8.957e-5
-1.159, 8.957e-5
-1.160, 8.957e-5
-1.161, 8.957e-5
-1.162, 8.957e-5
-1.163, 8.957e-5
-1.164, 8.957e-5
-1.165, 8.957e-5
-1.166, 8.957e-5
-1.167, 8.957e-5
-1.168, 8.957e-5
-1.169, 8.957e-5
-1.170, 8.957e-5
-1.171, 8.957e-5
-1.172, 8.957e-5
-1.173, 8.957e-5
-1.174, 8.957e-5
-1.175, 8.957e-5
-1.176, 8.957e-5
-1.177, 8.957e-5
-1.178, 8.957e-5
-1.179, 8.957e-5
-1.180, 9.265e-5
-1.181, 9.265e-5
-1.182, 8.957e-5
-1.183, 8.957e-5
-1.184, 8.957e-5
-1.185, 9.265e-5
-1.186, 9.265e-5
-1.187, 9.265e-5
-1.188, 9.265e-5
-1.189, 9.265e-5
-1.190, 9.265e-5
-1.191, 9.265e-5
-1.192, 9.265e-5
-1.193, 9.265e-5
-1.194, 9.265e-5
-1.195, 9.265e-5
-1.196, 9.265e-5
-1.197, 9.265e-5
-1.198, 9.265e-5
-1.199, 9.265e-5
-1.200, 9.265e-5
-1.201, 9.265e-5
-1.202, 9.265e-5
-1.203, 9.265e-5
-1.204, 9.573e-5
-1.205, 9.573e-5
-1.206, 9.573e-5
-1.207, 9.573e-5
-1.208, 9.573e-5
-1.209, 9.573e-5
-1.210, 9.882e-5
-1.211, 9.573e-5
-1.212, 9.882e-5
-1.213, 9.882e-5
-1.214, 9.882e-5
-1.215, 1.019e-4
-1.216, 9.882e-5
-1.217, 9.882e-5
-1.218, 1.019e-4
-1.219, 1.019e-4
-1.220, 1.019e-4
-1.221, 1.019e-4
-1.222, 1.019e-4
-1.223, 1.019e-4
-1.224, 1.050e-4
-1.225, 1.050e-4
-1.226, 1.050e-4
-1.227, 1.050e-4
-1.228, 1.050e-4
-1.229, 1.081e-4
-1.230, 1.081e-4
-1.231, 1.081e-4
-1.232, 1.081e-4
-1.233, 1.111e-4
-1.234, 1.111e-4
-1.235, 1.111e-4
-1.236, 1.142e-4
-1.237, 1.111e-4
-1.238, 1.142e-4
-1.239, 1.142e-4
-1.240, 1.173e-4
-1.241, 1.173e-4
-1.242, 1.173e-4
-1.243, 1.173e-4
-1.244, 1.204e-4
-1.245, 1.235e-4
-1.246, 1.235e-4
-1.247, 1.235e-4
-1.248, 1.235e-4
-1.249, 1.266e-4
-1.250, 1.296e-4
-1.251, 1.296e-4
-1.252, 1.296e-4
-1.253, 1.296e-4
-1.254, 1.327e-4
-1.255, 1.358e-4
-1.256, 1.358e-4
-1.257, 1.389e-4
-1.258, 1.389e-4
-1.259, 1.420e-4
-1.260, 1.451e-4
-1.261, 1.451e-4
-1.262, 1.451e-4
-1.263, 1.481e-4
-1.264, 1.512e-4
-1.265, 1.543e-4
-1.266, 1.543e-4
-1.267, 1.543e-4
-1.268, 1.574e-4
-1.269, 1.605e-4
-1.270, 1.666e-4
-1.271, 1.666e-4
-1.272, 1.666e-4
-1.273, 1.697e-4
-1.274, 1.728e-4
-1.275, 1.759e-4
-1.276, 1.790e-4
-1.277, 1.790e-4
-1.278, 1.851e-4
-1.279, 1.882e-4
-1.280, 1.913e-4
-1.281, 1.944e-4
-1.282, 1.944e-4
-1.283, 1.975e-4
-1.284, 2.036e-4
-1.285, 2.067e-4
-1.286, 2.098e-4
-1.287, 2.129e-4
-1.288, 2.160e-4
-1.289, 2.221e-4
-1.290, 2.252e-4
-1.291, 2.283e-4
-1.292, 2.314e-4
-1.293, 2.376e-4
-1.294, 2.406e-4
-1.295, 2.468e-4
-1.296, 2.499e-4
-1.297, 2.530e-4
-1.298, 2.591e-4
-1.299, 2.653e-4
-1.300, 2.715e-4
-1.301, 2.746e-4
-1.302, 2.776e-4
-1.303, 2.838e-4
-1.304, 2.900e-4
-1.305, 2.961e-4
-1.306, 3.023e-4
-1.307, 3.054e-4
-1.308, 3.146e-4
-1.309, 3.208e-4
-1.310, 3.270e-4
-1.311, 3.331e-4
-1.312, 3.393e-4
-1.313, 3.485e-4
-1.314, 3.547e-4
-1.315, 3.640e-4
-1.316, 3.670e-4
-1.317, 3.763e-4
-1.318, 3.855e-4
-1.319, 3.917e-4
-1.320, 4.010e-4
-1.321, 4.071e-4
-1.322, 4.164e-4
-1.323, 4.256e-4
-1.324, 4.349e-4
-1.325, 4.441e-4
-1.326, 4.534e-4
-1.327, 4.626e-4
-1.328, 4.719e-4
-1.329, 4.842e-4
-1.330, 4.935e-4
-1.331, 5.027e-4
-1.332, 5.120e-4
-1.333, 5.243e-4
-1.334, 5.366e-4
-1.335, 5.489e-4
-1.336, 5.613e-4
-1.337, 5.705e-4
-1.338, 5.829e-4
-1.339, 5.952e-4
-1.340, 6.106e-4
-1.341, 6.229e-4
-1.342, 6.322e-4
-1.343, 6.476e-4
-1.344, 6.630e-4
-1.345, 6.784e-4
-1.346, 6.908e-4
-1.347, 7.031e-4
-1.348, 7.185e-4
-1.349, 7.339e-4
-1.350, 7.524e-4
-1.351, 7.648e-4
-1.352, 7.802e-4
-1.353, 7.987e-4
-1.354, 8.141e-4
-1.355, 8.326e-4
-1.356, 8.511e-4
-1.357, 8.665e-4
-1.358, 8.850e-4
-1.359, 9.035e-4
-1.360, 9.251e-4
-1.361, 9.436e-4
-1.362, 9.621e-4
-1.363, 9.806e-4
-1.364, 1.002e-3
-1.365, 1.021e-3
-1.366, 1.042e-3
-1.367, 1.061e-3
-1.368, 1.082e-3
-1.369, 1.104e-3
-1.370, 1.125e-3
-1.371, 1.150e-3
-1.372, 1.169e-3
-1.373, 1.193e-3
-1.374, 1.215e-3
-1.375, 1.240e-3
-1.376, 1.261e-3
-1.377, 1.286e-3
-1.378, 1.307e-3
-1.379, 1.332e-3
-1.380, 1.360e-3
-1.381, 1.384e-3
-1.382, 1.409e-3
-1.383, 1.434e-3
-1.384, 1.458e-3
-1.385, 1.486e-3
-1.386, 1.514e-3
-1.387, 1.542e-3
-1.388, 1.569e-3
-1.389, 1.597e-3
-1.390, 1.625e-3
-1.391, 1.653e-3
-1.392, 1.680e-3
-1.393, 1.708e-3
-1.394, 1.739e-3
-1.395, 1.770e-3
-1.396, 1.798e-3
-1.397, 1.828e-3
-1.398, 1.856e-3
-1.399, 1.887e-3
-1.400, 1.921e-3
-1.401, 1.949e-3
-1.402, 1.980e-3
-1.403, 2.010e-3
-1.404, 2.044e-3
-1.405, 2.075e-3
-1.406, 2.106e-3
-1.407, 2.140e-3
-1.408, 2.171e-3
-1.409, 2.201e-3
-1.410, 2.235e-3
-1.411, 2.269e-3
-1.412, 2.303e-3
-1.413, 2.334e-3
-1.414, 2.371e-3
-1.415, 2.405e-3
-1.416, 2.436e-3
-1.417, 2.476e-3
-1.418, 2.507e-3
-1.419, 2.541e-3
-1.420, 2.578e-3
-1.421, 2.612e-3
-1.422, 2.645e-3
-1.423, 2.679e-3
-1.424, 2.713e-3
-1.425, 2.750e-3
-1.426, 2.784e-3
-1.427, 2.818e-3
-1.428, 2.855e-3
-1.429, 2.889e-3
-1.430, 2.926e-3
-1.431, 2.960e-3
-1.432, 2.997e-3
-1.433, 3.034e-3
-1.434, 3.071e-3
-1.435, 3.108e-3
-1.436, 3.145e-3
-1.437, 3.182e-3
-1.438, 3.219e-3
-1.439, 3.253e-3
-1.440, 3.293e-3
-1.441, 3.330e-3
-1.442, 3.370e-3
-1.443, 3.404e-3
-1.444, 3.441e-3
-1.445, 3.481e-3
-1.446, 3.518e-3
-1.447, 3.555e-3
-1.448, 3.589e-3
-1.449, 3.626e-3
-1.450, 3.663e-3
-1.451, 3.703e-3
-1.452, 3.743e-3
-1.453, 3.777e-3
-1.454, 3.814e-3
-1.455, 3.851e-3
-1.456, 3.888e-3
-1.457, 3.925e-3
-1.458, 3.962e-3
-1.459, 3.999e-3
-1.460, 4.042e-3
-1.461, 4.076e-3
-1.462, 4.113e-3
-1.463, 4.153e-3
-1.464, 4.187e-3
-1.465, 4.227e-3
-1.466, 4.261e-3
-1.467, 4.298e-3
-1.468, 4.329e-3
-1.469, 4.369e-3
-1.470, 4.406e-3
-1.471, 4.443e-3
-1.472, 4.480e-3
-1.473, 4.511e-3
-1.474, 4.551e-3
-1.475, 4.588e-3
-1.476, 4.622e-3
-1.477, 4.659e-3
-1.478, 4.699e-3
-1.479, 4.730e-3
-1.480, 4.770e-3
-1.481, 4.804e-3
-1.482, 4.838e-3
-1.483, 4.881e-3
-1.484, 4.912e-3
-1.485, 4.952e-3
-1.486, 4.989e-3
-1.487, 5.023e-3
-1.488, 5.053e-3
-1.489, 5.090e-3
-1.490, 5.121e-3
-1.491, 5.164e-3
-1.492, 5.195e-3
-1.493, 5.232e-3
-1.494, 5.272e-3
-1.495, 5.303e-3
-1.496, 5.334e-3
-1.497, 5.374e-3
-1.498, 5.405e-3
-1.499, 5.439e-3
-1.500, 5.445e-3
-1.499, 5.389e-3
-1.498, 5.343e-3
-1.497, 5.300e-3
-1.496, 5.245e-3
-1.495, 5.201e-3
-1.494, 5.155e-3
-1.493, 5.097e-3
-1.492, 5.047e-3
-1.491, 5.010e-3
-1.490, 4.961e-3
-1.489, 4.908e-3
-1.488, 4.868e-3
-1.487, 4.813e-3
-1.486, 4.776e-3
-1.485, 4.720e-3
-1.484, 4.677e-3
-1.483, 4.634e-3
-1.482, 4.588e-3
-1.481, 4.551e-3
-1.480, 4.508e-3
-1.479, 4.458e-3
-1.478, 4.415e-3
-1.477, 4.372e-3
-1.476, 4.329e-3
-1.475, 4.283e-3
-1.474, 4.236e-3
-1.473, 4.196e-3
-1.472, 4.162e-3
-1.471, 4.119e-3
-1.470, 4.073e-3
-1.469, 4.027e-3
-1.468, 3.990e-3
-1.467, 3.947e-3
-1.466, 3.906e-3
-1.465, 3.866e-3
-1.464, 3.823e-3
-1.463, 3.783e-3
-1.462, 3.740e-3
-1.461, 3.706e-3
-1.460, 3.660e-3
-1.459, 3.617e-3
-1.458, 3.580e-3
-1.457, 3.543e-3
-1.456, 3.506e-3
-1.455, 3.466e-3
-1.454, 3.425e-3
-1.453, 3.385e-3
-1.452, 3.348e-3
-1.451, 3.311e-3
-1.450, 3.271e-3
-1.449, 3.231e-3
-1.448, 3.197e-3
-1.447, 3.154e-3
-1.446, 3.133e-3
-1.445, 3.099e-3
-1.444, 3.056e-3
-1.443, 3.019e-3
-1.442, 2.985e-3
-1.441, 2.951e-3
-1.440, 2.917e-3
-1.439, 2.904e-3
-1.438, 2.861e-3
-1.437, 2.809e-3
-1.436, 2.778e-3
-1.435, 2.744e-3
-1.434, 2.707e-3
-1.433, 2.670e-3
-1.432, 2.633e-3
-1.431, 2.599e-3
-1.430, 2.565e-3
-1.429, 2.531e-3
-1.428, 2.494e-3
-1.427, 2.464e-3
-1.426, 2.436e-3
-1.425, 2.402e-3
-1.424, 2.368e-3
-1.423, 2.337e-3
-1.422, 2.303e-3
-1.421, 2.275e-3
-1.420, 2.248e-3
-1.419, 2.217e-3
-1.418, 2.186e-3
-1.417, 2.155e-3
-1.416, 2.124e-3
-1.415, 2.097e-3
-1.414, 2.066e-3
-1.413, 2.035e-3
-1.412, 2.013e-3
-1.411, 2.007e-3
-1.410, 1.970e-3
-1.409, 1.939e-3
-1.408, 1.912e-3
-1.407, 1.887e-3
-1.406, 1.859e-3
-1.405, 1.832e-3
-1.404, 1.807e-3
-1.403, 1.779e-3
-1.402, 1.751e-3
-1.401, 1.727e-3
-1.400, 1.702e-3
-1.399, 1.674e-3
-1.398, 1.650e-3
-1.397, 1.622e-3
-1.396, 1.597e-3
-1.395, 1.576e-3
-1.394, 1.551e-3
-1.393, 1.523e-3
-1.392, 1.499e-3
-1.391, 1.477e-3
-1.390, 1.455e-3
-1.389, 1.431e-3
-1.388, 1.406e-3
-1.387, 1.384e-3
-1.386, 1.363e-3
-1.385, 1.344e-3
-1.384, 1.323e-3
-1.383, 1.295e-3
-1.382, 1.273e-3
-1.381, 1.252e-3
-1.380, 1.233e-3
-1.379, 1.212e-3
-1.378, 1.190e-3
-1.377, 1.169e-3
-1.376, 1.150e-3
-1.375, 1.129e-3
-1.374, 1.110e-3
-1.373, 1.085e-3
-1.372, 1.067e-3
-1.371, 1.045e-3
-1.370, 1.030e-3
-1.369, 1.008e-3
-1.368, 9.868e-4
-1.367, 9.683e-4
-1.366, 9.528e-4
-1.365, 9.343e-4
-1.364, 9.158e-4
-1.363, 8.973e-4
-1.362, 8.819e-4
-1.361, 8.634e-4
-1.360, 8.480e-4
-1.359, 8.295e-4
-1.358, 8.110e-4
-1.357, 7.956e-4
-1.356, 7.771e-4
-1.355, 7.617e-4
-1.354, 7.463e-4
-1.353, 7.278e-4
-1.352, 7.154e-4
-1.351, 7.000e-4
-1.350, 6.877e-4
-1.349, 6.723e-4
-1.348, 6.569e-4
-1.347, 6.445e-4
-1.346, 6.291e-4
-1.345, 6.168e-4
-1.344, 6.014e-4
-1.343, 5.859e-4
-1.342, 5.736e-4
-1.341, 5.644e-4
-1.340, 5.520e-4
-1.339, 5.366e-4
-1.338, 5.243e-4
-1.337, 5.120e-4
-1.336, 5.027e-4
-1.335, 4.904e-4
-1.334, 4.780e-4
-1.333, 4.657e-4
-1.332, 4.534e-4
-1.331, 4.441e-4
-1.330, 4.349e-4
-1.329, 4.225e-4
-1.328, 4.133e-4
-1.327, 4.010e-4
-1.326, 3.917e-4
-1.325, 3.855e-4
-1.324, 3.763e-4
-1.323, 3.640e-4
-1.322, 3.547e-4
-1.321, 3.455e-4
-1.320, 3.393e-4
-1.319, 3.300e-4
-1.318, 3.177e-4
-1.317, 3.115e-4
-1.316, 3.023e-4
-1.315, 2.961e-4
-1.314, 2.900e-4
-1.313, 2.807e-4
-1.312, 2.715e-4
-1.311, 2.653e-4
-1.310, 2.591e-4
-1.309, 2.530e-4
-1.308, 2.437e-4
-1.307, 2.376e-4
-1.306, 2.314e-4
-1.305, 2.252e-4
-1.304, 2.191e-4
-1.303, 2.129e-4
-1.302, 2.067e-4
-1.301, 2.006e-4
-1.300, 1.944e-4
-1.299, 1.882e-4
-1.298, 1.821e-4
-1.297, 1.759e-4
-1.296, 1.728e-4
-1.295, 1.697e-4
-1.294, 1.636e-4
-1.293, 1.574e-4
-1.292, 1.512e-4
-1.291, 1.481e-4
-1.290, 1.451e-4
-1.289, 1.389e-4
-1.288, 1.327e-4
-1.287, 1.296e-4
-1.286, 1.266e-4
-1.285, 1.204e-4
-1.284, 1.173e-4
-1.283, 1.142e-4
-1.282, 1.081e-4
-1.281, 1.050e-4
-1.280, 1.019e-4
-1.279, 9.882e-5
-1.278, 9.265e-5
-1.277, 8.957e-5
-1.276, 8.648e-5
-1.275, 8.648e-5
-1.274, 8.032e-5
-1.273, 7.723e-5
-1.272, 7.415e-5
-1.271, 7.107e-5
-1.270, 7.107e-5
-1.269, 6.490e-5
-1.268, 6.490e-5
-1.267, 6.182e-5
-1.266, 5.873e-5
-1.265, 5.565e-5
-1.264, 5.257e-5
-1.263, 4.949e-5
-1.262, 4.949e-5
-1.261, 4.640e-5
-1.260, 4.332e-5
-1.259, 4.332e-5
-1.258, 3.715e-5
-1.257, 3.715e-5
-1.256, 3.407e-5
-1.255, 3.407e-5
-1.254, 3.099e-5
-1.253, 2.790e-5
-1.252, 2.790e-5
-1.251, 2.482e-5
-1.250, 2.482e-5
-1.249, 2.174e-5
-1.248, 2.174e-5
-1.247, 1.865e-5
-1.246, 1.557e-5
-1.245, 1.557e-5
-1.244, 1.557e-5
-1.243, 1.249e-5
-1.242, 9.405e-6
-1.241, 9.405e-6
-1.240, 9.405e-6
-1.239, 6.322e-6
-1.238, 6.322e-6
-1.237, 3.239e-6
-1.236, 3.239e-6
-1.235, 1.559e-7
-1.234, 1.559e-7
-1.233, 1.559e-7
-1.232, 1.559e-7
-1.231, -2.927e-6
-1.230, -2.927e-6
-1.229, -2.927e-6
-1.228, -6.010e-6
-1.227, -6.010e-6
-1.226, -6.010e-6
-1.225, -9.093e-6
-1.224, -9.093e-6
-1.223, -9.093e-6
-1.222, -9.093e-6
-1.221, -1.218e-5
-1.220, -1.218e-5
-1.219, -1.218e-5
-1.218, -1.526e-5
-1.217, -1.526e-5
-1.216, -1.526e-5
-1.215, -1.526e-5
-1.214, -1.526e-5
-1.213, -1.834e-5
-1.212, -1.834e-5
-1.211, -1.834e-5
-1.210, -2.143e-5
-1.209, -2.143e-5
-1.208, -2.143e-5
-1.207, -2.143e-5
-1.206, -2.143e-5
-1.205, -2.143e-5
-1.204, -2.451e-5
-1.203, -2.451e-5
-1.202, -2.451e-5
-1.201, -2.451e-5
-1.200, -2.451e-5
-1.199, -2.759e-5
-1.198, -2.759e-5
-1.197, -2.759e-5
-1.196, -2.759e-5
-1.195, -2.759e-5
-1.194, -2.759e-5
-1.193, -2.759e-5
-1.192, -2.759e-5
-1.191, -2.759e-5
-1.190, -3.068e-5
-1.189, -3.068e-5
-1.188, -3.068e-5
-1.187, -3.068e-5
-1.186, -3.068e-5
-1.185, -3.068e-5
-1.184, -3.376e-5
-1.183, -3.376e-5
-1.182, -3.376e-5
-1.181, -3.376e-5
-1.180, -3.376e-5
-1.179, -3.376e-5
-1.178, -3.376e-5
-1.177, -3.376e-5
-1.176, -3.376e-5
-1.175, -3.376e-5
-1.174, -3.684e-5
-1.173, -3.684e-5
-1.172, -3.684e-5
-1.171, -3.684e-5
-1.170, -3.684e-5
-1.169, -3.684e-5
-1.168, -3.684e-5
-1.167, -3.992e-5
-1.166, -3.992e-5
-1.165, -3.992e-5
-1.164, -3.992e-5
-1.163, -3.992e-5
-1.162, -3.992e-5
-1.161, -3.992e-5
-1.160, -3.992e-5
-1.159, -3.992e-5
-1.158, -4.301e-5
-1.157, -4.301e-5
-1.156, -4.301e-5
-1.155, -4.301e-5
-1.154, -4.301e-5
-1.153, -4.301e-5
-1.152, -4.301e-5
-1.151, -4.301e-5
-1.150, -4.301e-5
-1.149, -4.609e-5
-1.148, -4.609e-5
-1.147, -4.301e-5
-1.146, -4.301e-5
-1.145, -4.301e-5
-1.144, -4.609e-5
-1.143, -4.609e-5
-1.142, -4.609e-5
-1.141, -4.609e-5
-1.140, -4.609e-5
-1.139, -4.609e-5
-1.138, -4.609e-5
-1.137, -4.609e-5
-1.136, -4.609e-5
-1.135, -4.917e-5
-1.134, -4.917e-5
-1.133, -4.917e-5
-1.132, -4.917e-5
-1.131, -4.917e-5
-1.130, -4.917e-5
-1.129, -4.917e-5
-1.128, -5.226e-5
-1.127, -5.226e-5
-1.126, -4.917e-5
-1.125, -4.917e-5
-1.124, -5.226e-5
-1.123, -5.226e-5
-1.122, -5.226e-5
-1.121, -5.226e-5
-1.120, -5.226e-5
-1.119, -5.226e-5
-1.118, -5.534e-5
-1.117, -5.226e-5
-1.116, -5.226e-5
-1.115, -5.534e-5
-1.114, -5.534e-5
-1.113, -5.534e-5
-1.112, -5.534e-5
-1.111, -5.534e-5
-1.110, -5.534e-5
-1.109, -5.534e-5
-1.108, -5.842e-5
-1.107, -5.534e-5
-1.106, -5.534e-5
-1.105, -5.842e-5
-1.104, -5.842e-5
-1.103, -5.842e-5
-1.102, -5.842e-5
-1.101, -5.842e-5
-1.100, -5.842e-5
-1.099, -5.842e-5
-1.098, -6.151e-5
-1.097, -5.842e-5
-1.096, -5.842e-5
-1.095, -5.842e-5
-1.094, -6.151e-5
-1.093, -6.151e-5
-1.092, -6.151e-5
-1.091, -6.151e-5
-1.090, -6.151e-5
-1.089, -6.151e-5
-1.088, -6.151e-5
-1.087, -6.459e-5
-1.086, -6.459e-5
-1.085, -6.459e-5
-1.084, -6.459e-5
-1.083, -6.459e-5
-1.082, -6.459e-5
-1.081, -6.459e-5
-1.080, -6.459e-5
-1.079, -6.767e-5
-1.078, -6.767e-5
-1.077, -6.767e-5
-1.076, -6.767e-5
-1.075, -6.767e-5
-1.074, -6.767e-5
-1.073, -7.076e-5
-1.072, -6.767e-5
-1.071, -7.076e-5
-1.070, -7.076e-5
-1.069, -7.076e-5
-1.068, -7.076e-5
-1.067, -7.076e-5
-1.066, -7.076e-5
-1.065, -7.384e-5
-1.064, -7.384e-5
-1.063, -7.384e-5
-1.062, -7.384e-5
-1.061, -7.384e-5
-1.060, -7.692e-5
-1.059, -7.692e-5
-1.058, -7.692e-5
-1.057, -7.692e-5
-1.056, -7.692e-5
-1.055, -8.000e-5
-1.054, -8.000e-5
-1.053, -8.309e-5
-1.052, -8.000e-5
-1.051, -8.309e-5
-1.050, -8.309e-5
-1.049, -8.309e-5
-1.048, -8.617e-5
-1.047, -8.617e-5
-1.046, -8.617e-5
-1.045, -8.617e-5
-1.044, -8.925e-5
-1.043, -9.234e-5
-1.042, -9.234e-5
-1.041, -9.234e-5
-1.040, -9.234e-5
-1.039, -9.542e-5
-1.038, -9.542e-5
-1.037, -9.542e-5
-1.036, -9.850e-5
-1.035, -9.850e-5
-1.034, -9.850e-5
-1.033, -1.016e-4
-1.032, -1.016e-4
-1.031, -1.016e-4
-1.030, -1.047e-4
-1.029, -1.078e-4
-1.028, -1.078e-4
-1.027, -1.078e-4
-1.026, -1.108e-4
-1.025, -1.108e-4
-1.024, -1.139e-4
-1.023, -1.139e-4
-1.022, -1.170e-4
-1.021, -1.170e-4
-1.020, -1.170e-4
-1.019, -1.170e-4
-1.018, -1.232e-4
-1.017, -1.201e-4
-1.016, -1.232e-4
-1.015, -1.232e-4
-1.014, -1.263e-4
-1.013, -1.293e-4
-1.012, -1.293e-4
-1.011, -1.293e-4
-1.010, -1.293e-4
-1.009, -1.324e-4
-1.008, -1.355e-4
-1.007, -1.355e-4
-1.006, -1.386e-4
-1.005, -1.386e-4
-1.004, -1.417e-4
-1.003, -1.417e-4
-1.002, -1.417e-4
-1.001, -1.448e-4
