Potential V vs RHE, Current mA cm-2
0.013299999999999867,-0.30755823659065895
0.012299999999999978,-1.2671569112891135
0.011299999999999866,-2.008890045808352
0.010299999999999976,-2.706342716641815
0.009299999999999864,-3.273641947887695
0.008299999999999974,-3.7093730282461257
0.007299999999999862,-4.146518819904423
0.006299999999999972,-4.538393849967037
0.00529999999999986,-4.887827541033701
0.0042999999999999705,-5.149549131508733
0.0032999999999998586,-5.367414671687949
0.0022999999999999687,-5.5414241615713475
0.0012999999999998568,-5.715433651454749
0.00029999999999996696,-5.847001802342197
-0.000700000000000145,-5.977155241929781
-0.0017000000000000348,-6.108723392817228
-0.0027000000000001467,-6.238876832404812
-0.0037000000000000366,-6.37044498329226
-0.0047000000000001485,-6.414301033588076
-0.005700000000000038,-6.458157083883892
-0.00670000000000015,-6.500598422879844
-0.00770000000000004,-6.54445447317566
-0.008700000000000152,-6.588310523471475
-0.009700000000000042,-6.6760226240631075
-0.010700000000000154,-6.719878674358924
-0.011700000000000044,-6.762320013354876
-0.012700000000000156,-6.850032113946507
-0.013700000000000045,-6.850032113946507
-0.014700000000000157,-6.850032113946507
-0.015700000000000047,-6.850032113946507
-0.01670000000000016,-6.806176063650692
-0.01770000000000005,-6.893888164242324
-0.01870000000000016,-6.893888164242324
-0.01970000000000005,-6.981600264833956
-0.020700000000000163,-6.981600264833956
-0.021700000000000053,-6.981600264833956
-0.022700000000000164,-6.981600264833956
-0.023700000000000054,-6.981600264833956
-0.024700000000000166,-6.981600264833956
-0.025700000000000056,-6.981600264833956
-0.026700000000000168,-7.024041603829907
-0.027700000000000058,-7.067897654125724
-0.02870000000000017,-7.067897654125724
-0.02970000000000006,-7.111753704421539
-0.03070000000000017,-7.111753704421539
-0.03170000000000006,-7.067897654125724
-0.03270000000000017,-7.067897654125724
-0.03370000000000006,-7.024041603829907
-0.034700000000000175,-7.067897654125724
-0.035700000000000065,-7.155609754717355
-0.03670000000000018,-7.155609754717355
-0.03770000000000007,-7.199465805013171
-0.03870000000000018,-7.155609754717355
-0.03970000000000007,-7.155609754717355
-0.04070000000000018,-7.155609754717355
-0.04170000000000007,-7.155609754717355
-0.04270000000000018,-7.155609754717355
-0.04370000000000007,-7.199465805013171
-0.044700000000000184,-7.243321855308987
-0.045700000000000074,-7.243321855308987
-0.046700000000000186,-7.243321855308987
-0.047700000000000076,-7.199465805013171
-0.04870000000000019,-7.199465805013171
-0.04970000000000008,-7.243321855308987
-0.05070000000000019,-7.243321855308987
-0.05170000000000008,-7.243321855308987
-0.05270000000000019,-7.28576319430494
-0.05370000000000008,-7.28576319430494
-0.05470000000000019,-7.329619244600755
-0.05570000000000008,-7.28576319430494
-0.056700000000000195,-7.28576319430494
-0.057700000000000085,-7.28576319430494
-0.058700000000000196,-7.28576319430494
-0.059700000000000086,-7.329619244600755
-0.0607000000000002,-7.329619244600755
-0.06170000000000009,-7.37347529489657
-0.0627000000000002,-7.4173313451923875
-0.06370000000000009,-7.37347529489657
-0.0647000000000002,-7.37347529489657
-0.06570000000000009,-7.37347529489657
-0.0667000000000002,-7.329619244600755
-0.0677000000000001,-7.4173313451923875
-0.0687000000000002,-7.4173313451923875
-0.0697000000000001,-7.4173313451923875
-0.07070000000000021,-7.461187395488204
-0.0717000000000001,-7.4173313451923875
-0.07270000000000021,-7.461187395488204
-0.0737000000000001,-7.4173313451923875
-0.07470000000000021,-7.461187395488204
-0.0757000000000001,-7.461187395488204
-0.07670000000000021,-7.461187395488204
-0.0777000000000001,-7.50504344578402
-0.07870000000000021,-7.5474847847799715
-0.0797000000000001,-7.5474847847799715
-0.08070000000000022,-7.5474847847799715
-0.0817000000000001,-7.50504344578402
-0.08270000000000022,-7.50504344578402
-0.08370000000000011,-7.50504344578402
-0.08470000000000022,-7.50504344578402
-0.08570000000000011,-7.5474847847799715
-0.08670000000000022,-7.591340835075788
-0.08770000000000011,-7.635196885371603
-0.08870000000000022,-7.591340835075788
-0.08970000000000011,-7.591340835075788
-0.09070000000000022,-7.5474847847799715
-0.09170000000000011,-7.591340835075788
-0.09270000000000023,-7.591340835075788
-0.09370000000000012,-7.635196885371603
-0.09470000000000023,-7.679052935667419
-0.09570000000000012,-7.679052935667419
-0.09670000000000023,-7.679052935667419
-0.09770000000000012,-7.679052935667419
-0.09870000000000023,-7.635196885371603
-0.09970000000000012,-7.635196885371603
-0.10070000000000023,-7.679052935667419
-0.10170000000000012,-7.679052935667419
-0.10270000000000024,-7.722908985963235
-0.10370000000000013,-7.722908985963235
-0.10470000000000024,-7.722908985963235
-0.10570000000000013,-7.722908985963235
-0.10670000000000024,-7.679052935667419
-0.10770000000000013,-7.722908985963235
-0.10870000000000024,-7.679052935667419
-0.10970000000000013,-7.722908985963235
-0.11070000000000024,-7.7653503249591855
-0.11170000000000013,-7.7653503249591855
-0.11270000000000002,-7.809206375255003
-0.11370000000000013,-7.809206375255003
-0.11470000000000002,-7.7653503249591855
-0.11570000000000014,-7.7653503249591855
-0.11670000000000003,-7.7653503249591855
-0.11770000000000014,-7.7653503249591855
-0.11870000000000003,-7.809206375255003
-0.11970000000000014,-7.853062425550818
-0.12070000000000003,-7.853062425550818
-0.12170000000000014,-7.853062425550818
-0.12270000000000003,-7.853062425550818
-0.12370000000000014,-7.809206375255003
-0.12470000000000003,-7.853062425550818
-0.12570000000000014,-7.853062425550818
-0.12670000000000003,-7.896918475846635
-0.12770000000000015,-7.896918475846635
-0.12870000000000004,-7.940774526142452
-0.12970000000000015,-7.940774526142452
-0.13070000000000004,-7.940774526142452
-0.13170000000000015,-7.940774526142452
-0.13270000000000004,-7.896918475846635
-0.13370000000000015,-7.940774526142452
-0.13470000000000004,-7.940774526142452
-0.13570000000000015,-7.984630576438266
-0.13670000000000004,-8.027071915434218
-0.13770000000000016,-8.070927965730034
-0.13870000000000005,-8.027071915434218
-0.13970000000000016,-8.027071915434218
-0.14070000000000005,-7.984630576438266
-0.14170000000000016,-7.984630576438266
-0.14270000000000005,-8.027071915434218
-0.14370000000000016,-8.070927965730034
-0.14470000000000005,-8.11478401602585
-0.14570000000000016,-8.11478401602585
-0.14670000000000005,-8.11478401602585
-0.14770000000000016,-8.11478401602585
-0.14870000000000005,-8.11478401602585
-0.14970000000000017,-8.070927965730034
-0.15070000000000006,-8.11478401602585
-0.15170000000000017,-8.11478401602585
-0.15270000000000006,-8.158640066321666
-0.15370000000000017,-8.202496116617484
-0.15470000000000006,-8.202496116617484
-0.15570000000000017,-8.202496116617484
-0.15670000000000006,-8.202496116617484
-0.15770000000000017,-8.202496116617484
-0.15870000000000006,-8.202496116617484
-0.15970000000000018,-8.202496116617484
-0.16070000000000007,-8.288793505909249
-0.16170000000000018,-8.288793505909249
-0.16270000000000007,-8.332649556205066
-0.16370000000000018,-8.332649556205066
-0.16470000000000007,-8.332649556205066
-0.16570000000000018,-8.332649556205066
-0.16670000000000007,-8.332649556205066
-0.16770000000000018,-8.376505606500881
-0.16870000000000007,-8.4203616567967
-0.16970000000000018,-8.4203616567967
-0.17070000000000007,-8.464217707092514
-0.17170000000000019,-8.464217707092514
-0.17270000000000008,-8.508073757388331
-0.1737000000000002,-8.508073757388331
-0.17470000000000008,-8.508073757388331
-0.1757000000000002,-8.508073757388331
-0.17670000000000008,-8.55051509638428
-0.1777000000000002,-8.594371146680096
-0.17870000000000008,-8.638227196975913
-0.1797000000000002,-8.68208324727173
-0.18070000000000008,-8.68208324727173
-0.1817000000000002,-8.68208324727173
-0.18270000000000008,-8.68208324727173
-0.1837000000000002,-8.725939297567548
-0.1847000000000001,-8.769795347863363
-0.1857000000000002,-8.812236686859313
-0.1867000000000001,-8.85609273715513
-0.1877000000000002,-8.943804837746763
-0.1887000000000001,-8.943804837746763
-0.1897000000000002,-8.943804837746763
-0.1907000000000001,-8.943804837746763
-0.1917000000000001,-8.943804837746763
-0.19269999999999998,-9.031516938338395
-0.1937000000000001,-9.073958277334345
-0.19469999999999998,-9.161670377925978
-0.1957000000000001,-9.205526428221793
-0.19669999999999999,-9.205526428221793
-0.1977000000000001,-9.24938247851761
-0.1987,-9.293238528813426
-0.1997000000000001,-9.335679867809377
-0.2007,-9.335679867809377
-0.2017000000000001,-9.423391968401008
-0.2027,-9.467248018696827
-0.2037000000000001,-9.55496011928846
-0.2047,-9.59740145828441
-0.2057000000000001,-9.641257508580225
-0.2067,-9.641257508580225
-0.2077000000000001,-9.685113558876042
-0.2087,-9.728969609171857
-0.2097000000000001,-9.81668170976349
-0.2107,-9.902979099055257
-0.2117000000000001,-9.946835149351072
-0.2127,-10.078403300238522
-0.2137000000000001,-10.078403300238522
-0.2147,-10.120844639234473
-0.2157000000000001,-10.164700689530287
-0.2167,-10.25241279012192
-0.21770000000000012,-10.340124890713554
-0.2187,-10.382566229709504
-0.21970000000000012,-10.470278330301136
-0.2207,-10.557990430892769
-0.22170000000000012,-10.644287820184536
-0.2227,-10.688143870480351
-0.22370000000000012,-10.731999920776168
-0.2247,-10.819712021367803
-0.22570000000000012,-10.863568071663616
-0.2267,-10.949865460955383
-0.22770000000000012,-11.081433611842833
-0.22870000000000001,-11.1677310011346
-0.22970000000000013,-11.299299152022046
-0.23070000000000002,-11.343155202317865
-0.23170000000000013,-11.385596541313816
-0.23270000000000002,-11.473308641905447
-0.23370000000000013,-11.56102074249708
-0.23470000000000002,-11.691174182084664
-0.23570000000000013,-11.82274233297211
-0.23670000000000002,-11.952895772559694
-0.2376999999999999,-12.040607873151327
-0.23870000000000002,-12.12831997374296
-0.2396999999999999,-12.214617363034726
-0.24070000000000003,-12.346185513922174
-0.24169999999999991,-12.432482903213943
-0.24270000000000003,-12.56405105410139
-0.24369999999999992,-12.651763154693022
-0.24470000000000003,-12.781916594280606
-0.24569999999999992,-12.955926084164007
-0.24670000000000003,-13.043638184755638
-0.24769999999999992,-13.175206335643086
-0.24870000000000003,-13.261503724934855
-0.24969999999999992,-13.3930718758223
-0.25070000000000003,-13.523225315409885
-0.2516999999999999,-13.654793466297335
-0.25270000000000004,-13.828802956180734
-0.2536999999999999,-14.002812446064135
-0.25470000000000004,-14.13438059695158
-0.2556999999999999,-14.30273124163552
-0.25670000000000004,-14.401761032626075
-0.25769999999999993,-14.529085049613924
-0.25870000000000004,-14.65640906660178
-0.25969999999999993,-14.826174422585586
-0.26070000000000004,-15.01008689156804
-0.26169999999999993,-15.179852247551842
-0.26270000000000004,-15.3920589425316
-0.26369999999999993,-15.533530072518102
-0.26470000000000005,-15.660854089505953
-0.26569999999999994,-15.78817810649381
-0.26670000000000005,-15.972090575476265
-0.26769999999999994,-16.184297270456018
-0.26870000000000005,-16.354062626439823
-0.26969999999999994,-16.622857773414182
-0.27070000000000005,-16.792623129397985
-0.27169999999999994,-16.962388485381787
-0.27270000000000005,-17.146300954364243
-0.27369999999999994,-17.316066310348052
-0.27470000000000006,-17.48583166633185
-0.27569999999999995,-17.71218547431026
-0.27670000000000006,-17.966833508285966
-0.27769999999999995,-18.23562865526032
-0.27870000000000006,-18.44783535024008
-0.27969999999999995,-18.674189158218486
-0.28070000000000006,-18.88639585319824
-0.28169999999999995,-19.056161209182044
-0.28270000000000006,-19.3249563561564
-0.28369999999999995,-19.537163051136158
-0.28470000000000006,-19.805958198110513
-0.28569999999999995,-20.10304757108217
-0.28670000000000007,-20.371842718056527
-0.28769999999999996,-20.626490752032236
-0.28870000000000007,-20.85284456001064
-0.28969999999999996,-21.107492593986347
-0.29070000000000007,-21.376287740960702
-0.29169999999999996,-21.63093577493641
-0.29270000000000007,-21.94217226090672
-0.29369999999999996,-22.196820294882425
-0.2947000000000001,-22.508056780852733
-0.29569999999999996,-22.819293266823045
-0.2967000000000001,-23.073941300798747
-0.29769999999999996,-23.385177786769056
-0.2987000000000001,-23.639825820744765
-0.29969999999999997,-23.951062306715073
-0.3007000000000001,-24.20571034069078
-0.30169999999999997,-24.559388165657033
-0.3027000000000001,-24.9130659906233
-0.30369999999999997,-25.210155363594954
-0.3047000000000001,-25.563833188561212
-0.30569999999999997,-25.86092256153287
-0.3067000000000001,-26.17215904750318
-0.3077,-26.525836872469437
-0.3087000000000001,-26.822926245441096
-0.3097,-27.176604070407354
-0.3107000000000001,-27.572723234369565
-0.3117,-27.954695285333123
-0.3127000000000001,-28.350814449295335
-0.3137,-28.704492274261593
-0.3147000000000001,-29.058170099227848
-0.3157,-29.39770081119546
-0.3167000000000001,-29.751378636161718
-0.3177,-30.189939139119886
-0.3187000000000001,-30.571911190083444
-0.3197,-31.010471693041605
-0.3207000000000001,-31.449032195999767
-0.3217,-31.802710020966025
-0.3227000000000001,-32.184682071929586
-0.3237,-32.58080123589179
-0.3247000000000001,-32.97692039985401
-0.3257,-33.41548090281216
-0.3267000000000001,-33.85404140577033
-0.3277,-34.33504324772444
-0.3287000000000001,-34.8018979766799
-0.3297,-35.240458479638065
-0.3307000000000001,-35.679018982596226
-0.3317,-36.07513814655844
-0.3327000000000001,-36.5136986495166
-0.3337,-36.95225915247476
-0.3347000000000001,-37.41911388143023
-0.3357,-37.94255706238028
-0.3367000000000001,-38.38111756533845
-0.3377,-38.90456074628851
-0.3387000000000001,-39.34312124924667
-0.3397,-39.78168175220483
-0.3407000000000001,-40.220242255162994
-0.3417,-40.701244097117105
-0.3427000000000001,-41.22468727806717
-0.3437,-41.70568912002128
-0.3447000000000001,-42.229132300971344
-0.3457,-42.752575481921404
-0.3467000000000001,-43.17698887188092
-0.3477,-43.70043205283099
-0.3487000000000001,-44.181433894785094
-0.3497,-44.66243573673921
-0.3507000000000001,-45.22832025668522
-0.3517,-45.75176343763528
-0.3527000000000001,-46.27520661858535
-0.3537,-46.79864979953541
-0.3547000000000001,-47.32209298048547
-0.3557,-47.84553616143554
-0.35670000000000013,-48.36897934238561
-0.3577,-48.89242252333566
-0.35870000000000013,-49.458307043281685
-0.3597,-49.98175022423175
-0.36070000000000013,-50.60422319617236
-0.3617,-51.17010771611838
-0.3626999999999999,-51.73599223606439
-0.3637,-52.30187675601041
-0.3646999999999999,-52.82531993696047
-0.3657,-53.39120445690648
-0.3666999999999999,-53.9570889768525
-0.3677,-54.56541483579447
-0.3686999999999999,-55.17374069473642
-0.36970000000000003,-55.7820665536784
-0.3706999999999999,-56.404539525619015
-0.37170000000000003,-56.97042404556503
-0.3726999999999999,-57.57874990450699
-0.37370000000000003,-58.14463442445301
-0.3746999999999999,-58.75296028339497
-0.37570000000000003,-59.31884480334099
-0.3766999999999999,-59.9696120012789
-0.37770000000000004,-60.59208497321952
-0.3786999999999999,-61.20041083216149
-0.37970000000000004,-61.851178030099405
-0.3806999999999999,-62.41706255004542
-0.38170000000000004,-63.02538840898739
-0.38269999999999993,-63.633714267929356
-0.38370000000000004,-64.25618723986996
-0.38469999999999993,-64.90695443780788
-0.38570000000000004,-65.5577216357458
-0.38669999999999993,-65.4728389577539
-0.38570000000000004,-64.19959878787537
-0.38469999999999993,-63.06782974798333
-0.38370000000000004,-62.06338472507916
-0.38269999999999993,-61.20041083216149
-0.38170000000000004,-60.36573116524111
-0.3806999999999999,-59.6300812893113
-0.37970000000000004,-58.92272563937878
-0.3786999999999999,-58.27195844144086
-0.37770000000000004,-57.62119124350295
-0.3766999999999999,-56.927982706569075
-0.37570000000000003,-56.26306839563251
-0.3746999999999999,-55.56985985869864
-0.37370000000000003,-54.919092660760725
-0.3726999999999999,-54.31076680181876
-0.37170000000000003,-53.68829382987814
-0.3706999999999999,-53.12240930993213
-0.36970000000000003,-52.514083450990164
-0.3686999999999999,-51.90575759204819
-0.3677,-51.29743173310623
-0.3666999999999999,-50.64666453516831
-0.3657,-50.024191563227696
-0.3646999999999999,-49.41586570428573
-0.3637,-48.84998118433972
-0.3626999999999999,-48.2840966643937
-0.3617,-47.76065348344364
-0.36070000000000013,-47.19476896349763
-0.3597,-46.586443104555656
-0.35870000000000013,-45.97811724561369
-0.3577,-45.36979138667173
-0.35670000000000013,-44.80390686672572
-0.3557,-44.223875233781044
-0.3547000000000001,-43.70043205283099
-0.3537,-43.134547532884966
-0.3527000000000001,-42.568663012938956
-0.3517,-42.00277849299294
-0.3507000000000001,-41.43689397304693
-0.3497,-40.828568114104954
-0.3487000000000001,-40.30512493315489
-0.3477,-39.739240413208876
-0.3467000000000001,-39.21579723225882
-0.3457,-38.692354051308754
-0.3447000000000001,-38.16891087035869
-0.3437,-37.60302635041268
-0.3427000000000001,-37.07958316946261
-0.3417,-36.5136986495166
-0.3407000000000001,-35.94781412957058
-0.3397,-35.42437094862052
-0.3387000000000001,-34.85848642867451
-0.3377,-34.377484586720385
-0.3367000000000001,-33.85404140577033
-0.3357,-33.373039563816214
-0.3347000000000001,-32.84959638286615
-0.3337,-32.283711862920136
-0.3327000000000001,-31.76026868197007
-0.3317,-31.19438416202406
-0.3307000000000001,-30.7558236590659
-0.3297,-30.274821817111786
-0.3287000000000001,-29.793819975157668
-0.3277,-29.31281813320356
-0.3267000000000001,-28.789374952253496
-0.3257,-28.308373110299385
-0.3247000000000001,-27.78492992934932
-0.3237,-27.303928087395207
-0.3227000000000001,-26.822926245441096
-0.3217,-26.38436574248293
-0.3207000000000001,-25.91751101352747
-0.3197,-25.478950510569312
-0.3187000000000001,-24.997948668615198
-0.3177,-24.516946826661083
-0.3167000000000001,-24.035944984706973
-0.3157,-23.55494314275286
-0.3147000000000001,-23.073941300798747
-0.3137,-22.63538079784059
-0.3127000000000001,-22.196820294882425
-0.3117,-21.772406904922917
-0.3107000000000001,-21.376287740960702
-0.3097,-20.89528589900659
-0.3087000000000001,-20.414284057052477
-0.3077,-19.97572355409432
-0.3067000000000001,-19.537163051136158
-0.30569999999999997,-19.112749661176647
-0.3047000000000001,-18.716630497214435
-0.30369999999999997,-18.27806999425627
-0.3027000000000001,-17.881950830294063
-0.30169999999999997,-17.4433903273359
-0.3007000000000001,-17.061418276372343
-0.29969999999999997,-16.622857773414182
-0.2987000000000001,-16.22673860945197
-0.29769999999999996,-15.830619445489761
-0.2967000000000001,-15.448647394526201
-0.29569999999999996,-15.094969569559943
-0.2947000000000001,-14.69885040559773
-0.29369999999999996,-14.345172580631472
-0.29270000000000007,-13.960371107068182
-0.29169999999999996,-13.523225315409885
-0.29070000000000007,-13.13135028534727
-0.28969999999999996,-12.73806054398479
-0.28870000000000007,-12.390041564217992
-0.28769999999999996,-12.084463923447142
-0.28670000000000007,-11.73503023238048
-0.28569999999999995,-11.343155202317865
-0.28470000000000006,-10.993721511251199
-0.28369999999999995,-10.601846481188586
-0.28270000000000006,-10.25241279012192
-0.28169999999999995,-9.902979099055257
-0.28070000000000006,-9.59740145828441
-0.27969999999999995,-9.24938247851761
-0.27870000000000006,-8.943804837746763
-0.27769999999999995,-8.638227196975913
-0.27670000000000006,-8.288793505909249
-0.27569999999999995,-7.940774526142452
-0.27470000000000006,-7.591340835075788
-0.27369999999999994,-7.243321855308987
-0.27270000000000005,-6.93774421453814
-0.27169999999999994,-6.632166573767292
-0.27070000000000005,-6.37044498329226
-0.26969999999999994,-6.064867342521412
-0.26870000000000005,-5.759289701750564
-0.26769999999999994,-5.453712060979717
-0.26670000000000005,-5.149549131508733
-0.26569999999999994,-4.843971490737885
-0.26470000000000005,-4.494537799671222
