June 30, 2026   12:19:19
Cyclic Voltammetry
File: c:/users/guazh/data/20260623_doe_duplica2/2026-06-24-exp50\exp50-2026-06-30t11_49_36-h2koh\exp50_cv_sr_900mvs_efin_-1900mv.bin
Data Source:  Experiment
Instrument Model:  CHI760E
Header: CV ran at 900 mVs
Note: 

Init E (V) = -1
High E (V) = -1
Low E (V) = -1.9
Final E (V) = -1
Init P/N = N
Scan Rate (V/s) = 0.9
Segment = 3
Sample Interval (V) = 0.001
Quiet Time (sec) = 2
Sensitivity (A/V) = 0.01
Comp R (ohm) = 1.6

Results:

Channel 1:
Segment 1:

Segment 2:

Segment 3:

Potential/V, Current/A

-1.000, 3.239e-6
-1.001, 1.559e-7
-1.002, 3.239e-6
-1.003, 3.239e-6
-1.004, 3.239e-6
-1.005, 3.239e-6
-1.006, 3.239e-6
-1.007, 3.239e-6
-1.008, 3.239e-6
-1.009, 3.239e-6
-1.010, 3.239e-6
-1.011, 3.239e-6
-1.012, 3.239e-6
-1.013, 6.322e-6
-1.014, 3.239e-6
-1.015, 3.239e-6
-1.016, 3.239e-6
-1.017, 3.239e-6
-1.018, 6.322e-6
-1.019, 3.239e-6
-1.020, 6.322e-6
-1.021, 6.322e-6
-1.022, 6.322e-6
-1.023, 6.322e-6
-1.024, 6.322e-6
-1.025, 6.322e-6
-1.026, 3.239e-6
-1.027, 6.322e-6
-1.028, 6.322e-6
-1.029, 6.322e-6
-1.030, 6.322e-6
-1.031, 6.322e-6
-1.032, 6.322e-6
-1.033, 6.322e-6
-1.034, 6.322e-6
-1.035, 6.322e-6
-1.036, 6.322e-6
-1.037, 6.322e-6
-1.038, 6.322e-6
-1.039, 6.322e-6
-1.040, 6.322e-6
-1.041, 6.322e-6
-1.042, 6.322e-6
-1.043, 6.322e-6
-1.044, 6.322e-6
-1.045, 6.322e-6
-1.046, 6.322e-6
-1.047, 6.322e-6
-1.048, 6.322e-6
-1.049, 6.322e-6
-1.050, 6.322e-6
-1.051, 6.322e-6
-1.052, 6.322e-6
-1.053, 6.322e-6
-1.054, 6.322e-6
-1.055, 6.322e-6
-1.056, 6.322e-6
-1.057, 9.405e-6
-1.058, 6.322e-6
-1.059, 6.322e-6
-1.060, 6.322e-6
-1.061, 6.322e-6
-1.062, 6.322e-6
-1.063, 6.322e-6
-1.064, 6.322e-6
-1.065, 6.322e-6
-1.066, 6.322e-6
-1.067, 6.322e-6
-1.068, 6.322e-6
-1.069, 9.405e-6
-1.070, 6.322e-6
-1.071, 6.322e-6
-1.072, 6.322e-6
-1.073, 9.405e-6
-1.074, 6.322e-6
-1.075, 6.322e-6
-1.076, 6.322e-6
-1.077, 6.322e-6
-1.078, 9.405e-6
-1.079, 6.322e-6
-1.080, 9.405e-6
-1.081, 9.405e-6
-1.082, 6.322e-6
-1.083, 9.405e-6
-1.084, 6.322e-6
-1.085, 9.405e-6
-1.086, 6.322e-6
-1.087, 9.405e-6
-1.088, 9.405e-6
-1.089, 6.322e-6
-1.090, 9.405e-6
-1.091, 6.322e-6
-1.092, 6.322e-6
-1.093, 6.322e-6
-1.094, 9.405e-6
-1.095, 6.322e-6
-1.096, 9.405e-6
-1.097, 6.322e-6
-1.098, 9.405e-6
-1.099, 9.405e-6
-1.100, 9.405e-6
-1.101, 9.405e-6
-1.102, 9.405e-6
-1.103, 9.405e-6
-1.104, 9.405e-6
-1.105, 9.405e-6
-1.106, 9.405e-6
-1.107, 9.405e-6
-1.108, 9.405e-6
-1.109, 9.405e-6
-1.110, 9.405e-6
-1.111, 9.405e-6
-1.112, 9.405e-6
-1.113, 9.405e-6
-1.114, 9.405e-6
-1.115, 9.405e-6
-1.116, 9.405e-6
-1.117, 9.405e-6
-1.118, 9.405e-6
-1.119, 9.405e-6
-1.120, 9.405e-6
-1.121, 6.322e-6
-1.122, 9.405e-6
-1.123, 9.405e-6
-1.124, 9.405e-6
-1.125, 9.405e-6
-1.126, 9.405e-6
-1.127, 9.405e-6
-1.128, 9.405e-6
-1.129, 9.405e-6
-1.130, 9.405e-6
-1.131, 9.405e-6
-1.132, 9.405e-6
-1.133, 9.405e-6
-1.134, 9.405e-6
-1.135, 9.405e-6
-1.136, 9.405e-6
-1.137, 9.405e-6
-1.138, 9.405e-6
-1.139, 9.405e-6
-1.140, 9.405e-6
-1.141, 9.405e-6
-1.142, 9.405e-6
-1.143, 9.405e-6
-1.144, 9.405e-6
-1.145, 9.405e-6
-1.146, 9.405e-6
-1.147, 9.405e-6
-1.148, 9.405e-6
-1.149, 9.405e-6
-1.150, 9.405e-6
-1.151, 9.405e-6
-1.152, 9.405e-6
-1.153, 9.405e-6
-1.154, 9.405e-6
-1.155, 9.405e-6
-1.156, 9.405e-6
-1.157, 9.405e-6
-1.158, 9.405e-6
-1.159, 9.405e-6
-1.160, 9.405e-6
-1.161, 9.405e-6
-1.162, 1.249e-5
-1.163, 9.405e-6
-1.164, 9.405e-6
-1.165, 9.405e-6
-1.166, 1.249e-5
-1.167, 9.405e-6
-1.168, 9.405e-6
-1.169, 9.405e-6
-1.170, 9.405e-6
-1.171, 1.249e-5
-1.172, 9.405e-6
-1.173, 1.249e-5
-1.174, 9.405e-6
-1.175, 9.405e-6
-1.176, 9.405e-6
-1.177, 1.249e-5
-1.178, 1.249e-5
-1.179, 9.405e-6
-1.180, 9.405e-6
-1.181, 9.405e-6
-1.182, 9.405e-6
-1.183, 1.249e-5
-1.184, 1.249e-5
-1.185, 1.249e-5
-1.186, 1.249e-5
-1.187, 1.249e-5
-1.188, 9.405e-6
-1.189, 1.249e-5
-1.190, 1.249e-5
-1.191, 9.405e-6
-1.192, 1.249e-5
-1.193, 1.249e-5
-1.194, 1.249e-5
-1.195, 1.249e-5
-1.196, 1.249e-5
-1.197, 1.249e-5
-1.198, 1.249e-5
-1.199, 1.249e-5
-1.200, 1.249e-5
-1.201, 1.249e-5
-1.202, 9.405e-6
-1.203, 1.249e-5
-1.204, 1.249e-5
-1.205, 1.249e-5
-1.206, 1.249e-5
-1.207, 1.249e-5
-1.208, 1.249e-5
-1.209, 1.249e-5
-1.210, 1.249e-5
-1.211, 1.249e-5
-1.212, 1.249e-5
-1.213, 1.249e-5
-1.214, 1.249e-5
-1.215, 1.249e-5
-1.216, 1.249e-5
-1.217, 1.249e-5
-1.218, 1.249e-5
-1.219, 1.249e-5
-1.220, 1.249e-5
-1.221, 1.249e-5
-1.222, 1.249e-5
-1.223, 1.249e-5
-1.224, 1.249e-5
-1.225, 1.249e-5
-1.226, 1.249e-5
-1.227, 1.249e-5
-1.228, 1.249e-5
-1.229, 1.557e-5
-1.230, 1.249e-5
-1.231, 1.249e-5
-1.232, 1.249e-5
-1.233, 1.249e-5
-1.234, 1.249e-5
-1.235, 1.249e-5
-1.236, 1.249e-5
-1.237, 1.249e-5
-1.238, 1.557e-5
-1.239, 1.249e-5
-1.240, 1.249e-5
-1.241, 1.249e-5
-1.242, 1.249e-5
-1.243, 1.557e-5
-1.244, 1.249e-5
-1.245, 1.249e-5
-1.246, 1.249e-5
-1.247, 1.557e-5
-1.248, 1.249e-5
-1.249, 1.249e-5
-1.250, 1.557e-5
-1.251, 1.557e-5
-1.252, 1.557e-5
-1.253, 1.557e-5
-1.254, 1.249e-5
-1.255, 1.557e-5
-1.256, 1.249e-5
-1.257, 1.557e-5
-1.258, 1.557e-5
-1.259, 1.557e-5
-1.260, 1.557e-5
-1.261, 1.557e-5
-1.262, 1.557e-5
-1.263, 1.557e-5
-1.264, 1.557e-5
-1.265, 1.557e-5
-1.266, 1.557e-5
-1.267, 1.557e-5
-1.268, 1.557e-5
-1.269, 1.557e-5
-1.270, 1.557e-5
-1.271, 1.557e-5
-1.272, 1.557e-5
-1.273, 1.557e-5
-1.274, 1.557e-5
-1.275, 1.557e-5
-1.276, 1.557e-5
-1.277, 1.557e-5
-1.278, 1.557e-5
-1.279, 1.557e-5
-1.280, 1.557e-5
-1.281, 1.557e-5
-1.282, 1.557e-5
-1.283, 1.557e-5
-1.284, 1.557e-5
-1.285, 1.557e-5
-1.286, 1.557e-5
-1.287, 1.557e-5
-1.288, 1.557e-5
-1.289, 1.557e-5
-1.290, 1.557e-5
-1.291, 1.557e-5
-1.292, 1.557e-5
-1.293, 1.557e-5
-1.294, 1.557e-5
-1.295, 1.557e-5
-1.296, 1.557e-5
-1.297, 1.557e-5
-1.298, 1.557e-5
-1.299, 1.557e-5
-1.300, 1.557e-5
-1.301, 1.865e-5
-1.302, 1.557e-5
-1.303, 1.557e-5
-1.304, 1.557e-5
-1.305, 1.865e-5
-1.306, 1.865e-5
-1.307, 1.557e-5
-1.308, 1.865e-5
-1.309, 1.865e-5
-1.310, 1.557e-5
-1.311, 1.865e-5
-1.312, 1.865e-5
-1.313, 1.557e-5
-1.314, 1.557e-5
-1.315, 1.865e-5
-1.316, 1.865e-5
-1.317, 1.865e-5
-1.318, 1.865e-5
-1.319, 1.865e-5
-1.320, 1.865e-5
-1.321, 1.865e-5
-1.322, 1.865e-5
-1.323, 1.865e-5
-1.324, 1.865e-5
-1.325, 1.865e-5
-1.326, 1.865e-5
-1.327, 1.865e-5
-1.328, 1.865e-5
-1.329, 1.865e-5
-1.330, 1.865e-5
-1.331, 1.865e-5
-1.332, 2.174e-5
-1.333, 1.865e-5
-1.334, 1.865e-5
-1.335, 2.174e-5
-1.336, 2.174e-5
-1.337, 2.174e-5
-1.338, 2.174e-5
-1.339, 2.174e-5
-1.340, 2.174e-5
-1.341, 2.174e-5
-1.342, 2.174e-5
-1.343, 2.174e-5
-1.344, 1.865e-5
-1.345, 2.174e-5
-1.346, 2.174e-5
-1.347, 2.174e-5
-1.348, 2.174e-5
-1.349, 2.174e-5
-1.350, 2.174e-5
-1.351, 2.174e-5
-1.352, 2.174e-5
-1.353, 2.174e-5
-1.354, 2.482e-5
-1.355, 2.174e-5
-1.356, 2.174e-5
-1.357, 2.174e-5
-1.358, 2.482e-5
-1.359, 2.174e-5
-1.360, 2.174e-5
-1.361, 2.482e-5
-1.362, 2.482e-5
-1.363, 2.482e-5
-1.364, 2.482e-5
-1.365, 2.482e-5
-1.366, 2.482e-5
-1.367, 2.482e-5
-1.368, 2.482e-5
-1.369, 2.482e-5
-1.370, 2.482e-5
-1.371, 2.482e-5
-1.372, 2.482e-5
-1.373, 2.790e-5
-1.374, 2.482e-5
-1.375, 2.482e-5
-1.376, 2.790e-5
-1.377, 2.790e-5
-1.378, 2.790e-5
-1.379, 2.482e-5
-1.380, 2.790e-5
-1.381, 2.790e-5
-1.382, 2.790e-5
-1.383, 2.790e-5
-1.384, 2.790e-5
-1.385, 2.790e-5
-1.386, 2.790e-5
-1.387, 3.099e-5
-1.388, 2.790e-5
-1.389, 3.099e-5
-1.390, 2.790e-5
-1.391, 3.099e-5
-1.392, 3.099e-5
-1.393, 3.099e-5
-1.394, 3.099e-5
-1.395, 3.099e-5
-1.396, 3.099e-5
-1.397, 3.099e-5
-1.398, 3.099e-5
-1.399, 3.099e-5
-1.400, 3.099e-5
-1.401, 3.099e-5
-1.402, 3.407e-5
-1.403, 3.407e-5
-1.404, 3.407e-5
-1.405, 3.407e-5
-1.406, 3.407e-5
-1.407, 3.407e-5
-1.408, 3.407e-5
-1.409, 3.407e-5
-1.410, 3.715e-5
-1.411, 3.715e-5
-1.412, 3.715e-5
-1.413, 3.715e-5
-1.414, 3.407e-5
-1.415, 3.715e-5
-1.416, 3.715e-5
-1.417, 4.024e-5
-1.418, 3.715e-5
-1.419, 4.024e-5
-1.420, 3.715e-5
-1.421, 4.024e-5
-1.422, 4.024e-5
-1.423, 4.024e-5
-1.424, 4.024e-5
-1.425, 4.024e-5
-1.426, 4.332e-5
-1.427, 4.024e-5
-1.428, 4.024e-5
-1.429, 4.024e-5
-1.430, 4.024e-5
-1.431, 4.332e-5
-1.432, 4.332e-5
-1.433, 4.332e-5
-1.434, 4.332e-5
-1.435, 4.332e-5
-1.436, 4.332e-5
-1.437, 4.332e-5
-1.438, 4.332e-5
-1.439, 4.640e-5
-1.440, 4.640e-5
-1.441, 4.640e-5
-1.442, 4.640e-5
-1.443, 4.640e-5
-1.444, 4.640e-5
-1.445, 4.640e-5
-1.446, 4.640e-5
-1.447, 4.949e-5
-1.448, 4.949e-5
-1.449, 4.949e-5
-1.450, 4.949e-5
-1.451, 4.949e-5
-1.452, 4.949e-5
-1.453, 4.949e-5
-1.454, 5.257e-5
-1.455, 5.257e-5
-1.456, 5.257e-5
-1.457, 5.257e-5
-1.458, 5.257e-5
-1.459, 5.257e-5
-1.460, 5.257e-5
-1.461, 5.257e-5
-1.462, 5.565e-5
-1.463, 5.565e-5
-1.464, 5.257e-5
-1.465, 5.565e-5
-1.466, 5.565e-5
-1.467, 5.565e-5
-1.468, 5.565e-5
-1.469, 5.565e-5
-1.470, 5.873e-5
-1.471, 5.565e-5
-1.472, 5.873e-5
-1.473, 5.873e-5
-1.474, 5.873e-5
-1.475, 5.873e-5
-1.476, 5.873e-5
-1.477, 5.873e-5
-1.478, 6.182e-5
-1.479, 5.873e-5
-1.480, 6.182e-5
-1.481, 6.182e-5
-1.482, 6.182e-5
-1.483, 6.182e-5
-1.484, 6.490e-5
-1.485, 6.490e-5
-1.486, 6.490e-5
-1.487, 6.490e-5
-1.488, 6.490e-5
-1.489, 6.490e-5
-1.490, 6.490e-5
-1.491, 6.798e-5
-1.492, 6.798e-5
-1.493, 6.798e-5
-1.494, 6.798e-5
-1.495, 6.798e-5
-1.496, 6.798e-5
-1.497, 6.798e-5
-1.498, 7.107e-5
-1.499, 6.798e-5
-1.500, 7.107e-5
-1.501, 7.107e-5
-1.502, 7.107e-5
-1.503, 7.107e-5
-1.504, 7.107e-5
-1.505, 7.415e-5
-1.506, 7.107e-5
-1.507, 7.415e-5
-1.508, 7.415e-5
-1.509, 7.415e-5
-1.510, 7.415e-5
-1.511, 7.723e-5
-1.512, 7.723e-5
-1.513, 7.723e-5
-1.514, 7.723e-5
-1.515, 7.723e-5
-1.516, 7.723e-5
-1.517, 7.723e-5
-1.518, 7.723e-5
-1.519, 8.032e-5
-1.520, 8.032e-5
-1.521, 8.032e-5
-1.522, 8.032e-5
-1.523, 8.340e-5
-1.524, 8.340e-5
-1.525, 8.340e-5
-1.526, 8.340e-5
-1.527, 8.340e-5
-1.528, 8.648e-5
-1.529, 8.648e-5
-1.530, 8.648e-5
-1.531, 8.648e-5
-1.532, 8.957e-5
-1.533, 8.957e-5
-1.534, 8.957e-5
-1.535, 8.957e-5
-1.536, 8.957e-5
-1.537, 8.957e-5
-1.538, 9.265e-5
-1.539, 9.265e-5
-1.540, 9.265e-5
-1.541, 9.265e-5
-1.542, 9.265e-5
-1.543, 9.265e-5
-1.544, 9.265e-5
-1.545, 9.573e-5
-1.546, 9.573e-5
-1.547, 9.573e-5
-1.548, 9.882e-5
-1.549, 9.882e-5
-1.550, 9.882e-5
-1.551, 9.882e-5
-1.552, 1.019e-4
-1.553, 1.019e-4
-1.554, 1.019e-4
-1.555, 1.019e-4
-1.556, 1.050e-4
-1.557, 1.050e-4
-1.558, 1.050e-4
-1.559, 1.050e-4
-1.560, 1.050e-4
-1.561, 1.081e-4
-1.562, 1.081e-4
-1.563, 1.081e-4
-1.564, 1.081e-4
-1.565, 1.111e-4
-1.566, 1.081e-4
-1.567, 1.111e-4
-1.568, 1.111e-4
-1.569, 1.142e-4
-1.570, 1.142e-4
-1.571, 1.142e-4
-1.572, 1.142e-4
-1.573, 1.173e-4
-1.574, 1.173e-4
-1.575, 1.204e-4
-1.576, 1.204e-4
-1.577, 1.204e-4
-1.578, 1.204e-4
-1.579, 1.235e-4
-1.580, 1.235e-4
-1.581, 1.235e-4
-1.582, 1.266e-4
-1.583, 1.266e-4
-1.584, 1.296e-4
-1.585, 1.296e-4
-1.586, 1.296e-4
-1.587, 1.327e-4
-1.588, 1.327e-4
-1.589, 1.327e-4
-1.590, 1.358e-4
-1.591, 1.358e-4
-1.592, 1.358e-4
-1.593, 1.389e-4
-1.594, 1.389e-4
-1.595, 1.389e-4
-1.596, 1.420e-4
-1.597, 1.420e-4
-1.598, 1.451e-4
-1.599, 1.481e-4
-1.600, 1.481e-4
-1.601, 1.481e-4
-1.602, 1.481e-4
-1.603, 1.512e-4
-1.604, 1.512e-4
-1.605, 1.543e-4
-1.606, 1.574e-4
-1.607, 1.574e-4
-1.608, 1.605e-4
-1.609, 1.605e-4
-1.610, 1.605e-4
-1.611, 1.636e-4
-1.612, 1.666e-4
-1.613, 1.666e-4
-1.614, 1.697e-4
-1.615, 1.697e-4
-1.616, 1.728e-4
-1.617, 1.759e-4
-1.618, 1.790e-4
-1.619, 1.790e-4
-1.620, 1.821e-4
-1.621, 1.851e-4
-1.622, 1.851e-4
-1.623, 1.882e-4
-1.624, 1.882e-4
-1.625, 1.913e-4
-1.626, 1.944e-4
-1.627, 1.975e-4
-1.628, 1.975e-4
-1.629, 2.006e-4
-1.630, 2.036e-4
-1.631, 2.036e-4
-1.632, 2.098e-4
-1.633, 2.098e-4
-1.634, 2.129e-4
-1.635, 2.160e-4
-1.636, 2.191e-4
-1.637, 2.221e-4
-1.638, 2.252e-4
-1.639, 2.252e-4
-1.640, 2.283e-4
-1.641, 2.314e-4
-1.642, 2.376e-4
-1.643, 2.406e-4
-1.644, 2.437e-4
-1.645, 2.468e-4
-1.646, 2.499e-4
-1.647, 2.530e-4
-1.648, 2.561e-4
-1.649, 2.622e-4
-1.650, 2.653e-4
-1.651, 2.684e-4
-1.652, 2.715e-4
-1.653, 2.776e-4
-1.654, 2.807e-4
-1.655, 2.869e-4
-1.656, 2.869e-4
-1.657, 2.931e-4
-1.658, 2.992e-4
-1.659, 3.023e-4
-1.660, 3.054e-4
-1.661, 3.115e-4
-1.662, 3.177e-4
-1.663, 3.239e-4
-1.664, 3.300e-4
-1.665, 3.362e-4
-1.666, 3.362e-4
-1.667, 3.424e-4
-1.668, 3.485e-4
-1.669, 3.547e-4
-1.670, 3.609e-4
-1.671, 3.640e-4
-1.672, 3.701e-4
-1.673, 3.794e-4
-1.674, 3.855e-4
-1.675, 3.917e-4
-1.676, 3.979e-4
-1.677, 4.071e-4
-1.678, 4.133e-4
-1.679, 4.195e-4
-1.680, 4.287e-4
-1.681, 4.349e-4
-1.682, 4.410e-4
-1.683, 4.503e-4
-1.684, 4.595e-4
-1.685, 4.657e-4
-1.686, 4.750e-4
-1.687, 4.842e-4
-1.688, 4.935e-4
-1.689, 5.027e-4
-1.690, 5.120e-4
-1.691, 5.212e-4
-1.692, 5.305e-4
-1.693, 5.428e-4
-1.694, 5.520e-4
-1.695, 5.644e-4
-1.696, 5.736e-4
-1.697, 5.829e-4
-1.698, 5.952e-4
-1.699, 6.044e-4
-1.700, 6.168e-4
-1.701, 6.291e-4
-1.702, 6.414e-4
-1.703, 6.538e-4
-1.704, 6.661e-4
-1.705, 6.784e-4
-1.706, 6.908e-4
-1.707, 7.062e-4
-1.708, 7.185e-4
-1.709, 7.339e-4
-1.710, 7.494e-4
-1.711, 7.617e-4
-1.712, 7.740e-4
-1.713, 7.894e-4
-1.714, 8.048e-4
-1.715, 8.233e-4
-1.716, 8.388e-4
-1.717, 8.573e-4
-1.718, 8.758e-4
-1.719, 8.912e-4
-1.720, 9.097e-4
-1.721, 9.282e-4
-1.722, 9.467e-4
-1.723, 9.652e-4
-1.724, 9.837e-4
-1.725, 1.005e-3
-1.726, 1.027e-3
-1.727, 1.045e-3
-1.728, 1.070e-3
-1.729, 1.085e-3
-1.730, 1.107e-3
-1.731, 1.129e-3
-1.732, 1.153e-3
-1.733, 1.178e-3
-1.734, 1.199e-3
-1.735, 1.224e-3
-1.736, 1.249e-3
-1.737, 1.273e-3
-1.738, 1.298e-3
-1.739, 1.326e-3
-1.740, 1.351e-3
-1.741, 1.375e-3
-1.742, 1.406e-3
-1.743, 1.434e-3
-1.744, 1.465e-3
-1.745, 1.489e-3
-1.746, 1.520e-3
-1.747, 1.551e-3
-1.748, 1.585e-3
-1.749, 1.619e-3
-1.750, 1.650e-3
-1.751, 1.684e-3
-1.752, 1.714e-3
-1.753, 1.748e-3
-1.754, 1.776e-3
-1.755, 1.807e-3
-1.756, 1.841e-3
-1.757, 1.878e-3
-1.758, 1.915e-3
-1.759, 1.955e-3
-1.760, 1.995e-3
-1.761, 2.035e-3
-1.762, 2.075e-3
-1.763, 2.118e-3
-1.764, 2.155e-3
-1.765, 2.198e-3
-1.766, 2.238e-3
-1.767, 2.285e-3
-1.768, 2.328e-3
-1.769, 2.374e-3
-1.770, 2.420e-3
-1.771, 2.470e-3
-1.772, 2.519e-3
-1.773, 2.556e-3
-1.774, 2.602e-3
-1.775, 2.649e-3
-1.776, 2.692e-3
-1.777, 2.741e-3
-1.778, 2.787e-3
-1.779, 2.837e-3
-1.780, 2.886e-3
-1.781, 2.941e-3
-1.782, 2.991e-3
-1.783, 3.046e-3
-1.784, 3.096e-3
-1.785, 3.151e-3
-1.786, 3.210e-3
-1.787, 3.265e-3
-1.788, 3.327e-3
-1.789, 3.382e-3
-1.790, 3.438e-3
-1.791, 3.503e-3
-1.792, 3.567e-3
-1.793, 3.632e-3
-1.794, 3.691e-3
-1.795, 3.758e-3
-1.796, 3.823e-3
-1.797, 3.888e-3
-1.798, 3.956e-3
-1.799, 4.024e-3
-1.800, 4.091e-3
-1.801, 4.156e-3
-1.802, 4.227e-3
-1.803, 4.298e-3
-1.804, 4.366e-3
-1.805, 4.424e-3
-1.806, 4.495e-3
-1.807, 4.569e-3
-1.808, 4.643e-3
-1.809, 4.717e-3
-1.810, 4.791e-3
-1.811, 4.862e-3
-1.812, 4.936e-3
-1.813, 5.013e-3
-1.814, 5.090e-3
-1.815, 5.167e-3
-1.816, 5.245e-3
-1.817, 5.312e-3
-1.818, 5.386e-3
-1.819, 5.470e-3
-1.820, 5.550e-3
-1.821, 5.630e-3
-1.822, 5.710e-3
-1.823, 5.793e-3
-1.824, 5.880e-3
-1.825, 5.963e-3
-1.826, 6.052e-3
-1.827, 6.139e-3
-1.828, 6.216e-3
-1.829, 6.296e-3
-1.830, 6.382e-3
-1.831, 6.469e-3
-1.832, 6.555e-3
-1.833, 6.647e-3
-1.834, 6.740e-3
-1.835, 6.829e-3
-1.836, 6.922e-3
-1.837, 7.017e-3
-1.838, 7.113e-3
-1.839, 7.205e-3
-1.840, 7.307e-3
-1.841, 7.387e-3
-1.842, 7.483e-3
-1.843, 7.575e-3
-1.844, 7.671e-3
-1.845, 7.767e-3
-1.846, 7.856e-3
-1.847, 7.955e-3
-1.848, 8.041e-3
-1.849, 8.130e-3
-1.850, 8.223e-3
-1.851, 8.321e-3
-1.852, 8.399e-3
-1.853, 8.482e-3
-1.854, 8.574e-3
-1.855, 8.670e-3
-1.856, 8.765e-3
-1.857, 8.855e-3
-1.858, 8.950e-3
-1.859, 9.049e-3
-1.860, 9.148e-3
-1.861, 9.246e-3
-1.862, 9.342e-3
-1.863, 9.438e-3
-1.864, 9.521e-3
-1.865, 9.619e-3
-1.866, 9.721e-3
-1.867, 9.820e-3
-1.868, 9.915e-3
-1.869, 1.002e-2
-1.870, 1.012e-2
-1.871, 1.021e-2
-1.872, 1.031e-2
-1.873, 1.041e-2
-1.874, 1.051e-2
-1.875, 1.062e-2
-1.876, 1.072e-2
-1.877, 1.082e-2
-1.878, 1.092e-2
-1.879, 1.103e-2
-1.880, 1.113e-2
-1.881, 1.123e-2
-1.882, 1.132e-2
-1.883, 1.142e-2
-1.884, 1.153e-2
-1.885, 1.163e-2
-1.886, 1.173e-2
-1.887, 1.184e-2
-1.888, 1.195e-2
-1.889, 1.205e-2
-1.890, 1.215e-2
-1.891, 1.226e-2
-1.892, 1.234e-2
-1.893, 1.244e-2
-1.894, 1.255e-2
-1.895, 1.265e-2
-1.896, 1.275e-2
-1.897, 1.286e-2
-1.898, 1.296e-2
-1.899, 1.307e-2
-1.900, 1.312e-2
-1.899, 1.306e-2
-1.898, 1.300e-2
-1.897, 1.294e-2
-1.896, 1.286e-2
-1.895, 1.280e-2
-1.894, 1.273e-2
-1.893, 1.266e-2
-1.892, 1.259e-2
-1.891, 1.252e-2
-1.890, 1.245e-2
-1.889, 1.238e-2
-1.888, 1.230e-2
-1.887, 1.222e-2
-1.886, 1.214e-2
-1.885, 1.207e-2
-1.884, 1.199e-2
-1.883, 1.192e-2
-1.882, 1.185e-2
-1.881, 1.177e-2
-1.880, 1.169e-2
-1.879, 1.161e-2
-1.878, 1.152e-2
-1.877, 1.144e-2
-1.876, 1.137e-2
-1.875, 1.128e-2
-1.874, 1.120e-2
-1.873, 1.113e-2
-1.872, 1.105e-2
-1.871, 1.097e-2
-1.870, 1.090e-2
-1.869, 1.082e-2
-1.868, 1.074e-2
-1.867, 1.067e-2
-1.866, 1.057e-2
-1.865, 1.049e-2
-1.864, 1.041e-2
-1.863, 1.033e-2
-1.862, 1.026e-2
-1.861, 1.018e-2
-1.860, 1.011e-2
-1.859, 1.003e-2
-1.858, 9.956e-3
-1.857, 9.878e-3
-1.856, 9.801e-3
-1.855, 9.715e-3
-1.854, 9.638e-3
-1.853, 9.558e-3
-1.852, 9.481e-3
-1.851, 9.404e-3
-1.850, 9.333e-3
-1.849, 9.253e-3
-1.848, 9.179e-3
-1.847, 9.105e-3
-1.846, 9.024e-3
-1.845, 8.947e-3
-1.844, 8.861e-3
-1.843, 8.781e-3
-1.842, 8.701e-3
-1.841, 8.627e-3
-1.840, 8.550e-3
-1.839, 8.476e-3
-1.838, 8.402e-3
-1.837, 8.331e-3
-1.836, 8.257e-3
-1.835, 8.183e-3
-1.834, 8.109e-3
-1.833, 8.035e-3
-1.832, 7.961e-3
-1.831, 7.884e-3
-1.830, 7.807e-3
-1.829, 7.736e-3
-1.828, 7.668e-3
-1.827, 7.600e-3
-1.826, 7.526e-3
-1.825, 7.458e-3
-1.824, 7.390e-3
-1.823, 7.323e-3
-1.822, 7.255e-3
-1.821, 7.187e-3
-1.820, 7.113e-3
-1.819, 7.036e-3
-1.818, 6.962e-3
-1.817, 6.897e-3
-1.816, 6.829e-3
-1.815, 6.761e-3
-1.814, 6.694e-3
-1.813, 6.629e-3
-1.812, 6.564e-3
-1.811, 6.496e-3
-1.810, 6.425e-3
-1.809, 6.354e-3
-1.808, 6.290e-3
-1.807, 6.219e-3
-1.806, 6.151e-3
-1.805, 6.083e-3
-1.804, 6.015e-3
-1.803, 5.951e-3
-1.802, 5.889e-3
-1.801, 5.824e-3
-1.800, 5.759e-3
-1.799, 5.698e-3
-1.798, 5.633e-3
-1.797, 5.571e-3
-1.796, 5.510e-3
-1.795, 5.448e-3
-1.794, 5.386e-3
-1.793, 5.319e-3
-1.792, 5.254e-3
-1.791, 5.186e-3
-1.790, 5.127e-3
-1.789, 5.069e-3
-1.788, 5.013e-3
-1.787, 4.952e-3
-1.786, 4.893e-3
-1.785, 4.834e-3
-1.784, 4.776e-3
-1.783, 4.720e-3
-1.782, 4.668e-3
-1.781, 4.612e-3
-1.780, 4.554e-3
-1.779, 4.498e-3
-1.778, 4.434e-3
-1.777, 4.378e-3
-1.776, 4.329e-3
-1.775, 4.273e-3
-1.774, 4.218e-3
-1.773, 4.165e-3
-1.772, 4.113e-3
-1.771, 4.061e-3
-1.770, 4.011e-3
-1.769, 3.956e-3
-1.768, 3.910e-3
-1.767, 3.857e-3
-1.766, 3.811e-3
-1.765, 3.755e-3
-1.764, 3.706e-3
-1.763, 3.654e-3
-1.762, 3.604e-3
-1.761, 3.555e-3
-1.760, 3.509e-3
-1.759, 3.459e-3
-1.758, 3.410e-3
-1.757, 3.364e-3
-1.756, 3.318e-3
-1.755, 3.274e-3
-1.754, 3.231e-3
-1.753, 3.182e-3
-1.752, 3.139e-3
-1.751, 3.093e-3
-1.750, 3.049e-3
-1.749, 3.003e-3
-1.748, 2.957e-3
-1.747, 2.914e-3
-1.746, 2.871e-3
-1.745, 2.827e-3
-1.744, 2.781e-3
-1.743, 2.738e-3
-1.742, 2.698e-3
-1.741, 2.661e-3
-1.740, 2.618e-3
-1.739, 2.575e-3
-1.738, 2.538e-3
-1.737, 2.497e-3
-1.736, 2.460e-3
-1.735, 2.420e-3
-1.734, 2.383e-3
-1.733, 2.349e-3
-1.732, 2.309e-3
-1.731, 2.272e-3
-1.730, 2.238e-3
-1.729, 2.198e-3
-1.728, 2.164e-3
-1.727, 2.128e-3
-1.726, 2.094e-3
-1.725, 2.060e-3
-1.724, 2.026e-3
-1.723, 1.989e-3
-1.722, 1.955e-3
-1.721, 1.921e-3
-1.720, 1.887e-3
-1.719, 1.856e-3
-1.718, 1.825e-3
-1.717, 1.795e-3
-1.716, 1.764e-3
-1.715, 1.733e-3
-1.714, 1.702e-3
-1.713, 1.674e-3
-1.712, 1.643e-3
-1.711, 1.616e-3
-1.710, 1.588e-3
-1.709, 1.560e-3
-1.708, 1.532e-3
-1.707, 1.505e-3
-1.706, 1.477e-3
-1.705, 1.449e-3
-1.704, 1.425e-3
-1.703, 1.400e-3
-1.702, 1.375e-3
-1.701, 1.351e-3
-1.700, 1.326e-3
-1.699, 1.301e-3
-1.698, 1.277e-3
-1.697, 1.252e-3
-1.696, 1.230e-3
-1.695, 1.206e-3
-1.694, 1.184e-3
-1.693, 1.162e-3
-1.692, 1.141e-3
-1.691, 1.119e-3
-1.690, 1.098e-3
-1.689, 1.079e-3
-1.688, 1.058e-3
-1.687, 1.039e-3
-1.686, 1.021e-3
-1.685, 1.002e-3
-1.684, 9.806e-4
-1.683, 9.621e-4
-1.682, 9.436e-4
-1.681, 9.251e-4
-1.680, 9.097e-4
-1.679, 8.912e-4
-1.678, 8.727e-4
-1.677, 8.573e-4
-1.676, 8.388e-4
-1.675, 8.233e-4
-1.674, 8.079e-4
-1.673, 7.925e-4
-1.672, 7.740e-4
-1.671, 7.586e-4
-1.670, 7.463e-4
-1.669, 7.309e-4
-1.668, 7.154e-4
-1.667, 7.031e-4
-1.666, 6.908e-4
-1.665, 6.723e-4
-1.664, 6.599e-4
-1.663, 6.476e-4
-1.662, 6.322e-4
-1.661, 6.199e-4
-1.660, 6.075e-4
-1.659, 5.952e-4
-1.658, 5.859e-4
-1.657, 5.736e-4
-1.656, 5.613e-4
-1.655, 5.520e-4
-1.654, 5.397e-4
-1.653, 5.274e-4
-1.652, 5.181e-4
-1.651, 5.058e-4
-1.650, 4.965e-4
-1.649, 4.842e-4
-1.648, 4.780e-4
-1.647, 4.657e-4
-1.646, 4.565e-4
-1.645, 4.472e-4
-1.644, 4.380e-4
-1.643, 4.318e-4
-1.642, 4.225e-4
-1.641, 4.133e-4
-1.640, 4.071e-4
-1.639, 3.979e-4
-1.638, 3.886e-4
-1.637, 3.825e-4
-1.636, 3.732e-4
-1.635, 3.640e-4
-1.634, 3.578e-4
-1.633, 3.516e-4
-1.632, 3.455e-4
-1.631, 3.362e-4
-1.630, 3.300e-4
-1.629, 3.239e-4
-1.628, 3.177e-4
-1.627, 3.085e-4
-1.626, 3.054e-4
-1.625, 2.961e-4
-1.624, 2.931e-4
-1.623, 2.838e-4
-1.622, 2.807e-4
-1.621, 2.746e-4
-1.620, 2.684e-4
-1.619, 2.622e-4
-1.618, 2.591e-4
-1.617, 2.530e-4
-1.616, 2.468e-4
-1.615, 2.437e-4
-1.614, 2.376e-4
-1.613, 2.345e-4
-1.612, 2.283e-4
-1.611, 2.252e-4
-1.610, 2.191e-4
-1.609, 2.160e-4
-1.608, 2.129e-4
-1.607, 2.067e-4
-1.606, 2.036e-4
-1.605, 2.006e-4
-1.604, 1.944e-4
-1.603, 1.913e-4
-1.602, 1.882e-4
-1.601, 1.851e-4
-1.600, 1.790e-4
-1.599, 1.790e-4
-1.598, 1.728e-4
-1.597, 1.697e-4
-1.596, 1.666e-4
-1.595, 1.636e-4
-1.594, 1.605e-4
-1.593, 1.574e-4
-1.592, 1.543e-4
-1.591, 1.512e-4
-1.590, 1.481e-4
-1.589, 1.451e-4
-1.588, 1.420e-4
-1.587, 1.420e-4
-1.586, 1.358e-4
-1.585, 1.358e-4
-1.584, 1.327e-4
-1.583, 1.296e-4
-1.582, 1.266e-4
-1.581, 1.235e-4
-1.580, 1.235e-4
-1.579, 1.204e-4
-1.578, 1.173e-4
-1.577, 1.142e-4
-1.576, 1.142e-4
-1.575, 1.111e-4
-1.574, 1.111e-4
-1.573, 1.081e-4
-1.572, 1.050e-4
-1.571, 1.019e-4
-1.570, 1.019e-4
-1.569, 9.882e-5
-1.568, 9.882e-5
-1.567, 9.573e-5
-1.566, 9.573e-5
-1.565, 9.265e-5
-1.564, 9.265e-5
-1.563, 8.957e-5
-1.562, 8.648e-5
-1.561, 8.648e-5
-1.560, 8.340e-5
-1.559, 8.340e-5
-1.558, 8.032e-5
-1.557, 8.032e-5
-1.556, 7.723e-5
-1.555, 7.723e-5
-1.554, 7.415e-5
-1.553, 7.415e-5
-1.552, 7.415e-5
-1.551, 7.107e-5
-1.550, 7.107e-5
-1.549, 6.798e-5
-1.548, 6.798e-5
-1.547, 6.798e-5
-1.546, 6.490e-5
-1.545, 6.490e-5
-1.544, 6.182e-5
-1.543, 6.182e-5
-1.542, 6.182e-5
-1.541, 5.873e-5
-1.540, 5.873e-5
-1.539, 5.873e-5
-1.538, 5.565e-5
-1.537, 5.565e-5
-1.536, 5.565e-5
-1.535, 5.565e-5
-1.534, 5.257e-5
-1.533, 5.257e-5
-1.532, 4.949e-5
-1.531, 4.949e-5
-1.530, 4.640e-5
-1.529, 4.640e-5
-1.528, 4.640e-5
-1.527, 4.640e-5
-1.526, 4.332e-5
-1.525, 4.332e-5
-1.524, 4.332e-5
-1.523, 4.332e-5
-1.522, 4.024e-5
-1.521, 4.024e-5
-1.520, 4.024e-5
-1.519, 3.715e-5
-1.518, 3.715e-5
-1.517, 3.715e-5
-1.516, 3.715e-5
-1.515, 3.715e-5
-1.514, 3.407e-5
-1.513, 3.407e-5
-1.512, 3.407e-5
-1.511, 3.407e-5
-1.510, 3.407e-5
-1.509, 3.099e-5
-1.508, 3.099e-5
-1.507, 3.099e-5
-1.506, 3.099e-5
-1.505, 3.099e-5
-1.504, 2.790e-5
-1.503, 2.790e-5
-1.502, 2.790e-5
-1.501, 2.790e-5
-1.500, 2.482e-5
-1.499, 2.482e-5
-1.498, 2.482e-5
-1.497, 2.482e-5
-1.496, 2.482e-5
-1.495, 2.174e-5
-1.494, 2.174e-5
-1.493, 2.174e-5
-1.492, 2.174e-5
-1.491, 2.174e-5
-1.490, 2.174e-5
-1.489, 2.174e-5
-1.488, 1.865e-5
-1.487, 1.865e-5
-1.486, 1.865e-5
-1.485, 1.865e-5
-1.484, 1.865e-5
-1.483, 1.865e-5
-1.482, 1.865e-5
-1.481, 1.557e-5
-1.480, 1.557e-5
-1.479, 1.557e-5
-1.478, 1.557e-5
-1.477, 1.557e-5
-1.476, 1.557e-5
-1.475, 1.557e-5
-1.474, 1.249e-5
-1.473, 1.249e-5
-1.472, 1.249e-5
-1.471, 1.249e-5
-1.470, 1.249e-5
-1.469, 1.249e-5
-1.468, 1.249e-5
-1.467, 9.405e-6
-1.466, 1.249e-5
-1.465, 9.405e-6
-1.464, 1.249e-5
-1.463, 9.405e-6
-1.462, 9.405e-6
-1.461, 9.405e-6
-1.460, 9.405e-6
-1.459, 9.405e-6
-1.458, 9.405e-6
-1.457, 6.322e-6
-1.456, 6.322e-6
-1.455, 6.322e-6
-1.454, 6.322e-6
-1.453, 6.322e-6
-1.452, 6.322e-6
-1.451, 6.322e-6
-1.450, 6.322e-6
-1.449, 6.322e-6
-1.448, 6.322e-6
-1.447, 6.322e-6
-1.446, 3.239e-6
-1.445, 6.322e-6
-1.444, 3.239e-6
-1.443, 3.239e-6
-1.442, 3.239e-6
-1.441, 3.239e-6
-1.440, 3.239e-6
-1.439, 3.239e-6
-1.438, 3.239e-6
-1.437, 3.239e-6
-1.436, 3.239e-6
-1.435, 1.559e-7
-1.434, 3.239e-6
-1.433, 1.559e-7
-1.432, 1.559e-7
-1.431, 1.559e-7
-1.430, 1.559e-7
-1.429, 1.559e-7
-1.428, 1.559e-7
-1.427, 1.559e-7
-1.426, -2.927e-6
-1.425, 1.559e-7
-1.424, 1.559e-7
-1.423, 1.559e-7
-1.422, 1.559e-7
-1.421, 1.559e-7
-1.420, -2.927e-6
-1.419, -2.927e-6
-1.418, -2.927e-6
-1.417, -2.927e-6
-1.416, -2.927e-6
-1.415, -2.927e-6
-1.414, -2.927e-6
-1.413, -2.927e-6
-1.412, -2.927e-6
-1.411, -2.927e-6
-1.410, -2.927e-6
-1.409, -2.927e-6
-1.408, -2.927e-6
-1.407, -2.927e-6
-1.406, -2.927e-6
-1.405, -2.927e-6
-1.404, -2.927e-6
-1.403, -2.927e-6
-1.402, -2.927e-6
-1.401, -2.927e-6
-1.400, -2.927e-6
-1.399, -2.927e-6
-1.398, -6.010e-6
-1.397, -6.010e-6
-1.396, -6.010e-6
-1.395, -6.010e-6
-1.394, -6.010e-6
-1.393, -6.010e-6
-1.392, -6.010e-6
-1.391, -6.010e-6
-1.390, -6.010e-6
-1.389, -6.010e-6
-1.388, -6.010e-6
-1.387, -6.010e-6
-1.386, -6.010e-6
-1.385, -6.010e-6
-1.384, -6.010e-6
-1.383, -6.010e-6
-1.382, -6.010e-6
-1.381, -6.010e-6
-1.380, -6.010e-6
-1.379, -9.093e-6
-1.378, -6.010e-6
-1.377, -6.010e-6
-1.376, -9.093e-6
-1.375, -9.093e-6
-1.374, -9.093e-6
-1.373, -9.093e-6
-1.372, -9.093e-6
-1.371, -9.093e-6
-1.370, -9.093e-6
-1.369, -9.093e-6
-1.368, -9.093e-6
-1.367, -9.093e-6
-1.366, -9.093e-6
-1.365, -9.093e-6
-1.364, -9.093e-6
-1.363, -9.093e-6
-1.362, -9.093e-6
-1.361, -9.093e-6
-1.360, -9.093e-6
-1.359, -9.093e-6
-1.358, -9.093e-6
-1.357, -9.093e-6
-1.356, -9.093e-6
-1.355, -9.093e-6
-1.354, -9.093e-6
-1.353, -9.093e-6
-1.352, -9.093e-6
-1.351, -9.093e-6
-1.350, -9.093e-6
-1.349, -9.093e-6
-1.348, -9.093e-6
-1.347, -9.093e-6
-1.346, -9.093e-6
-1.345, -9.093e-6
-1.344, -9.093e-6
-1.343, -9.093e-6
-1.342, -1.218e-5
-1.341, -9.093e-6
-1.340, -9.093e-6
-1.339, -9.093e-6
-1.338, -1.218e-5
-1.337, -9.093e-6
-1.336, -9.093e-6
-1.335, -1.218e-5
-1.334, -1.218e-5
-1.333, -9.093e-6
-1.332, -9.093e-6
-1.331, -1.218e-5
-1.330, -1.218e-5
-1.329, -1.218e-5
-1.328, -1.218e-5
-1.327, -9.093e-6
-1.326, -1.218e-5
-1.325, -1.218e-5
-1.324, -1.218e-5
-1.323, -1.218e-5
-1.322, -9.093e-6
-1.321, -1.218e-5
-1.320, -1.218e-5
-1.319, -1.218e-5
-1.318, -1.218e-5
-1.317, -1.218e-5
-1.316, -9.093e-6
-1.315, -1.218e-5
-1.314, -1.218e-5
-1.313, -1.218e-5
-1.312, -1.218e-5
-1.311, -1.218e-5
-1.310, -1.218e-5
-1.309, -1.218e-5
-1.308, -1.218e-5
-1.307, -1.218e-5
-1.306, -9.093e-6
-1.305, -1.218e-5
-1.304, -1.218e-5
-1.303, -1.218e-5
-1.302, -1.218e-5
-1.301, -1.218e-5
-1.300, -1.218e-5
-1.299, -1.218e-5
-1.298, -1.218e-5
-1.297, -1.218e-5
-1.296, -1.218e-5
-1.295, -1.218e-5
-1.294, -1.218e-5
-1.293, -1.218e-5
-1.292, -1.218e-5
-1.291, -1.218e-5
-1.290, -1.218e-5
-1.289, -1.218e-5
-1.288, -1.218e-5
-1.287, -1.218e-5
-1.286, -1.218e-5
-1.285, -1.218e-5
-1.284, -1.218e-5
-1.283, -1.218e-5
-1.282, -1.218e-5
-1.281, -1.218e-5
-1.280, -1.218e-5
-1.279, -1.218e-5
-1.278, -1.218e-5
-1.277, -1.218e-5
-1.276, -1.218e-5
-1.275, -1.218e-5
-1.274, -1.218e-5
-1.273, -1.218e-5
-1.272, -1.218e-5
-1.271, -1.218e-5
-1.270, -1.218e-5
-1.269, -1.218e-5
-1.268, -1.218e-5
-1.267, -1.218e-5
-1.266, -1.218e-5
-1.265, -1.218e-5
-1.264, -1.218e-5
-1.263, -1.218e-5
-1.262, -1.218e-5
-1.261, -1.218e-5
-1.260, -1.218e-5
-1.259, -1.218e-5
-1.258, -1.218e-5
-1.257, -1.218e-5
-1.256, -1.526e-5
-1.255, -1.218e-5
-1.254, -1.526e-5
-1.253, -1.218e-5
-1.252, -1.218e-5
-1.251, -1.218e-5
-1.250, -1.218e-5
-1.249, -1.218e-5
-1.248, -1.218e-5
-1.247, -1.218e-5
-1.246, -1.218e-5
-1.245, -1.218e-5
-1.244, -1.218e-5
-1.243, -1.218e-5
-1.242, -1.218e-5
-1.241, -1.218e-5
-1.240, -1.218e-5
-1.239, -1.218e-5
-1.238, -1.218e-5
-1.237, -1.218e-5
-1.236, -1.218e-5
-1.235, -1.526e-5
-1.234, -1.218e-5
-1.233, -1.218e-5
-1.232, -1.218e-5
-1.231, -1.526e-5
-1.230, -1.526e-5
-1.229, -1.218e-5
-1.228, -1.218e-5
-1.227, -1.218e-5
-1.226, -1.526e-5
-1.225, -1.218e-5
-1.224, -1.526e-5
-1.223, -1.218e-5
-1.222, -1.218e-5
-1.221, -1.218e-5
-1.220, -1.218e-5
-1.219, -1.526e-5
-1.218, -1.218e-5
-1.217, -1.218e-5
-1.216, -1.526e-5
-1.215, -1.526e-5
-1.214, -1.526e-5
-1.213, -1.218e-5
-1.212, -1.218e-5
-1.211, -1.218e-5
-1.210, -1.526e-5
-1.209, -1.218e-5
-1.208, -1.218e-5
-1.207, -1.526e-5
-1.206, -1.218e-5
-1.205, -1.526e-5
-1.204, -1.218e-5
-1.203, -1.218e-5
-1.202, -1.526e-5
-1.201, -1.526e-5
-1.200, -1.218e-5
-1.199, -1.526e-5
-1.198, -1.526e-5
-1.197, -1.526e-5
-1.196, -1.526e-5
-1.195, -1.526e-5
-1.194, -1.526e-5
-1.193, -1.526e-5
-1.192, -1.218e-5
-1.191, -1.526e-5
-1.190, -1.526e-5
-1.189, -1.526e-5
-1.188, -1.218e-5
-1.187, -1.526e-5
-1.186, -1.526e-5
-1.185, -1.526e-5
-1.184, -1.526e-5
-1.183, -1.526e-5
-1.182, -1.526e-5
-1.181, -1.526e-5
-1.180, -1.526e-5
-1.179, -1.526e-5
-1.178, -1.526e-5
-1.177, -1.526e-5
-1.176, -1.526e-5
-1.175, -1.526e-5
-1.174, -1.526e-5
-1.173, -1.526e-5
-1.172, -1.526e-5
-1.171, -1.526e-5
-1.170, -1.526e-5
-1.169, -1.526e-5
-1.168, -1.526e-5
-1.167, -1.218e-5
-1.166, -1.526e-5
-1.165, -1.526e-5
-1.164, -1.526e-5
-1.163, -1.526e-5
-1.162, -1.526e-5
-1.161, -1.526e-5
-1.160, -1.526e-5
-1.159, -1.526e-5
-1.158, -1.526e-5
-1.157, -1.526e-5
-1.156, -1.526e-5
-1.155, -1.526e-5
-1.154, -1.526e-5
-1.153, -1.526e-5
-1.152, -1.526e-5
-1.151, -1.526e-5
-1.150, -1.526e-5
-1.149, -1.526e-5
-1.148, -1.526e-5
-1.147, -1.526e-5
-1.146, -1.526e-5
-1.145, -1.526e-5
-1.144, -1.526e-5
-1.143, -1.526e-5
-1.142, -1.526e-5
-1.141, -1.526e-5
-1.140, -1.526e-5
-1.139, -1.526e-5
-1.138, -1.526e-5
-1.137, -1.526e-5
-1.136, -1.526e-5
-1.135, -1.526e-5
-1.134, -1.526e-5
-1.133, -1.526e-5
-1.132, -1.526e-5
-1.131, -1.526e-5
-1.130, -1.526e-5
-1.129, -1.526e-5
-1.128, -1.526e-5
-1.127, -1.526e-5
-1.126, -1.526e-5
-1.125, -1.526e-5
-1.124, -1.526e-5
-1.123, -1.526e-5
-1.122, -1.526e-5
-1.121, -1.526e-5
-1.120, -1.526e-5
-1.119, -1.526e-5
-1.118, -1.526e-5
-1.117, -1.526e-5
-1.116, -1.526e-5
-1.115, -1.526e-5
-1.114, -1.526e-5
-1.113, -1.526e-5
-1.112, -1.834e-5
-1.111, -1.526e-5
-1.110, -1.526e-5
-1.109, -1.526e-5
-1.108, -1.526e-5
-1.107, -1.526e-5
-1.106, -1.526e-5
-1.105, -1.526e-5
-1.104, -1.526e-5
-1.103, -1.834e-5
-1.102, -1.526e-5
-1.101, -1.526e-5
-1.100, -1.526e-5
-1.099, -1.834e-5
-1.098, -1.526e-5
-1.097, -1.526e-5
-1.096, -1.526e-5
-1.095, -1.526e-5
-1.094, -1.526e-5
-1.093, -1.526e-5
-1.092, -1.834e-5
-1.091, -1.834e-5
-1.090, -1.526e-5
-1.089, -1.834e-5
-1.088, -1.834e-5
-1.087, -1.526e-5
-1.086, -1.526e-5
-1.085, -1.834e-5
-1.084, -1.834e-5
-1.083, -1.526e-5
-1.082, -1.834e-5
-1.081, -1.834e-5
-1.080, -1.834e-5
-1.079, -1.834e-5
-1.078, -1.834e-5
-1.077, -1.834e-5
-1.076, -1.834e-5
-1.075, -1.834e-5
-1.074, -1.834e-5
-1.073, -1.834e-5
-1.072, -1.834e-5
-1.071, -1.834e-5
-1.070, -1.834e-5
-1.069, -1.834e-5
-1.068, -1.834e-5
-1.067, -1.834e-5
-1.066, -1.834e-5
-1.065, -1.834e-5
-1.064, -1.834e-5
-1.063, -1.834e-5
-1.062, -1.834e-5
-1.061, -1.834e-5
-1.060, -1.834e-5
-1.059, -1.834e-5
-1.058, -1.834e-5
-1.057, -1.834e-5
-1.056, -1.834e-5
-1.055, -1.834e-5
-1.054, -1.834e-5
-1.053, -1.834e-5
-1.052, -1.834e-5
-1.051, -1.834e-5
-1.050, -1.834e-5
-1.049, -1.834e-5
-1.048, -1.834e-5
-1.047, -1.834e-5
-1.046, -1.834e-5
-1.045, -1.834e-5
-1.044, -1.834e-5
-1.043, -1.834e-5
-1.042, -1.834e-5
-1.041, -1.834e-5
-1.040, -1.834e-5
-1.039, -1.834e-5
-1.038, -1.834e-5
-1.037, -1.834e-5
-1.036, -1.834e-5
-1.035, -1.834e-5
-1.034, -2.143e-5
-1.033, -1.834e-5
-1.032, -1.834e-5
-1.031, -2.143e-5
-1.030, -1.834e-5
-1.029, -2.143e-5
-1.028, -1.834e-5
-1.027, -2.143e-5
-1.026, -1.834e-5
-1.025, -1.834e-5
-1.024, -2.143e-5
-1.023, -2.143e-5
-1.022, -2.143e-5
-1.021, -2.143e-5
-1.020, -2.143e-5
-1.019, -2.143e-5
-1.018, -2.143e-5
-1.017, -2.143e-5
-1.016, -2.143e-5
-1.015, -2.143e-5
-1.014, -2.143e-5
-1.013, -2.143e-5
-1.012, -2.143e-5
-1.011, -2.143e-5
-1.010, -2.143e-5
-1.009, -2.143e-5
-1.008, -2.143e-5
-1.007, -2.143e-5
-1.006, -2.143e-5
-1.005, -2.143e-5
-1.004, -2.143e-5
-1.003, -2.143e-5
-1.002, -2.143e-5
-1.001, -2.451e-5
