Potential V vs RHE, Current mA cm-2
0.05339999999999995,-0.024785741973635443
0.05239999999999995,-0.025691157205549067
0.051399999999999946,-0.02621460038649913
0.050399999999999945,-0.026639013776458643
0.049399999999999944,-0.0269643973754276
0.04839999999999994,-0.027289780974396556
0.04739999999999994,-0.027601017460366868
0.04639999999999994,-0.027926401059335824
0.04539999999999994,-0.028280078884302083
0.04439999999999994,-0.028591315370272388
0.04339999999999994,-0.028874257630245398
0.04239999999999994,-0.029171347003217055
0.04139999999999994,-0.02949673060218601
0.040399999999999936,-0.029836261314153626
0.039399999999999935,-0.030133350687125283
0.038399999999999934,-0.030416292947098293
0.03739999999999993,-0.030713382320069947
0.03639999999999993,-0.031010471693041605
0.03539999999999993,-0.03133585529201056
0.03439999999999993,-0.03161879755198357
0.03339999999999993,-0.031887592698957926
0.03239999999999993,-0.032184682071929586
0.03139999999999993,-0.03249591855789989
0.030399999999999927,-0.0328354492698675
0.029399999999999926,-0.033146685755837804
0.028399999999999925,-0.03344377512880947
0.027399999999999924,-0.03376915872777843
0.026399999999999924,-0.034094542326747385
0.025399999999999923,-0.03443407303871499
0.024399999999999922,-0.034731162411686646
0.02339999999999992,-0.035028251784658314
0.02239999999999992,-0.03532534115762996
0.02139999999999992,-0.035664871869597575
0.020399999999999918,-0.036018549694563834
0.019399999999999917,-0.03634393329353279
0.018399999999999916,-0.03669761111849905
0.017399999999999916,-0.03700884760446936
0.016399999999999915,-0.03736252542943562
0.015399999999999914,-0.03771620325440188
0.014399999999999913,-0.038055733966369486
0.013399999999999912,-0.03838111756533845
0.012399999999999911,-0.038706501164307405
0.01139999999999991,-0.039074326102272315
0.01039999999999991,-0.039442151040237225
0.009399999999999908,-0.039795828865203484
0.008399999999999908,-0.04012121246417244
0.007399999999999907,-0.04046074317614005
0.006399999999999906,-0.04084271522710361
0.005399999999999905,-0.04121054016506852
0.004399999999999904,-0.04159251221603208
0.003399999999999903,-0.04193204292799969
0.002399999999999902,-0.042271573639967294
0.0013999999999999013,-0.042639398577932204
0.00039999999999990044,-0.04304966485489307
-0.0006000000000001005,-0.043403342679859326
-0.0016000000000001013,-0.043771167617824236
-0.0026000000000001022,-0.044138992555789146
-0.003600000000000103,-0.04453511171975136
-0.004600000000000104,-0.044959525109710866
-0.005600000000000105,-0.045327350047675775
-0.006600000000000106,-0.045695174985640685
-0.007600000000000107,-0.046077147036604246
-0.008600000000000108,-0.04647326620056645
-0.009600000000000108,-0.046869385364528664
-0.01060000000000011,-0.047265504528490876
-0.01160000000000011,-0.04766162369245308
-0.012600000000000111,-0.048086037082412596
-0.013600000000000112,-0.04848215624637481
-0.014600000000000113,-0.04890656963633432
-0.015600000000000114,-0.04931683591329518
-0.016600000000000115,-0.04969880796425874
-0.017600000000000116,-0.050094927128220945
-0.018600000000000116,-0.05051934051818046
-0.019600000000000117,-0.05095790102113862
-0.020600000000000118,-0.05136816729809948
-0.02160000000000012,-0.05180672780105764
-0.02260000000000012,-0.0522169940780185
-0.02360000000000012,-0.05264140746797802
-0.024600000000000122,-0.05309411508393482
-0.025600000000000123,-0.053518528473894336
-0.026600000000000124,-0.05394294186385385
-0.027600000000000124,-0.05438150236681201
-0.028600000000000125,-0.054820062869770175
-0.029600000000000126,-0.055272770485726985
-0.030600000000000127,-0.05569718387568649
-0.03160000000000013,-0.05613574437864466
-0.03260000000000013,-0.056560157768604166
-0.03360000000000013,-0.05702701249755963
-0.03460000000000002,-0.057479720113516444
-0.03560000000000002,-0.0579182806164746
-0.03660000000000002,-0.05835684111943277
-0.03760000000000002,-0.05879540162239092
-0.03860000000000002,-0.059248109238347745
-0.039600000000000024,-0.05970081685430455
-0.040600000000000025,-0.06015352447026136
-0.041600000000000026,-0.06059208497321952
-0.04260000000000003,-0.061058939702174984
-0.04360000000000003,-0.06152579443113045
-0.04460000000000003,-0.062006796273084565
-0.04560000000000003,-0.06247365100204002
-0.04660000000000003,-0.06292635861799684
-0.04760000000000003,-0.06339321334695229
-0.04860000000000003,-0.06388836230190505
-0.04960000000000003,-0.06438351125685782
-0.050600000000000034,-0.06489280732480923
-0.051600000000000035,-0.06534551494076604
-0.052600000000000036,-0.06579822255672285
-0.053600000000000037,-0.06632166573767292
-0.05460000000000004,-0.0668168146926257
-0.05560000000000004,-0.06728366942158114
-0.05660000000000004,-0.0677505241505366
-0.05760000000000004,-0.06824567310548936
-0.05860000000000004,-0.06874082206044213
-0.05960000000000004,-0.06923597101539489
-0.06060000000000004,-0.06970282574435036
-0.061600000000000044,-0.07018382758630445
-0.06260000000000004,-0.07066482942825858
-0.06360000000000005,-0.07118827260920865
-0.06460000000000005,-0.0717117157901587
-0.06560000000000005,-0.07219271763211282
-0.06660000000000005,-0.07267371947406694
-0.06760000000000005,-0.07316886842901969
-0.06860000000000005,-0.07366401738397246
-0.06960000000000005,-0.07420160767792117
-0.07060000000000005,-0.07469675663287394
-0.07160000000000005,-0.07516361136182939
-0.07260000000000005,-0.07567290742978082
-0.07360000000000005,-0.07616805638473358
-0.07460000000000006,-0.07667735245268498
-0.07560000000000006,-0.07717250140763775
-0.07660000000000006,-0.0776676503625905
-0.07760000000000006,-0.07817694643054193
-0.07860000000000006,-0.07868624249849335
-0.07960000000000006,-0.0792096856794434
-0.08060000000000006,-0.07970483463439616
-0.08160000000000006,-0.08018583647635028
-0.08260000000000006,-0.08068098543130305
-0.08360000000000006,-0.08119028149925445
-0.08460000000000006,-0.08171372468020452
-0.08560000000000006,-0.08220887363515728
-0.08660000000000007,-0.08270402259011005
-0.08760000000000007,-0.08318502443206416
-0.08860000000000007,-0.08365187916101963
-0.08960000000000007,-0.08414702811597238
-0.09060000000000007,-0.08464217707092515
-0.09160000000000007,-0.08512317891287925
-0.09260000000000007,-0.08560418075483338
-0.09360000000000007,-0.08611347682278478
-0.09460000000000007,-0.0866510671167335
-0.09560000000000007,-0.08711792184568896
-0.09660000000000007,-0.08755648234864712
-0.09760000000000008,-0.08802333707760258
-0.09860000000000008,-0.0885043389195567
-0.09960000000000008,-0.08899948787450947
-0.10060000000000008,-0.08946634260346491
-0.10160000000000008,-0.08997563867141634
-0.10260000000000008,-0.09044249340037179
-0.10360000000000008,-0.09090934812932726
-0.10460000000000008,-0.09141864419727867
-0.10560000000000008,-0.09188549892623413
-0.10660000000000008,-0.09233820654219095
-0.10760000000000008,-0.09279091415814776
-0.10860000000000009,-0.09327191600010187
-0.10960000000000009,-0.09378121206805329
-0.11060000000000009,-0.09423391968401008
-0.11160000000000009,-0.09467248018696825
-0.11260000000000009,-0.09512518780292507
-0.11360000000000009,-0.09556374830588323
-0.11460000000000009,-0.0960871914868333
-0.11560000000000009,-0.09653989910279011
-0.11660000000000009,-0.09696431249274962
-0.1176000000000001,-0.09738872588270912
-0.1186000000000001,-0.09782728638566728
-0.1196000000000001,-0.09827999400162409
-0.1206000000000001,-0.09871855450458226
-0.1216000000000001,-0.09912882078154311
-0.1226000000000001,-0.09953908705850398
-0.1236000000000001,-0.09996350044846349
-0.1246000000000001,-0.10041620806442031
-0.1256000000000001,-0.10082647434138116
-0.1266000000000001,-0.10122259350534336
-0.1276000000000001,-0.10161871266930558
-0.1286000000000001,-0.10205727317226375
-0.1296000000000001,-0.10246753944922461
-0.1306000000000001,-0.10284951150018817
-0.1316000000000001,-0.10321733643815308
-0.1326000000000001,-0.10359930848911664
-0.1336000000000001,-0.1039812805400802
-0.1346000000000001,-0.10439154681704105
-0.1356000000000001,-0.10475937175500598
-0.1366000000000001,-0.10512719669297087
-0.1376000000000001,-0.10548087451793714
-0.1386000000000001,-0.1058628465689007
-0.1396000000000001,-0.10625896573286289
-0.1406000000000001,-0.10661264355782916
-0.14160000000000011,-0.10695217426979677
-0.14260000000000012,-0.10729170498176437
-0.14360000000000012,-0.10764538280673064
-0.14460000000000012,-0.10801320774469556
-0.14560000000000012,-0.10833859134366451
-0.14660000000000012,-0.10866397494263345
-0.14760000000000012,-0.10900350565460108
-0.14860000000000012,-0.10932888925357002
-0.14960000000000012,-0.1096825670785363
-0.15060000000000012,-0.10995136222551065
-0.15160000000000012,-0.11026259871148097
-0.15260000000000012,-0.11057383519745125
-0.15360000000000013,-0.11088507168342157
-0.15460000000000013,-0.11119630816939187
-0.15560000000000013,-0.11149339754236354
-0.15660000000000013,-0.11174804557633926
-0.15760000000000013,-0.11203098783631225
-0.15860000000000013,-0.11231393009628526
-0.15960000000000002,-0.11261101946925692
-0.16060000000000002,-0.11289396172922993
-0.16160000000000002,-0.11313446265020698
-0.16260000000000002,-0.11337496357118404
-0.16360000000000002,-0.1136437587181584
-0.16460000000000002,-0.11391255386513276
-0.16560000000000002,-0.11419549612510577
-0.16660000000000003,-0.11443599704608282
-0.16760000000000003,-0.11464820374106259
-0.16860000000000003,-0.11488870466203964
-0.16960000000000003,-0.11512920558301669
-0.17060000000000003,-0.11534141227799644
-0.17160000000000003,-0.11556776608597484
-0.17260000000000003,-0.11576582566795594
-0.17360000000000003,-0.11600632658893299
-0.17460000000000003,-0.11624682750991006
-0.17560000000000003,-0.11644488709189117
-0.17660000000000003,-0.11662879956087362
-0.17760000000000004,-0.11681271202985609
-0.17860000000000004,-0.11701077161183718
-0.17960000000000004,-0.11720883119381828
-0.18060000000000004,-0.11740689077579938
-0.18160000000000004,-0.11756250901878454
-0.18260000000000004,-0.11773227437476834
-0.18360000000000004,-0.11788789261775351
-0.18460000000000004,-0.11805765797373731
-0.18560000000000004,-0.11821327621672245
-0.18660000000000004,-0.11832645312071166
-0.18760000000000004,-0.11849621847669549
-0.18860000000000005,-0.11862354249368333
-0.18960000000000005,-0.11879330784966712
-0.19060000000000005,-0.118920631866655
-0.19160000000000005,-0.11904795588364282
-0.19260000000000005,-0.11917527990063068
-0.19360000000000005,-0.11928845680461989
-0.19460000000000005,-0.11945822216060371
-0.19560000000000005,-0.1195713990645929
-0.19660000000000005,-0.1196562817425848
-0.19760000000000005,-0.11976945864657401
-0.19860000000000005,-0.11988263555056322
-0.19960000000000006,-0.12000995956755106
-0.20060000000000006,-0.12010898935854163
-0.20160000000000006,-0.1201938720365335
-0.20260000000000006,-0.1202787547145254
-0.20360000000000006,-0.12037778450551596
-0.20460000000000006,-0.12050510852250383
-0.20560000000000006,-0.12058999120049572
-0.20660000000000006,-0.12064657965249034
-0.20760000000000006,-0.12070316810448493
-0.20860000000000006,-0.12080219789547549
-0.20960000000000006,-0.12088708057346739
-0.21060000000000006,-0.12097196325145929
-0.21160000000000007,-0.12101440459045523
-0.21260000000000007,-0.12107099304244984
-0.21360000000000007,-0.12114172860744309
-0.21460000000000007,-0.12121246417243635
-0.21560000000000007,-0.1212549055114323
-0.21660000000000007,-0.12132564107642556
-0.21760000000000007,-0.12138222952842014
-0.21860000000000007,-0.12142467086741611
-0.21960000000000007,-0.12149540643240934
-0.22060000000000007,-0.12153784777140529
-0.22160000000000007,-0.12156614199740261
-0.22260000000000008,-0.12159443622339991
-0.22360000000000008,-0.12163687756239586
-0.22460000000000008,-0.12169346601439045
-0.22560000000000008,-0.12170761312738912
-0.22660000000000008,-0.12172176024038774
-0.22760000000000008,-0.12176420157938371
-0.22860000000000008,-0.12179249580538101
-0.22960000000000008,-0.12184908425737562
-0.23060000000000008,-0.1218773784833729
-0.23160000000000008,-0.1218773784833729
-0.23260000000000008,-0.12190567270937022
-0.23360000000000009,-0.12191981982236885
-0.2346000000000001,-0.1219622611613648
-0.2356000000000001,-0.12199055538736212
-0.2366000000000001,-0.12199055538736212
-0.2376000000000001,-0.12197640827436346
-0.2386000000000001,-0.12200470250036077
-0.2396000000000001,-0.12204714383935672
-0.2406000000000001,-0.12204714383935672
-0.2416000000000001,-0.12204714383935672
-0.2426000000000001,-0.12207543806535401
-0.2436000000000001,-0.12207543806535401
-0.2446000000000001,-0.12211787940434997
-0.2456000000000001,-0.12211787940434997
-0.2466000000000001,-0.12211787940434997
-0.2476000000000001,-0.12210373229135131
-0.2486000000000001,-0.12211787940434997
-0.2496000000000001,-0.12214617363034727
-0.2506000000000001,-0.12214617363034727
-0.2516000000000001,-0.12214617363034727
-0.2526000000000001,-0.12214617363034727
-0.2536000000000001,-0.1221603207433459
-0.2546000000000001,-0.1221603207433459
-0.2556000000000001,-0.1221603207433459
-0.2566000000000001,-0.1221603207433459
-0.2576000000000001,-0.12214617363034727
-0.2586000000000001,-0.12217446785634459
-0.2596000000000001,-0.12218861496934323
-0.2606000000000001,-0.12217446785634459
-0.2616000000000001,-0.12217446785634459
-0.2626000000000001,-0.1221603207433459
-0.2636000000000001,-0.1221603207433459
-0.2646000000000001,-0.12218861496934323
-0.2656000000000001,-0.12217446785634459
-0.2666000000000001,-0.1221603207433459
-0.2676000000000001,-0.12214617363034727
-0.2686000000000001,-0.1221603207433459
-0.2696000000000001,-0.12218861496934323
-0.2706000000000001,-0.12218861496934323
-0.2716000000000001,-0.1221603207433459
-0.2726000000000001,-0.12214617363034727
-0.2736000000000001,-0.12214617363034727
-0.2746000000000001,-0.12217446785634459
-0.2756000000000001,-0.12217446785634459
-0.2766000000000001,-0.12213202651734863
-0.2776000000000001,-0.12213202651734863
-0.2786000000000001,-0.12213202651734863
-0.2796000000000001,-0.12214617363034727
-0.2806000000000001,-0.1221603207433459
-0.28160000000000013,-0.12214617363034727
-0.28260000000000013,-0.12211787940434997
-0.28360000000000013,-0.12211787940434997
-0.2846,-0.12214617363034727
-0.2856,-0.12214617363034727
-0.2866,-0.12211787940434997
-0.2876,-0.12211787940434997
-0.2886,-0.12211787940434997
-0.2896,-0.12211787940434997
-0.2906,-0.12213202651734863
-0.2916,-0.12210373229135131
-0.2926,-0.12208958517835267
-0.2936,-0.12213202651734863
-0.29460000000000003,-0.12213202651734863
-0.29560000000000003,-0.12213202651734863
-0.29660000000000003,-0.12211787940434997
-0.29760000000000003,-0.12210373229135131
-0.29860000000000003,-0.12208958517835267
-0.29960000000000003,-0.12213202651734863
-0.30060000000000003,-0.12213202651734863
-0.30160000000000003,-0.12210373229135131
-0.30260000000000004,-0.12210373229135131
-0.30360000000000004,-0.12210373229135131
-0.30460000000000004,-0.12213202651734863
-0.30560000000000004,-0.12211787940434997
-0.30660000000000004,-0.12211787940434997
-0.30760000000000004,-0.12211787940434997
-0.30860000000000004,-0.12211787940434997
-0.30960000000000004,-0.12213202651734863
-0.31060000000000004,-0.12211787940434997
-0.31160000000000004,-0.12211787940434997
-0.31260000000000004,-0.12213202651734863
-0.31360000000000005,-0.12213202651734863
-0.31460000000000005,-0.12214617363034727
-0.31560000000000005,-0.1221603207433459
-0.31660000000000005,-0.12213202651734863
-0.31760000000000005,-0.12214617363034727
-0.31860000000000005,-0.12214617363034727
-0.31960000000000005,-0.1222169091953405
-0.32060000000000005,-0.1222169091953405
-0.32160000000000005,-0.12220276208234186
-0.32260000000000005,-0.12218861496934323
-0.32360000000000005,-0.12218861496934323
-0.32460000000000006,-0.12223105630833916
-0.32560000000000006,-0.12223105630833916
-0.32660000000000006,-0.12223105630833916
-0.32760000000000006,-0.1222169091953405
-0.32860000000000006,-0.12223105630833916
-0.32960000000000006,-0.12225935053433647
-0.33060000000000006,-0.12227349764733512
-0.33160000000000006,-0.12227349764733512
-0.33260000000000006,-0.12227349764733512
-0.33360000000000006,-0.12227349764733512
-0.33460000000000006,-0.12231593898633109
-0.33560000000000006,-0.12233008609932973
-0.33660000000000007,-0.12233008609932973
-0.33760000000000007,-0.12233008609932973
-0.33860000000000007,-0.12234423321232836
-0.33960000000000007,-0.12238667455132432
-0.34060000000000007,-0.12240082166432298
-0.34160000000000007,-0.12240082166432298
-0.34260000000000007,-0.12241496877732162
-0.34360000000000007,-0.12241496877732162
-0.3446000000000001,-0.12247155722931624
-0.3456000000000001,-0.12249985145531352
-0.3466000000000001,-0.12247155722931624
-0.34759999999999996,-0.12249985145531352
-0.3486000000000001,-0.12252814568131082
-0.34959999999999997,-0.12255643990730813
-0.3506000000000001,-0.12259888124630408
-0.35159999999999997,-0.12265546969829867
-0.3526000000000001,-0.12266961681129733
-0.35359999999999997,-0.12268376392429597
-0.3546000000000001,-0.12274035237629059
-0.35559999999999997,-0.1227686466022879
-0.3566000000000001,-0.12275449948928924
-0.3576,-0.12278279371528653
-0.3586000000000001,-0.12282523505428247
-0.3596,-0.12288182350627709
-0.3606000000000001,-0.12293841195827168
-0.3616,-0.12292426484527302
-0.3626000000000001,-0.12295255907127035
-0.3636,-0.12296670618426901
-0.3646000000000001,-0.1230515888622609
-0.3656,-0.12306573597525952
-0.3666000000000001,-0.12309403020125685
-0.3676,-0.12310817731425551
-0.3686000000000001,-0.12313647154025278
-0.3696,-0.1231930599922474
-0.3706000000000001,-0.12326379555724064
-0.3716,-0.1232779426702393
-0.3726000000000001,-0.12329208978323794
-0.3736,-0.12332038400923526
-0.3746000000000001,-0.12339111957422852
-0.3756,-0.1234194138002258
-0.3766000000000001,-0.12343356091322445
-0.3776,-0.12346185513922175
-0.3786000000000001,-0.12350429647821769
-0.3796,-0.12356088493021229
-0.3806000000000001,-0.12360332626920825
-0.3816,-0.12364576760820419
-0.3826000000000001,-0.12365991472120287
-0.3836,-0.12371650317319745
-0.3846000000000001,-0.12377309162519207
-0.3856,-0.12380138585118937
-0.3866000000000001,-0.12382968007718667
-0.3876,-0.12385797430318395
-0.3886000000000001,-0.12388626852918126
-0.3896,-0.12397115120717317
-0.3906000000000001,-0.12401359254616913
-0.3916,-0.12404188677216642
-0.3926000000000001,-0.12408432811116238
-0.3936,-0.1241267694501583
-0.3946000000000001,-0.12418335790215292
-0.3956,-0.12422579924114888
-0.3966000000000001,-0.12426824058014481
-0.3976,-0.1243106819191408
-0.3986000000000001,-0.12435312325813672
-0.3996,-0.12443800593612864
-0.4006000000000001,-0.12448044727512457
-0.4016,-0.12450874150112187
-0.4026000000000001,-0.12455118284011783
-0.4036,-0.1245936241791138
-0.4046000000000001,-0.12466435974410703
-0.4056,-0.12470680108310296
-0.40660000000000013,-0.12474924242209892
-0.4076,-0.12477753664809622
-0.40860000000000013,-0.12484827221308947
-0.4096,-0.12491900777808274
-0.41060000000000013,-0.12497559623007734
-0.4116,-0.12500389045607466
-0.41260000000000013,-0.12504633179507058
-0.4136,-0.12508877313406655
-0.41460000000000014,-0.12517365581205844
-0.4156,-0.12523024426405305
-0.41660000000000014,-0.125272685603049
-0.4176,-0.12531512694204497
-0.41860000000000014,-0.12537171539403955
-0.41960000000000003,-0.12545659807203147
-0.42060000000000014,-0.1254990394110274
-0.42160000000000003,-0.125555627863022
-0.42260000000000014,-0.12562636342801525
-0.42360000000000003,-0.1256688047670112
-0.42460000000000014,-0.12575368744500312
-0.42560000000000003,-0.12579612878399907
-0.42660000000000015,-0.125838570122995
-0.42760000000000004,-0.12589515857498962
-0.42860000000000015,-0.1259517470269842
-0.42960000000000004,-0.12605077681797475
-0.43060000000000015,-0.12610736526996935
-0.43160000000000004,-0.12614980660896533
-0.43260000000000015,-0.12620639506095993
-0.43360000000000004,-0.12624883639995585
-0.43460000000000015,-0.1263620133039451
-0.43560000000000004,-0.12643274886893832
