Potential V vs RHE, Current mA cm-2
0.013299999999999867,0.288459634042481
0.012299999999999978,0.01928251501716045
0.011299999999999866,-0.17132153841365594
0.010299999999999976,-0.3246762433190259
0.009299999999999864,-0.47803094822439585
0.008299999999999974,-0.6209167895107646
0.007299999999999862,-0.7635196885371602
0.006299999999999972,-0.8914095900449596
0.00529999999999986,-0.9942591015451476
0.0042999999999999705,-1.0910253544559163
0.0032999999999998586,-1.1938748659561045
0.0022999999999999687,-1.2941778971165354
0.0012999999999998568,-1.3903782655073582
0.00029999999999996696,-1.462811484060448
-0.000700000000000145,-1.5349617603535646
-0.0017000000000000348,-1.6113561705462767
-0.0027000000000001467,-1.690580003338719
-0.0037000000000000366,-1.7599008570321055
-0.0047000000000001485,-1.8122451751271118
-0.005700000000000038,-1.8631747819222533
-0.00670000000000015,-1.922592656516585
-0.00770000000000004,-1.9862546650105113
-0.008700000000000152,-2.0414284057052483
-0.009700000000000042,-2.081040322101469
-0.010700000000000154,-2.1206522384976902
-0.011700000000000044,-2.1645082887935065
-0.012700000000000156,-2.2210967407881075
-0.013700000000000045,-2.2621233684841937
-0.014700000000000157,-2.2918323057813597
-0.015700000000000047,-2.3158823978790646
-0.01670000000000016,-2.352664891675556
-0.01770000000000005,-2.3993503645711023
-0.01870000000000016,-2.433303435767863
-0.01970000000000005,-2.457353527865569
-0.020700000000000163,-2.475744774763814
-0.021700000000000053,-2.50262428946125
-0.022700000000000164,-2.539406783257741
-0.023700000000000054,-2.5705304318547717
-0.024700000000000166,-2.586092256153287
-0.025700000000000056,-2.6030687917516673
-0.026700000000000168,-2.6228747499497778
-0.027700000000000058,-2.655413109846674
-0.02870000000000017,-2.6865367584437045
-0.02970000000000006,-2.69643973754276
-0.03070000000000017,-2.7077574279416803
-0.03170000000000006,-2.7275633861397908
-0.03270000000000017,-2.7572723234369563
-0.03370000000000006,-2.7827371268345273
-0.034700000000000175,-2.7898106833338523
-0.035700000000000065,-2.798298951133043
-0.03670000000000018,-2.819519620631018
-0.03770000000000007,-2.840740290128994
-0.03870000000000018,-2.867619804826429
-0.03970000000000007,-2.8732786500258896
-0.04070000000000018,-2.8789374952253497
-0.04170000000000007,-2.897328742123595
-0.04270000000000018,-2.922793545521166
-0.04370000000000007,-2.942599503719276
-0.044700000000000184,-2.9510877715184667
-0.045700000000000074,-2.9525024828183315
-0.046700000000000186,-2.972308441016442
-0.047700000000000076,-2.9935291105144173
-0.04870000000000019,-3.013335068712528
-0.04970000000000008,-3.0232380478115832
-0.05070000000000019,-3.024652759111448
-0.05170000000000008,-3.0387998721100984
-0.05270000000000019,-3.0656793868075347
-0.05370000000000008,-3.08124121110605
-0.05470000000000019,-3.0883147676053753
-0.05570000000000008,-3.0939736128048354
-0.056700000000000195,-3.1081207258034858
-0.057700000000000085,-3.135000240500921
-0.058700000000000196,-3.153391487399167
-0.059700000000000086,-3.159050332598627
-0.0607000000000002,-3.167538600397817
-0.06170000000000009,-3.1831004246963324
-0.0627000000000002,-3.2099799393937682
-0.06370000000000009,-3.228371186292014
-0.0647000000000002,-3.232615320191609
-0.06570000000000009,-3.2411035879907995
-0.0667000000000002,-3.2510065670898545
-0.0677000000000001,-3.27788608178729
-0.0687000000000002,-3.303350885184861
-0.0697000000000001,-3.3061803077845906
-0.07070000000000021,-3.316083286883646
-0.0717000000000001,-3.3274009772825663
-0.07270000000000021,-3.355695203279867
-0.0737000000000001,-3.381160006677438
-0.07470000000000021,-3.3882335631767626
-0.0757000000000001,-3.392477697076358
-0.07670000000000021,-3.415113077874199
-0.0777000000000001,-3.439163169971904
-0.07870000000000021,-3.4632132620696097
-0.0797000000000001,-3.4773603750682605
-0.08070000000000022,-3.4858486428674507
-0.0817000000000001,-3.505654601065561
-0.08270000000000022,-3.533948827062862
-0.08370000000000011,-3.562243053060162
-0.08470000000000022,-3.576390166058813
-0.08570000000000011,-3.5820490112582726
-0.08670000000000022,-3.608928525955709
-0.08770000000000011,-3.644296308452334
-0.08870000000000022,-3.674005245749501
-0.08970000000000011,-3.6895670700480157
-0.09070000000000022,-3.696640626547341
-0.09170000000000011,-3.7206907186450464
-0.09270000000000023,-3.7560585011416725
-0.09370000000000012,-3.784352727138973
-0.09470000000000023,-3.801329262737354
-0.09570000000000012,-3.812646953136274
-0.09670000000000023,-3.838111756533844
-0.09770000000000012,-3.8763089616302007
-0.09870000000000023,-3.9088473215270967
-0.09970000000000012,-3.9258238571254775
-0.10070000000000023,-3.944215104023722
-0.10170000000000012,-3.9682651961214277
-0.10270000000000024,-4.007877112517649
-0.10370000000000013,-4.046074317614004
-0.10470000000000024,-4.065880275812115
-0.10570000000000013,-4.085686234010226
-0.10670000000000024,-4.115395171307392
-0.10770000000000013,-4.157836510303343
-0.10870000000000024,-4.1960337153996985
-0.10970000000000013,-4.218669096197539
-0.11070000000000024,-4.24696332219484
-0.11170000000000013,-4.279501682091736
-0.11270000000000002,-4.321943021087687
-0.11370000000000013,-4.368628493983234
-0.11470000000000002,-4.396922719980535
-0.11570000000000014,-4.420972812078239
-0.11670000000000003,-4.454925883275001
-0.11770000000000014,-4.4973672222709515
-0.11870000000000003,-4.542637983866633
-0.11970000000000014,-4.570932209863933
-0.12070000000000003,-4.599226435861234
-0.12170000000000014,-4.64308248615705
-0.12270000000000003,-4.691182670352461
-0.12370000000000014,-4.737868143248008
-0.12470000000000003,-4.776065348344364
-0.12570000000000014,-4.804359574341665
-0.12670000000000003,-4.849630335937346
-0.12770000000000015,-4.8977305201327574
-0.12870000000000004,-4.943001281728439
-0.12970000000000015,-4.979783775524929
-0.13070000000000004,-5.00807800152223
-0.13170000000000015,-5.0491046292183155
-0.13270000000000004,-5.104278369913052
-0.13370000000000015,-5.158037399307924
-0.13470000000000004,-5.196234604404279
-0.13570000000000015,-5.2259435417014455
-0.13670000000000004,-5.272629014596992
-0.13770000000000016,-5.326388043991862
-0.13870000000000005,-5.380147073386734
-0.13970000000000016,-5.421173701082821
-0.14070000000000005,-5.456541483579446
-0.14170000000000016,-5.5003975338752635
-0.14270000000000005,-5.558400697169729
-0.14370000000000016,-5.612159726564601
-0.14470000000000005,-5.653186354260687
-0.14570000000000016,-5.692798270656908
-0.14670000000000005,-5.736654320952724
-0.14770000000000016,-5.7960721955470555
-0.14870000000000005,-5.854075358841522
-0.14970000000000017,-5.896516697837473
-0.15070000000000006,-5.9347139029338285
-0.15170000000000017,-5.981399375829374
-0.15270000000000006,-6.037987827823977
-0.15370000000000017,-6.103064547617769
-0.15470000000000006,-6.142676464013989
-0.15570000000000017,-6.182288380410211
-0.15670000000000006,-6.2360474098050815
-0.15770000000000017,-6.2954652843994126
-0.15870000000000006,-6.357712581593474
-0.15970000000000018,-6.398739209289561
-0.16070000000000007,-6.4397658369856465
-0.16170000000000018,-6.494939577680383
-0.16270000000000007,-6.55577216357458
-0.16370000000000018,-6.619434172068506
-0.16470000000000007,-6.6689490675637835
-0.16570000000000018,-6.7085609839600036
-0.16670000000000007,-6.762320013354876
-0.16770000000000018,-6.821737887949207
-0.16870000000000007,-6.888229319042864
-0.16970000000000018,-6.9306706580388155
-0.17070000000000007,-6.977356130934361
-0.17170000000000019,-7.035359294228828
-0.17270000000000008,-7.097606591422889
-0.1737000000000002,-7.15702446601722
-0.17470000000000008,-7.2079540728123614
-0.1757000000000002,-7.251810123108179
-0.17670000000000008,-7.304154441203185
-0.1777000000000002,-7.36781644969711
-0.17870000000000008,-7.4229901903918485
-0.1797000000000002,-7.469675663287394
-0.18070000000000008,-7.51919055878267
-0.1817000000000002,-7.5743642994774065
-0.18270000000000008,-7.642270441870928
-0.1837000000000002,-7.700273605165394
-0.1847000000000001,-7.7512032119605365
-0.1857000000000002,-7.796473973556218
-0.1867000000000001,-7.847403580351358
-0.1877000000000002,-7.912480300145149
-0.1887000000000001,-7.980386442538672
-0.1897000000000002,-8.031316049333814
-0.1907000000000001,-8.07517209962963
-0.1917000000000001,-8.12610170642477
-0.19269999999999998,-8.194007848818291
-0.1937000000000001,-8.25484043471249
-0.19469999999999998,-8.30011119630817
-0.1957000000000001,-8.34255253530412
-0.19669999999999999,-8.390652719499533
-0.1977000000000001,-8.452900016693595
-0.1987,-8.530709138186172
-0.1997000000000001,-8.577394611081719
-0.2007,-8.615591816178071
-0.2017000000000001,-8.66793613427308
-0.2027,-8.727354008867412
-0.2037000000000001,-8.792430728661204
-0.2047,-8.849019180655803
-0.2057000000000001,-8.89570465355135
-0.2067,-8.949463682946222
-0.2077000000000001,-9.008881557540553
-0.2087,-9.06688472083502
-0.2097000000000001,-9.119229038930026
-0.2107,-9.172988068324898
-0.2117000000000001,-9.21542940732085
-0.2127,-9.279091415814774
-0.2137000000000001,-9.344168135608566
-0.2147,-9.399341876303303
-0.2157000000000001,-9.44885677179858
-0.2167,-9.508274646392913
-0.21770000000000012,-9.581839633985894
-0.2187,-9.639842797280359
-0.21970000000000012,-9.685113558876042
-0.2207,-9.726140186572128
-0.22170000000000012,-9.772825659467674
-0.2227,-9.8364876679616
-0.22370000000000012,-9.891661408656336
-0.2247,-9.936932170252017
-0.22570000000000012,-9.982202931847699
-0.2267,-10.03030311604311
-0.22770000000000012,-10.093965124537037
-0.22870000000000001,-10.154797710431232
-0.22970000000000013,-10.19865376072705
-0.23070000000000002,-10.241095099723
-0.23170000000000013,-10.292024706518141
-0.23270000000000002,-10.355686715012068
-0.23370000000000013,-10.4151045896064
-0.23470000000000002,-10.461790062501947
-0.23570000000000013,-10.504231401497897
-0.23670000000000002,-10.559405142192633
-0.2376999999999999,-10.6174083054871
-0.23870000000000002,-10.682485025280892
-0.2396999999999999,-10.730585209476303
-0.24070000000000003,-10.775855971071984
-0.24169999999999991,-10.823956155267396
-0.24270000000000003,-10.883374029861727
-0.24369999999999992,-10.949865460955383
-0.24470000000000003,-11.003624490350255
-0.24569999999999992,-11.047480540646072
-0.24670000000000003,-11.123874950838783
-0.24769999999999992,-11.208757628830686
-0.24870000000000003,-11.266760792125151
-0.24969999999999992,-11.306372708521375
-0.25070000000000003,-11.334666934518673
-0.2516999999999999,-11.382767118714085
-0.25270000000000004,-11.446429127208011
-0.2536999999999999,-11.504432290502479
-0.25470000000000004,-11.556776608597485
-0.2556999999999999,-11.602047370193167
-0.25670000000000004,-11.660050533487633
-0.25769999999999993,-11.72937138718102
-0.25870000000000004,-11.793033395674946
-0.25969999999999993,-11.839718868570493
-0.26070000000000004,-11.887819052765904
-0.26169999999999993,-11.93167510306172
-0.26270000000000004,-11.996751822855511
-0.26369999999999993,-12.054754986149977
-0.26470000000000005,-12.108514015544849
-0.26569999999999994,-12.15944362233999
-0.26670000000000005,-12.216032074334592
-0.26769999999999994,-12.281108794128384
-0.26870000000000005,-12.351844359121635
-0.26969999999999994,-12.40418867721664
-0.27070000000000005,-12.446630016212593
-0.27169999999999994,-12.500389045607465
-0.27270000000000005,-12.562636342801525
-0.27369999999999994,-12.626298351295452
-0.27470000000000006,-12.677227958090594
-0.27569999999999995,-12.723913430986139
-0.27670000000000006,-12.779087171680876
-0.27769999999999995,-12.845578602774532
-0.27870000000000006,-12.92055830166738
-0.27969999999999995,-12.97431733106225
-0.28070000000000006,-13.026661649157258
-0.28169999999999995,-13.08042067855213
-0.28270000000000006,-13.14266797574619
-0.28369999999999995,-13.214818252039308
-0.28470000000000006,-13.269991992734044
-0.28569999999999995,-13.30253035263094
-0.28670000000000007,-13.361948227225271
-0.28769999999999996,-13.427024947019063
-0.28870000000000007,-13.503419357211776
-0.28969999999999996,-13.56425194310597
-0.29070000000000007,-13.609522704701652
-0.29169999999999996,-13.68167298099477
-0.29270000000000007,-13.76089681378721
-0.29369999999999996,-13.82172939968141
-0.2947000000000001,-13.879732562975875
-0.29569999999999996,-13.937735726270342
-0.2967000000000001,-13.991494755665215
-0.29769999999999996,-14.062230320658465
-0.2987000000000001,-14.135795308251447
-0.29969999999999997,-14.203701450644967
-0.3007000000000001,-14.24614278964092
-0.30169999999999997,-14.30273124163552
-0.3027000000000001,-14.373466806628771
-0.30369999999999997,-14.458349484620674
-0.3047000000000001,-14.514937936615278
-0.30569999999999997,-14.57152638860988
-0.3067000000000001,-14.62811484060448
-0.3077,-14.71299751859638
-0.3087000000000001,-14.797880196588284
-0.3097,-14.854468648582884
-0.3107000000000001,-14.911057100577487
-0.3117,-14.967645552572087
-0.3127000000000001,-15.05252823056399
-0.3137,-15.123263795557243
-0.3147000000000001,-15.193999360550496
-0.3157,-15.264734925543747
-0.3167000000000001,-15.321323377538347
-0.3177,-15.406206055530248
-0.3187000000000001,-15.491088733522153
-0.3197,-15.575971411514052
-0.3207000000000001,-15.632559863508657
-0.3217,-15.70329542850191
-0.3227000000000001,-15.78817810649381
-0.3237,-15.87306078448571
-0.3247000000000001,-15.957943462477614
-0.3257,-16.02867902747086
-0.3267000000000001,-16.127708818461418
-0.3277,-16.21259149645332
-0.3287000000000001,-16.29747417444522
-0.3297,-16.382356852437127
-0.3307000000000001,-16.453092417430376
-0.3317,-16.52382798242363
-0.3327000000000001,-16.622857773414182
-0.3337,-16.70774045140608
-0.3347000000000001,-16.792623129397985
-0.3357,-16.863358694391238
-0.3367000000000001,-16.97653559838044
-0.3377,-17.07556538937099
-0.3387000000000001,-17.174595180361546
-0.3397,-17.259477858353446
-0.3407000000000001,-17.316066310348052
-0.3417,-17.40094898833995
-0.3427000000000001,-17.499978779330505
-0.3437,-17.584861457322408
-0.3447000000000001,-17.683891248312957
-0.3457,-17.75462681330621
-0.3467000000000001,-17.839509491298113
-0.3477,-17.952686395287316
-0.3487000000000001,-18.06586329927652
-0.3497,-18.15074597726842
-0.3507000000000001,-18.221481542261674
-0.3517,-18.306364220253574
-0.3527000000000001,-18.40539401124413
-0.3537,-18.504423802234676
-0.3547000000000001,-18.589306480226583
-0.3557,-18.674189158218486
-0.35670000000000013,-18.759071836210385
-0.3577,-18.872248740199588
-0.35870000000000013,-18.985425644188794
-0.3597,-19.070308322180697
-0.36070000000000013,-19.155191000172596
-0.3617,-19.2400736781645
-0.3626999999999999,-19.339103469155052
-0.3637,-19.452280373144255
-0.3646999999999999,-19.537163051136158
-0.3657,-19.622045729128057
-0.3666999999999999,-19.721075520118614
-0.3677,-19.834252424107817
-0.3686999999999999,-19.93328221509837
-0.36970000000000003,-20.03231200608892
-0.3706999999999999,-20.117194684080822
-0.37170000000000003,-20.202077362072725
-0.3726999999999999,-20.315254266061928
-0.37370000000000003,-20.42843117005113
-0.3746999999999999,-20.541608074040333
-0.37570000000000003,-20.626490752032236
-0.3766999999999999,-20.72552054302279
-0.37770000000000004,-20.85284456001064
-0.3786999999999999,-20.95187435100119
-0.37970000000000004,-21.065051254990397
-0.3806999999999999,-21.16408104598095
-0.38170000000000004,-21.2631108369715
-0.38269999999999993,-21.390434853959356
-0.38370000000000004,-21.503611757948562
-0.38469999999999993,-21.61678866193776
-0.38570000000000004,-21.729965565926964
-0.38669999999999993,-21.843142469916167
-0.38770000000000004,-21.98461359990267
-0.38869999999999993,-22.126084729889175
-0.38970000000000005,-22.267555859875678
-0.39069999999999994,-22.39487987686353
-0.39170000000000005,-22.493909667854084
-0.39269999999999994,-22.621233684841933
-0.39370000000000005,-22.776851927827092
-0.39469999999999994,-22.904175944814945
-0.39570000000000005,-23.017352848804148
-0.39669999999999994,-23.13052975279335
-0.39770000000000005,-23.286147995778503
-0.39869999999999994,-23.41347201276636
-0.39970000000000006,-23.56909025575151
-0.40069999999999995,-23.710561385738018
-0.40170000000000006,-23.83788540272587
-0.40269999999999995,-23.993503645711023
-0.40370000000000006,-24.149121888696175
-0.40469999999999995,-24.27644590568403
-0.40570000000000006,-24.417917035670534
-0.40669999999999995,-24.559388165657033
-0.40770000000000006,-24.70085929564354
-0.40869999999999995,-24.870624651627345
-0.40970000000000006,-25.026242894612498
-0.41069999999999995,-25.153566911600354
-0.41170000000000007,-25.309185154585506
-0.41269999999999996,-25.478950510569312
-0.41370000000000007,-25.634568753554465
-0.41469999999999996,-25.790186996539617
-0.41570000000000007,-25.91751101352747
-0.41669999999999996,-26.073129256512626
-0.41770000000000007,-26.22874749949778
-0.41869999999999996,-26.398512855481584
-0.4197000000000001,-26.568278211465387
-0.42069999999999996,-26.723896454450543
-0.4217000000000001,-26.89366181043435
-0.42269999999999996,-27.06342716641815
-0.4237000000000001,-27.247339635400607
-0.42469999999999997,-27.417104991384413
-0.4257000000000001,-27.572723234369565
-0.42669999999999997,-27.728341477354718
-0.4277000000000001,-27.912253946337174
-0.42869999999999997,-28.082019302320973
-0.4297000000000001,-28.251784658304786
-0.43069999999999997,-28.421550014288584
-0.4317000000000001,-28.591315370272387
-0.4327,-28.789374952253496
-0.4337000000000001,-28.97328742123595
-0.4347,-29.14305277721976
-0.4357000000000001,-29.31281813320356
-0.4367,-29.482583489187363
-0.4377000000000001,-29.652348845171172
-0.4387,-29.864555540150924
-0.4397000000000001,-30.07676223513068
-0.4407,-30.260674704113132
-0.4417000000000001,-30.416292947098288
-0.4427,-30.600205416080744
-0.4437000000000001,-30.812412111060496
-0.4447,-30.982177467044306
-0.4457000000000001,-31.16608993602676
-0.4467,-31.350002405009217
-0.4477000000000001,-31.533914873991666
-0.4487,-31.74612156897142
-0.4497000000000001,-31.94418115095253
-0.4507,-32.11394650693633
-0.4517000000000001,-32.31200608891744
-0.4527,-32.56665412289314
-0.4537000000000001,-32.764713704874254
-0.4547,-32.96277328685535
-0.4557000000000001,-33.14668575583781
-0.4567,-33.330598224820264
-0.4577000000000001,-33.52865780680137
-0.4587,-33.740864501781125
-0.4597000000000001,-33.93892408376223
-0.4607,-34.15113077874198
-0.4617000000000001,-34.33504324772444
-0.4627,-34.5472499427042
-0.4637000000000001,-34.773603750682604
-0.4647,-34.98581044566235
-0.4657000000000001,-35.198017140642115
-0.4667,-35.396076722623214
-0.4677000000000001,-35.636577643600276
-0.4687,-35.87707856457733
-0.4697000000000001,-36.07513814655844
-0.4707,-36.25905061554089
-0.4717000000000001,-36.47125731052064
-0.4727,-36.669316892501755
-0.4737000000000001,-36.89567070048016
-0.4747,-37.093730282461266
-0.4757000000000001,-37.305936977441014
-0.4767,-37.51814367242077
-0.4777000000000001,-37.73035036740053
-0.4787,-37.97085128837759
-0.4797000000000001,-38.18305798335734
-0.4807,-38.39526467833709
-0.48170000000000013,-38.607471373316855
-0.4827,-38.81967806829661
-0.48370000000000013,-39.046031876275016
-0.4847,-39.258238571254765
-0.48570000000000013,-39.45629815323587
-0.4867,-39.66850484821563
-0.4876999999999999,-39.89485865619403
-0.4887,-40.12121246417244
-0.4896999999999999,-40.36171338514949
-0.4907,-40.5880671931279
-0.4916999999999999,-40.814421001106304
-0.4927,-41.04077480908471
-0.4936999999999999,-41.281275730061765
-0.49470000000000003,-41.53592376403748
-0.4956999999999999,-41.74813045901723
-0.49670000000000003,-41.97448426699564
-0.4976999999999999,-42.243279413969994
-0.49870000000000003,-42.483780334947056
-0.4996999999999999,-42.738428368922754
-0.5007,-42.96478217690117
-0.5016999999999999,-43.19113598487957
-0.5027,-43.43163690585662
-0.5036999999999999,-43.68628493983233
-0.5047,-43.94093297380804
-0.5056999999999999,-44.181433894785094
-0.5067,-44.4077877027635
