Potential V vs RHE, Current mA cm-2
0.013299999999999867,0.4122468727806717
0.012299999999999978,-0.02621460038649913
0.011299999999999866,-0.22309997198871628
0.010299999999999976,-0.43601402261840433
0.009299999999999864,-0.6663290222364323
0.008299999999999974,-0.7913895011445016
0.007299999999999862,-1.0299098263017468
0.006299999999999972,-1.1559606031197214
0.00529999999999986,-1.3257259591035258
0.0042999999999999705,-1.510911668255859
0.0032999999999998586,-1.6085267479465466
0.0022999999999999687,-1.8108304638272468
0.0012999999999998568,-1.9141043887173947
0.00029999999999996696,-2.051331384804303
-0.000700000000000145,-2.2111937616890525
-0.0017000000000000348,-2.286173460581899
-0.0027000000000001467,-2.468671218264489
-0.0037000000000000366,-2.546480339757066
-0.0047000000000001485,-2.6723896454450546
-0.005700000000000038,-2.8124460641316933
-0.00670000000000015,-2.870449227426159
-0.00770000000000004,-3.0274821817111786
-0.008700000000000152,-3.0953883241047
-0.009700000000000042,-3.201491671594578
-0.010700000000000154,-3.328815688582431
-0.011700000000000044,-3.362768759779192
-0.012700000000000156,-3.5169722914644814
-0.013700000000000045,-3.5636577643600273
-0.014700000000000157,-3.661272844050715
-0.015700000000000047,-3.7716203254401877
-0.01670000000000016,-3.801329262737354
-0.01770000000000005,-3.944215104023722
-0.01870000000000016,-3.973924041320888
-0.01970000000000005,-4.05597729671306
-0.020700000000000163,-4.160665932903073
-0.021700000000000053,-4.1691542007022635
-0.022700000000000164,-4.302137062889576
-0.023700000000000054,-4.331846000186743
-0.024700000000000166,-4.399752142580264
-0.025700000000000056,-4.4973672222709515
-0.026700000000000168,-4.500196644870682
-0.027700000000000058,-4.627520661858535
-0.02870000000000017,-4.650156042656376
-0.02970000000000006,-4.710988628550572
-0.03070000000000017,-4.802944863041799
-0.03170000000000006,-4.795871306542475
-0.03270000000000017,-4.907633499231812
-0.03370000000000006,-4.920365900930598
-0.034700000000000175,-4.974124930325469
-0.035700000000000065,-5.0547634744177765
-0.03670000000000018,-5.0547634744177765
-0.03770000000000007,-5.153793265408329
-0.03870000000000018,-5.1608668219076534
-0.03970000000000007,-5.211796428702795
-0.04070000000000018,-5.283946704995913
-0.04170000000000007,-5.278287859796452
-0.04270000000000018,-5.371658805587544
-0.04370000000000007,-5.373073516887409
-0.044700000000000184,-5.42400312368255
-0.045700000000000074,-5.484835709576747
-0.046700000000000186,-5.473518019177827
-0.047700000000000076,-5.564059542369189
-0.04870000000000019,-5.5598154084695945
-0.04970000000000008,-5.609330303964871
-0.05070000000000019,-5.663089333359742
-0.05170000000000008,-5.647527509061226
-0.05270000000000019,-5.740898454852318
-0.05370000000000008,-5.726751341853668
-0.05470000000000019,-5.772022103449349
-0.05570000000000008,-5.827195844144086
-0.056700000000000195,-5.807389885945976
-0.057700000000000085,-5.8951019865376075
-0.058700000000000196,-5.878125450939227
-0.059700000000000086,-5.920566789935179
-0.0607000000000002,-5.9729111080301855
-0.06170000000000009,-5.955934572431804
-0.0627000000000002,-6.037987827823977
-0.06370000000000009,-6.021011292225596
-0.0647000000000002,-6.062037919921682
-0.06570000000000009,-6.112967526716823
-0.0667000000000002,-6.086088012019388
-0.0677000000000001,-6.1709706900112895
-0.0687000000000002,-6.158238288312504
-0.0697000000000001,-6.1907766482094
-0.07070000000000021,-6.245950388904137
-0.0717000000000001,-6.2162414516069715
-0.07270000000000021,-6.296879995699278
-0.0737000000000001,-6.289806439199953
-0.07470000000000021,-6.316685953897389
-0.0757000000000001,-6.371859694592125
-0.07670000000000021,-6.346394891194555
-0.0777000000000001,-6.427033435286861
-0.07870000000000021,-6.411471610988346
-0.0797000000000001,-6.445424682185107
-0.08070000000000022,-6.493524866380518
-0.0817000000000001,-6.470889485582678
-0.08270000000000022,-6.545869184475525
-0.08370000000000011,-6.533136782776739
-0.08470000000000022,-6.569919276573231
-0.08570000000000011,-6.615190038168912
-0.08670000000000022,-6.589725234771341
-0.08770000000000011,-6.666119644964053
-0.08870000000000022,-6.6505578206655365
-0.08970000000000011,-6.685925603162163
-0.09070000000000022,-6.735440498657439
-0.09170000000000011,-6.715634540459329
-0.09270000000000023,-6.800517218451231
-0.09370000000000012,-6.780711260253121
-0.09470000000000023,-6.816079042749746
-0.09570000000000012,-6.858520381745699
-0.09670000000000023,-6.828811444448532
-0.09770000000000012,-6.916523545040165
-0.09870000000000023,-6.896717586842053
-0.09970000000000012,-6.934914791938409
-0.10070000000000023,-6.98584439873355
-0.10170000000000012,-6.953306038836654
-0.10270000000000024,-7.039603428128422
-0.10370000000000013,-7.028285737729503
-0.10470000000000024,-7.0565799637268025
-0.10570000000000013,-7.113168415721404
-0.10670000000000024,-7.087703612323834
-0.10770000000000013,-7.172586290315736
-0.10870000000000024,-7.166927445116276
-0.10970000000000013,-7.203709938912767
-0.11070000000000024,-7.263127813507099
-0.11170000000000013,-7.237663010109527
-0.11270000000000002,-7.32537511070116
-0.11370000000000013,-7.321130976801564
-0.11470000000000002,-7.35932818189792
-0.11570000000000014,-7.4173313451923875
-0.11670000000000003,-7.398940098294142
-0.11770000000000014,-7.483822776286043
-0.11870000000000003,-7.479578642386449
-0.11970000000000014,-7.51919055878267
-0.12070000000000003,-7.575779010777271
-0.12170000000000014,-7.557387763879025
-0.12270000000000003,-7.649343998370253
-0.12370000000000014,-7.642270441870928
-0.12470000000000003,-7.6861264921667445
-0.12570000000000014,-7.746959078060941
-0.12670000000000003,-7.734226676362156
-0.12770000000000015,-7.830427044752977
-0.12870000000000004,-7.816279931754329
-0.12970000000000015,-7.870038961149199
-0.13070000000000004,-7.926627413143801
-0.13170000000000015,-7.919553856644475
-0.13270000000000004,-8.02141307023476
-0.13370000000000015,-8.008680668535973
-0.13470000000000004,-8.065269120530575
-0.13570000000000015,-8.124686995124907
-0.13670000000000004,-8.127516417724635
-0.13770000000000016,-8.227960920015054
-0.13870000000000005,-8.225131497415324
-0.13970000000000016,-8.276061104210465
-0.14070000000000005,-8.34538195790385
-0.14170000000000016,-8.338308401404527
-0.14270000000000005,-8.44016761499481
-0.14370000000000016,-8.438752903694944
-0.14470000000000005,-8.50241491218887
-0.14570000000000016,-8.573150477182121
-0.14670000000000005,-8.570321054582392
-0.14770000000000016,-8.67642440207227
-0.14870000000000005,-8.675009690772406
-0.14970000000000017,-8.725939297567548
-0.15070000000000006,-8.802333707760258
-0.15170000000000017,-8.800918996460393
-0.15270000000000006,-8.908437055250136
-0.15370000000000017,-8.911266477849864
-0.15470000000000006,-8.969269641144333
-0.15570000000000017,-9.042834628737316
-0.15670000000000006,-9.040005206137584
-0.15770000000000017,-9.147523264927328
-0.15870000000000006,-9.160255666626112
-0.15970000000000018,-9.225332386419904
-0.16070000000000007,-9.301726796612616
-0.16170000000000018,-9.305970930512213
-0.16270000000000007,-9.410659566702224
-0.16370000000000018,-9.42622139100074
-0.16470000000000007,-9.49129811079453
-0.16570000000000018,-9.566277809687378
-0.16670000000000007,-9.569107232287108
-0.16770000000000018,-9.676625291076851
-0.16870000000000007,-9.686528270175906
-0.16970000000000018,-9.755849123869291
-0.17070000000000007,-9.830828822762141
-0.17170000000000019,-9.83365824536187
-0.17270000000000008,-9.946835149351072
-0.1737000000000002,-9.955323417150264
-0.17470000000000008,-10.028888404743245
-0.1757000000000002,-10.103868103636094
-0.17670000000000008,-10.109526948835553
-0.1777000000000002,-10.232606831923809
-0.17870000000000008,-10.239680388423137
-0.1797000000000002,-10.310415953416387
-0.18070000000000008,-10.393883920108426
-0.1817000000000002,-10.400957476607749
-0.18270000000000008,-10.522622648396142
-0.1837000000000002,-10.532525627495199
-0.1847000000000001,-10.60326119248845
-0.1857000000000002,-10.681070313981028
-0.1867000000000001,-10.683899736580756
-0.1877000000000002,-10.805564908369151
-0.1887000000000001,-10.821126732667665
-0.1897000000000002,-10.894691720260647
-0.1907000000000001,-10.97674497565282
-0.1917000000000001,-10.982403820852278
-0.19269999999999998,-11.101239570040944
-0.1937000000000001,-11.12528966213865
-0.19469999999999998,-11.191781093232304
-0.1957000000000001,-11.268175503425017
-0.19669999999999999,-11.290810884222859
-0.1977000000000001,-11.40398778821206
-0.1987,-11.4266231690099
-0.1997000000000001,-11.494529311403422
-0.2007,-11.577997278095461
-0.2017000000000001,-11.6006326588933
-0.2027,-11.722297830681693
-0.2037000000000001,-11.737859654980209
-0.2047,-11.817083487772651
-0.2057000000000001,-11.893477897965363
-0.2067,-11.909039722263879
-0.2077000000000001,-12.03070489405227
-0.2087,-12.049096140950518
-0.2097000000000001,-12.129734685042823
-0.2107,-12.213202651734862
-0.2117000000000001,-12.224520342133783
-0.2127,-12.34477080262231
-0.2137000000000001,-12.357503204321095
-0.2147,-12.443800593612863
-0.2157000000000001,-12.534342116804225
-0.2167,-12.542830384603414
-0.21770000000000012,-12.671569112891135
-0.2187,-12.684301514589919
-0.21970000000000012,-12.762110636082495
-0.2207,-12.849822736674128
-0.22170000000000012,-12.862555138372914
-0.2227,-12.991293866660634
-0.22370000000000012,-13.006855690959148
-0.2247,-13.09173836895105
-0.22570000000000012,-13.186524026042006
-0.2267,-13.197841716440928
-0.22770000000000012,-13.323751022128915
-0.22870000000000001,-13.34780111422662
-0.22970000000000013,-13.419951390519737
-0.23070000000000002,-13.506248779811504
-0.23170000000000013,-13.523225315409885
-0.23270000000000002,-13.644890487198278
-0.23370000000000013,-13.674599424495446
-0.23470000000000002,-13.749579123388292
-0.23570000000000013,-13.837291223979923
-0.23670000000000002,-13.862756027377493
-0.2376999999999999,-13.978762353966427
-0.23870000000000002,-14.004227157363998
-0.2396999999999999,-14.076377433657115
-0.24070000000000003,-14.161260111649016
-0.24169999999999991,-14.189554337646317
-0.24270000000000003,-14.316878354634172
-0.24369999999999992,-14.345172580631472
-0.24470000000000003,-14.430055258623375
-0.24569999999999992,-14.514937936615278
-0.24670000000000003,-14.543232162612577
-0.24769999999999992,-14.67055617960043
-0.24870000000000003,-14.684703292599082
-0.24969999999999992,-14.769585970590983
-0.25070000000000003,-14.854468648582884
-0.2516999999999999,-14.882762874580186
-0.25270000000000004,-15.02423400456669
-0.2536999999999999,-15.03838111756534
-0.25470000000000004,-15.137410908555893
-0.2556999999999999,-15.222293586547794
-0.25670000000000004,-15.250587812545096
-0.25769999999999993,-15.37791182953295
-0.25870000000000004,-15.406206055530248
-0.25969999999999993,-15.491088733522153
-0.26070000000000004,-15.590118524512702
-0.26169999999999993,-15.618412750510005
-0.26270000000000004,-15.759883880496508
-0.26369999999999993,-15.78817810649381
-0.26470000000000005,-15.87306078448571
-0.26569999999999994,-15.986237688474914
-0.26670000000000005,-16.014531914472215
-0.26769999999999994,-16.15600304445872
-0.26870000000000005,-16.184297270456018
-0.26969999999999994,-16.28332706144657
-0.27070000000000005,-16.382356852437127
-0.27169999999999994,-16.410651078434423
-0.27270000000000005,-16.55212220842093
-0.27369999999999994,-16.59456354741688
-0.27470000000000006,-16.679446225408782
-0.27569999999999995,-16.778476016399335
-0.27670000000000006,-16.820917355395284
-0.27769999999999995,-16.94824137238314
-0.27870000000000006,-16.97653559838044
-0.27969999999999995,-17.061418276372343
-0.28070000000000006,-17.160448067362896
-0.28169999999999995,-17.20288940635885
-0.28270000000000006,-17.34436053634535
-0.28369999999999995,-17.37265476234265
-0.28470000000000006,-17.471684553333205
-0.28569999999999995,-17.570714344323754
-0.28670000000000007,-17.613155683319707
-0.28769999999999996,-17.75462681330621
-0.28870000000000007,-17.81121526530081
-0.28969999999999996,-17.910245056291366
-0.29070000000000007,-18.009274847281915
-0.29169999999999996,-18.05171618627787
-0.29270000000000007,-18.207334429263025
-0.29369999999999996,-18.249775768258974
-0.2947000000000001,-18.362952672248177
-0.29569999999999996,-18.461982463238726
-0.2967000000000001,-18.504423802234676
-0.29769999999999996,-18.660042045219836
-0.2987000000000001,-18.688336271217132
-0.29969999999999997,-18.815660288204988
-0.3007000000000001,-18.91469007919554
-0.30169999999999997,-18.97127853119014
-0.3027000000000001,-19.126896774175293
-0.30369999999999997,-19.169338113171246
-0.3047000000000001,-19.28251501716045
-0.30569999999999997,-19.395691921149652
-0.3067000000000001,-19.4381332601456
-0.3077,-19.593751503130758
-0.3087000000000001,-19.65033995512536
-0.3097,-19.763516859114564
-0.3107000000000001,-19.876693763103766
-0.3117,-19.93328221509837
-0.3127000000000001,-20.07475334508487
-0.3137,-20.13134179707947
-0.3147000000000001,-20.25866581406732
-0.3157,-20.371842718056527
-0.3167000000000001,-20.44257828304978
-0.3177,-20.598196526034933
-0.3187000000000001,-20.654784978029536
-0.3197,-20.76796188201874
-0.3207000000000001,-20.881138786007945
-0.3217,-20.95187435100119
-0.3227000000000001,-21.121639706984997
-0.3237,-21.19237527197825
-0.3247000000000001,-21.333846401964752
-0.3257,-21.447023305953955
-0.3267000000000001,-21.531905983945855
-0.3277,-21.701671339929664
-0.3287000000000001,-21.758259791924264
-0.3297,-21.899730921910766
-0.3307000000000001,-22.012907825899973
-0.3317,-22.083643390893226
-0.3327000000000001,-22.267555859875678
-0.3337,-22.324144311870278
-0.3347000000000001,-22.479762554855434
-0.3357,-22.607086571843286
-0.3367000000000001,-22.691969249835186
-0.3377,-22.87588171881764
-0.3387000000000001,-22.946617283810895
-0.3397,-23.073941300798747
-0.3407000000000001,-23.2012653177866
-0.3417,-23.272000882779853
-0.3427000000000001,-23.45591335176231
-0.3437,-23.526648916755562
-0.3447000000000001,-23.682267159740714
-0.3457,-23.809591176728567
-0.3467000000000001,-23.894473854720466
-0.3477,-24.078386323702922
-0.3487000000000001,-24.16326900169483
-0.3497,-24.304740131681328
-0.3507000000000001,-24.44621126166783
-0.3517,-24.531093939659737
-0.3527000000000001,-24.729153521640843
-0.3537,-24.814036199632742
-0.3547000000000001,-24.969654442617898
-0.3557,-25.111125572604404
-0.35670000000000013,-25.224302476593607
-0.3577,-25.40821494557606
-0.35870000000000013,-25.49309762356796
-0.3597,-25.662862979551768
-0.36070000000000013,-25.81848122253692
-0.3617,-25.91751101352747
-0.3626999999999999,-26.101423482509926
-0.3637,-26.18630616050183
-0.3646999999999999,-26.34192440348698
-0.3657,-26.469248420474838
-0.3666999999999999,-26.568278211465387
-0.3677,-26.766337793446493
-0.3686999999999999,-26.86536758443705
-0.36970000000000003,-27.035132940420848
-0.3706999999999999,-27.176604070407354
-0.37170000000000003,-27.289780974396557
-0.3726999999999999,-27.487840556377662
-0.37370000000000003,-27.572723234369565
-0.3746999999999999,-27.756635703352025
-0.37570000000000003,-27.912253946337174
-0.3766999999999999,-28.011283737327723
-0.37770000000000004,-28.22349043230748
-0.3786999999999999,-28.308373110299385
-0.37970000000000004,-28.478138466283188
-0.3806999999999999,-28.633756709268344
-0.38170000000000004,-28.746933613257543
-0.38269999999999993,-28.959140308237306
-0.38370000000000004,-29.058170099227848
-0.38469999999999993,-29.242082568210304
-0.38570000000000004,-29.411847924194117
-0.38669999999999993,-29.525024828183312
-0.38770000000000004,-29.73723152316307
-0.38869999999999993,-29.822114201154974
-0.38970000000000005,-29.991879557138777
-0.39069999999999994,-30.147497800123933
-0.39170000000000005,-30.260674704113132
-0.39269999999999994,-30.47288139909289
-0.39370000000000005,-30.571911190083444
-0.39469999999999994,-30.7558236590659
-0.39570000000000005,-30.91144190205105
-0.39669999999999994,-31.024618806040255
-0.39770000000000005,-31.250972614018657
-0.39869999999999994,-31.36414951800786
-0.39970000000000006,-31.54806198699032
-0.40069999999999995,-31.717827342974125
-0.40170000000000006,-31.83100424696332
-0.40269999999999995,-32.04321094194308
-0.40370000000000006,-32.14224073293363
-0.40469999999999995,-32.32615320191609
-0.40570000000000006,-32.49591855789989
-0.40669999999999995,-32.62324257488775
-0.40770000000000006,-32.84959638286615
-0.40869999999999995,-32.96277328685535
-0.40970000000000006,-33.14668575583781
-0.41069999999999995,-33.302303998822964
-0.41170000000000007,-33.42962801581082
-0.41269999999999996,-33.64183471079057
-0.41370000000000007,-33.755011614779775
-0.41469999999999996,-33.95307119676088
-0.41570000000000007,-34.10868943974604
-0.41669999999999996,-34.236013456733886
-0.41770000000000007,-34.47651437771095
-0.41869999999999996,-34.58969128170015
-0.4197000000000001,-34.81604508967855
-0.42069999999999996,-34.99995755866101
-0.4217000000000001,-35.12728157564886
-0.42269999999999996,-35.353635383627264
-0.4237000000000001,-35.46681228761647
-0.42469999999999997,-35.664871869597576
-0.4257000000000001,-35.83463722558138
-0.42669999999999997,-35.96196124256923
-0.4277000000000001,-36.18831505054764
-0.42869999999999997,-36.315639067535486
-0.4297000000000001,-36.5136986495166
-0.43069999999999997,-36.69761111849905
-0.4317000000000001,-36.83908224848555
-0.4327,-37.07958316946261
-0.4337000000000001,-37.221054299449115
-0.4347,-37.43326099442887
-0.4357000000000001,-37.617173463411326
-0.4367,-37.758644593397825
-0.4377000000000001,-38.01329262737354
-0.4387,-38.140616644361394
-0.4397000000000001,-38.35282333934114
-0.4407,-38.5367358083236
-0.4417000000000001,-38.678206938310105
-0.4427,-38.93285497228581
-0.4437000000000001,-39.060178989273666
-0.4447,-39.272385684253415
-0.4457000000000001,-39.45629815323587
-0.4467,-39.61191639622103
-0.4477000000000001,-39.85241731719808
-0.4487,-39.96559422118728
-0.4497000000000001,-40.20609514216434
-0.4507,-40.40415472414545
-0.4517000000000001,-40.559772967130606
-0.4527,-40.814421001106304
-0.4537000000000001,-40.97003924409146
-0.4547,-41.22468727806717
-0.4557000000000001,-41.40859974704962
-0.4567,-41.56421799003478
-0.4577000000000001,-41.81886602401048
-0.4587,-41.91789581500104
-0.4597000000000001,-42.172543848976744
-0.4607,-42.3847505439565
-0.4617000000000001,-42.540368786941656
-0.4627,-42.79501682091736
-0.4637000000000001,-42.95063506390252
-0.4647,-43.19113598487957
-0.4657000000000001,-43.41748979285798
-0.4667,-43.60140226184043
-0.4677000000000001,-43.85605029581614
-0.4687,-43.99752142580264
-0.4697000000000001,-44.238022346779694
-0.4707,-44.45022904175945
-0.4717000000000001,-44.634141510741905
-0.4727,-44.91708377071491
-0.4737000000000001,-45.07270201370007
-0.4747,-45.29905582167847
-0.4757000000000001,-45.53955674265553
-0.4767,-45.72346921163799
-0.4777000000000001,-46.006411471610996
-0.4787,-46.19032394059345
-0.4797000000000001,-46.45911908756781
-0.4807,-46.68547289554621
-0.48170000000000013,-46.86938536452866
-0.4827,-47.16647473750032
-0.48370000000000013,-47.33624009348412
-0.4847,-47.619182353457134
-0.48570000000000013,-47.84553616143554
-0.4867,-48.086037082412595
-0.4876999999999999,-48.38312645538425
-0.4887,-48.567038924366706
-0.4896999999999999,-48.84998118433972
-0.4907,-49.104629218315424
-0.4916999999999999,-49.33098302629383
-0.4927,-49.628072399265484
-0.4936999999999999,-49.81198486824794
-0.49470000000000003,-50.109074241219595
-0.4956999999999999,-50.3637222751953
-0.49670000000000003,-50.57592897017506
-0.4976999999999999,-50.88716545614537
-0.49870000000000003,-51.071077925127824
-0.4996999999999999,-51.35402018510083
-0.5007,-51.60866821907654
-0.5016999999999999,-51.8491691400536
-0.5027,-52.14625851302525
-0.5036999999999999,-52.35846520800501
-0.5047,-52.66970169397532
-0.5056999999999999,-52.938496840949675
-0.5067,-53.17899776192673
-0.5076999999999999,-53.50438136089569
