Potential V vs RHE, Current mA cm-2
0.013299999999999867,-0.08943804837746762
0.012299999999999978,-1.5717442541500557
0.011299999999999866,-3.2297858975918787
0.010299999999999976,-4.887827541033701
0.009299999999999864,-6.108723392817228
0.008299999999999974,-6.850032113946507
0.007299999999999862,-7.50504344578402
0.006299999999999972,-8.508073757388331
0.00529999999999986,-9.59740145828441
0.0042999999999999705,-10.42642228000532
0.0032999999999998586,-10.819712021367803
0.0022999999999999687,-11.1677310011346
0.0012999999999998568,-11.778886282676295
0.00029999999999996696,-12.432482903213943
-0.000700000000000145,-12.73806054398479
-0.0017000000000000348,-12.73806054398479
-0.0027000000000001467,-12.73806054398479
-0.0037000000000000366,-13.175206335643086
-0.0047000000000001485,-13.828802956180734
-0.005700000000000038,-14.217848563643619
-0.00670000000000015,-14.217848563643619
-0.00770000000000004,-14.217848563643619
-0.008700000000000152,-14.529085049613924
-0.009700000000000042,-14.967645552572087
-0.010700000000000154,-15.094969569559943
-0.011700000000000044,-14.925204213576137
-0.012700000000000156,-14.69885040559773
-0.013700000000000045,-14.967645552572087
-0.014700000000000157,-15.349617603535648
-0.015700000000000047,-15.491088733522153
-0.01670000000000016,-15.349617603535648
-0.01770000000000005,-15.179852247551842
-0.01870000000000016,-15.3920589425316
-0.01970000000000005,-15.78817810649381
-0.020700000000000163,-15.830619445489761
-0.021700000000000053,-15.575971411514052
-0.022700000000000164,-15.3920589425316
-0.023700000000000054,-15.575971411514052
-0.024700000000000166,-15.91550212348166
-0.025700000000000056,-16.014531914472215
-0.026700000000000168,-15.74573676749786
-0.027700000000000058,-15.491088733522153
-0.02870000000000017,-15.660854089505953
-0.02970000000000006,-16.014531914472215
-0.03070000000000017,-16.184297270456018
-0.03170000000000006,-15.91550212348166
-0.03270000000000017,-15.70329542850191
-0.03370000000000006,-15.78817810649381
-0.034700000000000175,-16.141855931460068
-0.035700000000000065,-16.184297270456018
-0.03670000000000018,-15.87306078448571
-0.03770000000000007,-15.660854089505953
-0.03870000000000018,-15.78817810649381
-0.03970000000000007,-16.184297270456018
-0.04070000000000018,-16.269179948447924
-0.04170000000000007,-16.056973253468165
-0.04270000000000018,-15.830619445489761
-0.04370000000000007,-15.972090575476265
-0.044700000000000184,-16.269179948447924
-0.045700000000000074,-16.269179948447924
-0.046700000000000186,-15.972090575476265
-0.047700000000000076,-15.660854089505953
-0.04870000000000019,-15.78817810649381
-0.04970000000000008,-16.141855931460068
-0.05070000000000019,-16.22673860945197
-0.05170000000000008,-15.972090575476265
-0.05270000000000019,-15.74573676749786
-0.05370000000000008,-15.87306078448571
-0.05470000000000019,-16.184297270456018
-0.05570000000000008,-16.22673860945197
-0.056700000000000195,-15.91550212348166
-0.057700000000000085,-15.660854089505953
-0.058700000000000196,-15.78817810649381
-0.059700000000000086,-16.099414592464115
-0.0607000000000002,-16.184297270456018
-0.06170000000000009,-15.91550212348166
-0.0627000000000002,-15.660854089505953
-0.06370000000000009,-15.78817810649381
-0.0647000000000002,-16.141855931460068
-0.06570000000000009,-16.184297270456018
-0.0667000000000002,-15.91550212348166
-0.0677000000000001,-15.70329542850191
-0.0687000000000002,-15.830619445489761
-0.0697000000000001,-16.141855931460068
-0.07070000000000021,-16.184297270456018
-0.0717000000000001,-15.87306078448571
-0.07270000000000021,-15.618412750510005
-0.0737000000000001,-15.74573676749786
-0.07470000000000021,-16.056973253468165
-0.0757000000000001,-16.141855931460068
-0.07670000000000021,-15.830619445489761
-0.0777000000000001,-15.618412750510005
-0.07870000000000021,-15.78817810649381
-0.0797000000000001,-16.141855931460068
-0.08070000000000022,-16.184297270456018
-0.0817000000000001,-15.91550212348166
-0.08270000000000022,-15.618412750510005
-0.08370000000000011,-15.74573676749786
-0.08470000000000022,-16.056973253468165
-0.08570000000000011,-16.141855931460068
-0.08670000000000022,-15.830619445489761
-0.08770000000000011,-15.618412750510005
-0.08870000000000022,-15.74573676749786
-0.08970000000000011,-16.099414592464115
-0.09070000000000022,-16.099414592464115
-0.09170000000000011,-15.830619445489761
-0.09270000000000023,-15.618412750510005
-0.09370000000000012,-15.74573676749786
-0.09470000000000023,-16.056973253468165
-0.09570000000000012,-16.099414592464115
-0.09670000000000023,-15.830619445489761
-0.09770000000000012,-15.575971411514052
-0.09870000000000023,-15.70329542850191
-0.09970000000000012,-16.056973253468165
-0.10070000000000023,-16.099414592464115
-0.10170000000000012,-15.830619445489761
-0.10270000000000024,-15.618412750510005
-0.10370000000000013,-15.74573676749786
-0.10470000000000024,-16.056973253468165
-0.10570000000000013,-16.099414592464115
-0.10670000000000024,-15.78817810649381
-0.10770000000000013,-15.575971411514052
-0.10870000000000024,-15.70329542850191
-0.10970000000000013,-16.056973253468165
-0.11070000000000024,-16.099414592464115
-0.11170000000000013,-15.78817810649381
-0.11270000000000002,-15.575971411514052
-0.11370000000000013,-15.74573676749786
-0.11470000000000002,-16.056973253468165
-0.11570000000000014,-16.099414592464115
-0.11670000000000003,-15.830619445489761
-0.11770000000000014,-15.618412750510005
-0.11870000000000003,-15.78817810649381
-0.11970000000000014,-16.099414592464115
-0.12070000000000003,-16.141855931460068
-0.12170000000000014,-15.87306078448571
-0.12270000000000003,-15.618412750510005
-0.12370000000000014,-15.74573676749786
-0.12470000000000003,-16.056973253468165
-0.12570000000000014,-16.099414592464115
-0.12670000000000003,-15.830619445489761
-0.12770000000000015,-15.575971411514052
-0.12870000000000004,-15.74573676749786
-0.12970000000000015,-16.099414592464115
-0.13070000000000004,-16.141855931460068
-0.13170000000000015,-15.91550212348166
-0.13270000000000004,-15.660854089505953
-0.13370000000000015,-15.78817810649381
-0.13470000000000004,-16.141855931460068
-0.13570000000000015,-16.141855931460068
-0.13670000000000004,-15.87306078448571
-0.13770000000000016,-15.618412750510005
-0.13870000000000005,-15.78817810649381
-0.13970000000000016,-16.141855931460068
-0.14070000000000005,-16.184297270456018
-0.14170000000000016,-15.91550212348166
-0.14270000000000005,-15.70329542850191
-0.14370000000000016,-15.830619445489761
-0.14470000000000005,-16.22673860945197
-0.14570000000000016,-16.269179948447924
-0.14670000000000005,-15.972090575476265
-0.14770000000000016,-15.70329542850191
-0.14870000000000005,-15.87306078448571
-0.14970000000000017,-16.184297270456018
-0.15070000000000006,-16.269179948447924
-0.15170000000000017,-15.972090575476265
-0.15270000000000006,-15.74573676749786
-0.15370000000000017,-15.87306078448571
-0.15470000000000006,-16.184297270456018
-0.15570000000000017,-16.22673860945197
-0.15670000000000006,-15.972090575476265
-0.15770000000000017,-15.74573676749786
-0.15870000000000006,-15.91550212348166
-0.15970000000000018,-16.22673860945197
-0.16070000000000007,-16.269179948447924
-0.16170000000000018,-16.014531914472215
-0.16270000000000007,-15.74573676749786
-0.16370000000000018,-15.91550212348166
-0.16470000000000007,-16.269179948447924
-0.16570000000000018,-16.354062626439823
-0.16670000000000007,-16.099414592464115
-0.16770000000000018,-15.87306078448571
-0.16870000000000007,-16.014531914472215
-0.16970000000000018,-16.354062626439823
-0.17070000000000007,-16.354062626439823
-0.17170000000000019,-16.141855931460068
-0.17270000000000008,-15.91550212348166
-0.1737000000000002,-16.056973253468165
-0.17470000000000008,-16.438945304431726
-0.1757000000000002,-16.495533756426326
-0.17670000000000008,-16.269179948447924
-0.1777000000000002,-16.099414592464115
-0.17870000000000008,-16.269179948447924
-0.1797000000000002,-16.622857773414182
-0.18070000000000008,-16.622857773414182
-0.1817000000000002,-16.311621287443874
-0.18270000000000008,-16.014531914472215
-0.1837000000000002,-16.184297270456018
-0.1847000000000001,-16.53797509542228
-0.1857000000000002,-16.622857773414182
-0.1867000000000001,-16.396503965435777
-0.1877000000000002,-16.269179948447924
-0.1887000000000001,-16.438945304431726
-0.1897000000000002,-16.792623129397985
-0.1907000000000001,-16.835064468393938
-0.1917000000000001,-16.495533756426326
-0.19269999999999998,-16.22673860945197
-0.1937000000000001,-16.311621287443874
-0.19469999999999998,-16.622857773414182
-0.1957000000000001,-16.70774045140608
-0.19669999999999999,-16.438945304431726
-0.1977000000000001,-16.269179948447924
-0.1987,-16.495533756426326
-0.1997000000000001,-16.877505807389888
-0.2007,-16.962388485381787
-0.2017000000000001,-16.70774045140608
-0.2027,-16.495533756426326
-0.2037000000000001,-16.622857773414182
-0.2047,-16.962388485381787
-0.2057000000000001,-17.018976937376394
-0.2067,-16.70774045140608
-0.2077000000000001,-16.495533756426326
-0.2087,-16.665299112410132
-0.2097000000000001,-17.103859615368293
-0.2107,-17.2736249713521
-0.2117000000000001,-17.061418276372343
-0.2127,-16.877505807389888
-0.2137000000000001,-17.061418276372343
-0.2147,-17.40094898833995
-0.2157000000000001,-17.48583166633185
-0.2167,-17.188742293360193
-0.21770000000000012,-16.962388485381787
-0.2187,-17.146300954364243
-0.21970000000000012,-17.542420118326454
-0.2207,-17.669744135314307
-0.22170000000000012,-17.48583166633185
-0.2227,-17.358507649344002
-0.22370000000000012,-17.542420118326454
-0.2247,-17.839509491298113
-0.22570000000000012,-17.881950830294063
-0.2267,-17.627302796318357
-0.22770000000000012,-17.4433903273359
-0.22870000000000001,-17.669744135314307
-0.22970000000000013,-18.06586329927652
-0.23070000000000002,-18.19318731626437
-0.23170000000000013,-17.966833508285966
-0.23270000000000002,-17.839509491298113
-0.23370000000000013,-18.009274847281915
-0.23470000000000002,-18.40539401124413
-0.23570000000000013,-18.53271802823198
-0.23670000000000002,-18.27806999425627
-0.2376999999999999,-18.10830463827247
-0.23870000000000002,-18.27806999425627
-0.2396999999999999,-18.716630497214435
-0.24070000000000003,-18.843954514202288
-0.24169999999999991,-18.674189158218486
-0.24270000000000003,-18.49027668923603
-0.24369999999999992,-18.716630497214435
-0.24470000000000003,-19.155191000172596
-0.24569999999999992,-19.28251501716045
-0.24670000000000003,-19.056161209182044
-0.24769999999999992,-18.92883719219419
-0.24870000000000003,-19.112749661176647
-0.24969999999999992,-19.537163051136158
-0.25070000000000003,-19.721075520118614
-0.2516999999999999,-19.537163051136158
-0.25270000000000004,-19.452280373144255
-0.2536999999999999,-19.763516859114564
-0.25470000000000004,-20.202077362072725
-0.2556999999999999,-20.329401379060574
-0.25670000000000004,-20.159636023076775
-0.25769999999999993,-20.01816489309027
-0.25870000000000004,-20.286960040064624
-0.25969999999999993,-20.72552054302279
-0.26070000000000004,-20.89528589900659
-0.26169999999999993,-20.76796188201874
-0.26270000000000004,-20.683079204026836
-0.26369999999999993,-20.93772723800254
-0.26470000000000005,-21.461170418952605
-0.26569999999999994,-21.67337711393236
-0.26670000000000005,-21.54605309694451
-0.26769999999999994,-21.461170418952605
-0.26870000000000005,-21.729965565926964
-0.26969999999999994,-22.196820294882425
-0.27070000000000005,-22.42317410286083
-0.27169999999999994,-22.33829142486893
-0.27270000000000005,-22.295850085872978
-0.27369999999999994,-22.63538079784059
-0.27470000000000006,-23.15882397879065
-0.27569999999999995,-23.385177786769056
-0.27670000000000006,-23.24370665678255
-0.27769999999999995,-23.24370665678255
-0.27870000000000006,-23.597384481748815
-0.27969999999999995,-24.120827662698876
-0.28070000000000006,-24.432064148669184
-0.28169999999999995,-24.432064148669184
-0.28270000000000006,-24.389622809673234
-0.28369999999999995,-24.729153521640843
-0.28470000000000006,-25.295038041586857
-0.28569999999999995,-25.648715866553115
-0.28670000000000007,-25.563833188561212
-0.28769999999999996,-25.563833188561212
-0.28870000000000007,-25.91751101352747
-0.28969999999999996,-26.483395533473487
-0.29070000000000007,-26.780484906445146
-0.29169999999999996,-26.780484906445146
-0.29270000000000007,-26.86536758443705
-0.29369999999999996,-27.34636942639116
-0.2947000000000001,-28.011283737327723
-0.29569999999999996,-28.350814449295335
-0.2967000000000001,-28.350814449295335
-0.29769999999999996,-28.393255788291288
-0.2987000000000001,-28.831816291249446
-0.29969999999999997,-29.482583489187363
-0.3007000000000001,-29.836261314153624
-0.30169999999999997,-29.921143992145527
-0.3027000000000001,-30.00602667013743
-0.30369999999999997,-30.487028512091538
-0.3047000000000001,-31.137795710029454
-0.30569999999999997,-31.57635621298762
-0.3067000000000001,-31.661238890979522
-0.3077,-31.84515135996197
-0.3087000000000001,-32.32615320191609
-0.3097,-33.06180307784591
-0.3107000000000001,-33.54280491980002
-0.3117,-33.670128936787876
-0.3127000000000001,-33.89648274476628
-0.3137,-34.462367264712285
-0.3147000000000001,-35.198017140642115
-0.3157,-35.721460321592176
-0.3167000000000001,-35.90537279057463
-0.3177,-36.16002082455034
-0.3187000000000001,-36.768346683492304
-0.3197,-37.60302635041268
-0.3207000000000001,-38.12646953136274
-0.3217,-38.33867622634249
-0.3227000000000001,-38.522588695324956
-0.3237,-39.130914554266916
-0.3247000000000001,-39.86656443019674
-0.3257,-40.3900076111468
-0.3267000000000001,-40.65880275812115
-0.3277,-40.95589213109281
-0.3287000000000001,-41.66324778102533
-0.3297,-42.568663012938956
-0.3307000000000001,-43.17698887188092
-0.3317,-43.53066669684718
-0.3327000000000001,-43.84190318281749
-0.3337,-44.4926703807554
-0.3347000000000001,-45.36979138667173
-0.3357,-45.97811724561369
-0.3367000000000001,-46.3176479575813
-0.3377,-46.75620846053947
-0.3387000000000001,-47.54844678846388
-0.3397,-48.51045047237211
-0.3407000000000001,-49.20365900930597
-0.3417,-49.458307043281685
-0.3427000000000001,-49.81198486824794
-0.3437,-50.50519340518181
-0.3447000000000001,-51.55207976708194
-0.3457,-52.34431809500636
-0.3467000000000001,-52.95264395394832
-0.3477,-53.518528473894335
-0.3487000000000001,-54.43809081880661
-0.3497,-55.527418519702685
-0.3507000000000001,-56.26306839563251
-0.3517,-56.61674622059877
-0.3527000000000001,-56.97042404556503
-0.3537,-57.7485152604908
-0.3547000000000001,-58.79540162239092
-0.3557,-59.6300812893113
-0.35670000000000013,-60.19596580925731
-0.3577,-60.761850329203334
-0.35870000000000013,-61.6814126741156
-0.3597,-62.72829903601572
-0.36070000000000013,-63.54883158993744
-0.3617,-64.15715744887942
-0.3626999999999999,-64.77963042082003
-0.3637,-65.7274869917296
-0.3646999999999999,-66.91584448361623
-0.3657,-67.7788183765339
-0.3666999999999999,-68.30226155748396
-0.3677,-68.86814607742998
-0.3686999999999999,-69.87259110033416
-0.36970000000000003,-71.10338993121674
-0.3706999999999999,-72.10783495412092
-0.37170000000000003,-72.71616081306288
-0.3726999999999999,-73.2820453330089
-0.37370000000000003,-74.24404901691713
-0.3746999999999999,-75.4182593958051
-0.37570000000000003,-76.29538040172143
-0.3766999999999999,-76.98858893865528
-0.37770000000000004,-77.7242388145851
-0.3786999999999999,-78.85600785447714
-0.37970000000000004,-80.21413070234757
-0.3806999999999999,-81.26101706424771
-0.38170000000000004,-81.91178426218562
-0.38269999999999993,-82.61913991211814
-0.38370000000000004,-83.70846761301424
-0.38469999999999993,-84.96756066989411
-0.38570000000000004,-85.97200569279828
-0.38669999999999993,-85.23635581686847
-0.38570000000000004,-82.39278610413973
-0.38469999999999993,-80.34145471933543
-0.38370000000000004,-78.77112517648524
-0.38269999999999993,-77.1583542946391
-0.38170000000000004,-75.4182593958051
-0.3806999999999999,-73.80548851395896
-0.37970000000000004,-72.57468968307639
-0.3786999999999999,-71.52780332117625
-0.37770000000000004,-70.26871026429637
-0.3766999999999999,-68.74082206044213
-0.37570000000000003,-67.25537519558385
-0.3746999999999999,-66.29337151167562
-0.37370000000000003,-65.51528029674984
-0.3726999999999999,-64.51083527384567
-0.37170000000000003,-63.15271242597524
-0.3706999999999999,-61.851178030099405
-0.36970000000000003,-60.889174346191176
-0.3686999999999999,-60.11108313126541
-0.3677,-59.06419676936528
-0.3666999999999999,-57.70607392149485
-0.3657,-56.44698086461496
-0.3646999999999999,-55.527418519702685
-0.3637,-54.876651321764776
-0.3626999999999999,-53.9570889768525
-0.3617,-52.78287859796452
-0.36070000000000013,-51.65110955807249
-0.3597,-50.81642989115212
-0.35870000000000013,-50.20810403221015
-0.3577,-49.28854168729788
-0.35670000000000013,-48.029448630417996
-0.3557,-46.79864979953541
-0.3547000000000001,-45.97811724561369
-0.3537,-45.27076159568118
-0.3527000000000001,-44.4077877027635
-0.3517,-43.31846000186743
-0.3507000000000001,-42.2715736399673
-0.3497,-41.56421799003478
-0.3487000000000001,-41.04077480908471
-0.3477,-40.177800916167044
-0.3467000000000001,-39.08847321527096
-0.3457,-37.94255706238028
-0.3447000000000001,-37.206907186450465
-0.3437,-36.6834640055004
-0.3427000000000001,-35.90537279057463
-0.3417,-34.8018979766799
-0.3407000000000001,-33.712570275783825
-0.3397,-33.06180307784591
-0.3387000000000001,-32.53835989689585
-0.3377,-31.76026868197007
-0.3367000000000001,-30.71338232006995
-0.3357,-29.708937297165768
-0.3347000000000001,-29.058170099227848
-0.3337,-28.662050935265643
-0.3327000000000001,-27.912253946337174
-0.3317,-26.9643973754276
-0.3307000000000001,-26.087276369511276
-0.3297,-25.478950510569312
-0.3287000000000001,-24.997948668615198
-0.3277,-24.24815167968673
-0.3267000000000001,-23.15882397879065
-0.3257,-22.111937616890522
-0.3247000000000001,-21.503611757948562
-0.3237,-21.149933932982297
-0.3227000000000001,-20.499166735044383
-0.3217,-19.636192842126707
-0.3207000000000001,-18.843954514202288
-0.3197,-18.320511333252224
-0.3187000000000001,-17.924392169290012
-0.3177,-17.316066310348052
-0.3167000000000001,-16.354062626439823
-0.3157,-15.448647394526201
-0.3147000000000001,-14.967645552572087
-0.3137,-14.65640906660178
-0.3127000000000001,-14.175407224647667
-0.3117,-13.349215825526485
-0.3107000000000001,-12.56405105410139
-0.3097,-12.12831997374296
-0.3087000000000001,-11.82274233297211
-0.3077,-11.255443101726232
-0.3067000000000001,-10.42642228000532
-0.30569999999999997,-9.641257508580225
-0.3047000000000001,-9.205526428221793
-0.30369999999999997,-8.987660888042578
-0.3027000000000001,-8.508073757388331
-0.30169999999999997,-7.722908985963235
-0.3007000000000001,-6.981600264833956
-0.29969999999999997,-6.588310523471475
-0.2987000000000001,-6.414301033588076
-0.29769999999999996,-5.9347139029338285
-0.2967000000000001,-5.149549131508733
-0.29569999999999996,-4.450681749375406
-0.2947000000000001,-4.102662769608606
-0.29369999999999996,-3.971094618721158
-0.29270000000000007,-3.5353635383627267
-0.29169999999999996,-2.8379108675292635
-0.29070000000000007,-2.1390434853959355
-0.28969999999999996,-1.8334658446250875
-0.28870000000000007,-1.7033124050375041
-0.28769999999999996,-1.3543031273607997
-0.28670000000000007,-0.6128529351015338
-0.28569999999999995,-0.002205534916489592
-0.28470000000000006,0.2594580523952477
-0.28369999999999995,0.3467457395969205
-0.28270000000000006,0.6956135461436386
-0.28169999999999995,1.349917522331218
-0.28070000000000006,2.004645911908757
-0.27969999999999995,2.2225114520879723
-0.27870000000000006,2.2663675023837886
-0.27769999999999995,2.5705304318547717
-0.27670000000000006,3.1816857133964676
-0.27569999999999995,3.7928409949381634
-0.27470000000000006,3.9668504848215624
-0.27369999999999994,3.9668504848215624
-0.27270000000000005,4.2285720752965945
-0.27169999999999994,4.839727356838291
-0.27070000000000005,5.3631705377883545
-0.26969999999999994,5.537180027671754
-0.26870000000000005,5.537180027671754
-0.26769999999999994,5.798901618146785
