Potential V vs RHE, Current mA cm-2
0.013299999999999867,-0.3947044526623452
0.012299999999999978,-2.052746096104168
0.011299999999999866,-3.4915074880669104
0.010299999999999976,-4.887827541033701
0.009299999999999864,-6.326588932996443
0.008299999999999974,-7.809206375255003
0.007299999999999862,-9.24938247851761
0.006299999999999972,-10.514134380596953
0.00529999999999986,-11.56102074249708
0.0042999999999999705,-12.432482903213943
0.0032999999999998586,-13.13135028534727
0.0022999999999999687,-13.828802956180734
0.0012999999999998568,-14.57152638860988
0.00029999999999996696,-15.3920589425316
-0.000700000000000145,-16.269179948447924
-0.0017000000000000348,-17.103859615368293
-0.0027000000000001467,-17.71218547431026
-0.0037000000000000366,-18.23562865526032
-0.0047000000000001485,-18.589306480226583
-0.005700000000000038,-18.92883719219419
-0.00670000000000015,-19.3249563561564
-0.00770000000000004,-19.848399537106463
-0.008700000000000152,-20.414284057052477
-0.009700000000000042,-21.022609915994444
-0.010700000000000154,-21.503611757948562
-0.011700000000000044,-21.814848243918867
-0.012700000000000156,-21.98461359990267
-0.013700000000000045,-22.027054938898623
-0.014700000000000157,-22.196820294882425
-0.015700000000000047,-22.46561544185678
-0.01670000000000016,-22.819293266823045
-0.01770000000000005,-23.24370665678255
-0.01870000000000016,-23.597384481748815
-0.01970000000000005,-23.767149837732617
-0.020700000000000163,-23.823738289727217
-0.021700000000000053,-23.767149837732617
-0.022700000000000164,-23.724708498736668
-0.023700000000000054,-23.86617962872317
-0.024700000000000166,-24.078386323702922
-0.025700000000000056,-24.474505487665134
-0.026700000000000168,-24.729153521640843
-0.027700000000000058,-24.9130659906233
-0.02870000000000017,-24.9130659906233
-0.02970000000000006,-24.771594860636792
-0.03070000000000017,-24.729153521640843
-0.03170000000000006,-24.686712182644893
-0.03270000000000017,-24.870624651627345
-0.03370000000000006,-25.12527268560305
-0.034700000000000175,-25.39406783257741
-0.035700000000000065,-25.563833188561212
-0.03670000000000018,-25.563833188561212
-0.03770000000000007,-25.478950510569312
-0.03870000000000018,-25.295038041586857
-0.03970000000000007,-25.210155363594954
-0.04070000000000018,-25.295038041586857
-0.04170000000000007,-25.43650917157336
-0.04270000000000018,-25.648715866553115
-0.04370000000000007,-25.81848122253692
-0.044700000000000184,-25.81848122253692
-0.045700000000000074,-25.691157205549064
-0.046700000000000186,-25.478950510569312
-0.047700000000000076,-25.39406783257741
-0.04870000000000019,-25.337479380582806
-0.04970000000000008,-25.478950510569312
-0.05070000000000019,-25.691157205549064
-0.05170000000000008,-25.86092256153287
-0.05270000000000019,-25.959952352523427
-0.05370000000000008,-25.91751101352747
-0.05470000000000019,-25.73359854454502
-0.05570000000000008,-25.563833188561212
-0.056700000000000195,-25.478950510569312
-0.057700000000000085,-25.563833188561212
-0.058700000000000196,-25.691157205549064
-0.059700000000000086,-25.91751101352747
-0.0607000000000002,-26.002393691519377
-0.06170000000000009,-25.959952352523427
-0.0627000000000002,-25.77603988354097
-0.06370000000000009,-25.60627452755716
-0.0647000000000002,-25.478950510569312
-0.06570000000000009,-25.563833188561212
-0.0667000000000002,-25.691157205549064
-0.0677000000000001,-25.91751101352747
-0.0687000000000002,-26.044835030515326
-0.0697000000000001,-26.044835030515326
-0.07070000000000021,-25.91751101352747
-0.0717000000000001,-25.691157205549064
-0.07270000000000021,-25.521391849565262
-0.0737000000000001,-25.521391849565262
-0.07470000000000021,-25.60627452755716
-0.0757000000000001,-25.81848122253692
-0.07670000000000021,-26.002393691519377
-0.0777000000000001,-26.044835030515326
-0.07870000000000021,-26.002393691519377
-0.0797000000000001,-25.77603988354097
-0.08070000000000022,-25.60627452755716
-0.0817000000000001,-25.521391849565262
-0.08270000000000022,-25.60627452755716
-0.08370000000000011,-25.77603988354097
-0.08470000000000022,-25.959952352523427
-0.08570000000000011,-26.002393691519377
-0.08670000000000022,-25.959952352523427
-0.08770000000000011,-25.77603988354097
-0.08870000000000022,-25.563833188561212
-0.08970000000000011,-25.43650917157336
-0.09070000000000022,-25.478950510569312
-0.09170000000000011,-25.691157205549064
-0.09270000000000023,-25.959952352523427
-0.09370000000000012,-26.087276369511276
-0.09470000000000023,-26.129717708507226
-0.09570000000000012,-25.959952352523427
-0.09670000000000023,-25.73359854454502
-0.09770000000000012,-25.60627452755716
-0.09870000000000023,-25.563833188561212
-0.09970000000000012,-25.73359854454502
-0.10070000000000023,-26.002393691519377
-0.10170000000000012,-26.17215904750318
-0.10270000000000024,-26.21460038649913
-0.10370000000000013,-26.129717708507226
-0.10470000000000024,-25.959952352523427
-0.10570000000000013,-25.77603988354097
-0.10670000000000024,-25.648715866553115
-0.10770000000000013,-25.691157205549064
-0.10870000000000024,-25.77603988354097
-0.10970000000000013,-25.91751101352747
-0.11070000000000024,-25.959952352523427
-0.11170000000000013,-25.81848122253692
-0.11270000000000002,-25.648715866553115
-0.11370000000000013,-25.43650917157336
-0.11470000000000002,-25.39406783257741
-0.11570000000000014,-25.43650917157336
-0.11670000000000003,-25.648715866553115
-0.11770000000000014,-25.91751101352747
-0.11870000000000003,-26.129717708507226
-0.11970000000000014,-26.129717708507226
-0.12070000000000003,-26.044835030515326
-0.12170000000000014,-25.86092256153287
-0.12270000000000003,-25.691157205549064
-0.12370000000000014,-25.691157205549064
-0.12470000000000003,-25.81848122253692
-0.12570000000000014,-26.002393691519377
-0.12670000000000003,-26.129717708507226
-0.12770000000000015,-26.17215904750318
-0.12870000000000004,-26.087276369511276
-0.12970000000000015,-25.81848122253692
-0.13070000000000004,-25.648715866553115
-0.13170000000000015,-25.521391849565262
-0.13270000000000004,-25.60627452755716
-0.13370000000000015,-25.73359854454502
-0.13470000000000004,-25.91751101352747
-0.13570000000000015,-26.002393691519377
-0.13670000000000004,-25.91751101352747
-0.13770000000000016,-25.77603988354097
-0.13870000000000005,-25.563833188561212
-0.13970000000000016,-25.521391849565262
-0.14070000000000005,-25.563833188561212
-0.14170000000000016,-25.77603988354097
-0.14270000000000005,-26.044835030515326
-0.14370000000000016,-26.257041725495082
-0.14470000000000005,-26.257041725495082
-0.14570000000000016,-26.17215904750318
-0.14670000000000005,-25.959952352523427
-0.14770000000000016,-25.77603988354097
-0.14870000000000005,-25.77603988354097
-0.14970000000000017,-25.81848122253692
-0.15070000000000006,-26.002393691519377
-0.15170000000000017,-26.17215904750318
-0.15270000000000006,-26.17215904750318
-0.15370000000000017,-26.002393691519377
-0.15470000000000006,-25.81848122253692
-0.15570000000000017,-25.691157205549064
-0.15670000000000006,-25.691157205549064
-0.15770000000000017,-25.86092256153287
-0.15870000000000006,-26.087276369511276
-0.15970000000000018,-26.34192440348698
-0.16070000000000007,-26.440954194477534
-0.16170000000000018,-26.38436574248293
-0.16270000000000007,-26.21460038649913
-0.16370000000000018,-26.044835030515326
-0.16470000000000007,-25.91751101352747
-0.16570000000000018,-25.959952352523427
-0.16670000000000007,-26.087276369511276
-0.16770000000000018,-26.29948306449103
-0.16870000000000007,-26.483395533473487
-0.16970000000000018,-26.483395533473487
-0.17070000000000007,-26.38436574248293
-0.17170000000000019,-26.21460038649913
-0.17270000000000008,-26.087276369511276
-0.1737000000000002,-26.129717708507226
-0.17470000000000008,-26.29948306449103
-0.1757000000000002,-26.525836872469437
-0.17670000000000008,-26.69560222845324
-0.1777000000000002,-26.738043567449193
-0.17870000000000008,-26.61071955046134
-0.1797000000000002,-26.38436574248293
-0.18070000000000008,-26.257041725495082
-0.1817000000000002,-26.17215904750318
-0.18270000000000008,-26.257041725495082
-0.1837000000000002,-26.483395533473487
-0.1847000000000001,-26.69560222845324
-0.1857000000000002,-26.822926245441096
-0.1867000000000001,-26.780484906445146
-0.1877000000000002,-26.65316088945729
-0.1887000000000001,-26.440954194477534
-0.1897000000000002,-26.34192440348698
-0.1907000000000001,-26.38436574248293
-0.1917000000000001,-26.568278211465387
-0.19269999999999998,-26.822926245441096
-0.1937000000000001,-27.00683871442355
-0.19469999999999998,-27.00683871442355
-0.1957000000000001,-26.907808923433
-0.19669999999999999,-26.738043567449193
-0.1977000000000001,-26.61071955046134
-0.1987,-26.61071955046134
-0.1997000000000001,-26.738043567449193
-0.2007,-26.9643973754276
-0.2017000000000001,-27.134162731411404
-0.2027,-27.176604070407354
-0.2037000000000001,-27.091721392415455
-0.2047,-26.907808923433
-0.2057000000000001,-26.780484906445146
-0.2067,-26.738043567449193
-0.2077000000000001,-26.822926245441096
-0.2087,-27.049280053419505
-0.2097000000000001,-27.303928087395207
-0.2107,-27.43125210438306
-0.2117000000000001,-27.43125210438306
-0.2127,-27.303928087395207
-0.2137000000000001,-27.134162731411404
-0.2147,-27.091721392415455
-0.2157000000000001,-27.176604070407354
-0.2167,-27.38881076538711
-0.21770000000000012,-27.615164573365515
-0.2187,-27.742488590353368
-0.21970000000000012,-27.78492992934932
-0.2207,-27.65760591236147
-0.22170000000000012,-27.487840556377662
-0.2227,-27.38881076538711
-0.22370000000000012,-27.43125210438306
-0.2247,-27.615164573365515
-0.22570000000000012,-27.869812607341224
-0.2267,-28.05372507632368
-0.22770000000000012,-28.13860775431558
-0.22870000000000001,-28.09616641531963
-0.22970000000000013,-27.912253946337174
-0.23070000000000002,-27.827371268345274
-0.23170000000000013,-27.78492992934932
-0.23270000000000002,-27.912253946337174
-0.23370000000000013,-28.13860775431558
-0.23470000000000002,-28.393255788291288
-0.23570000000000013,-28.577168257273744
-0.23670000000000002,-28.53472691827779
-0.2376999999999999,-28.435697127287238
-0.23870000000000002,-28.308373110299385
-0.2396999999999999,-28.265931771303435
-0.24070000000000003,-28.435697127287238
-0.24169999999999991,-28.662050935265643
-0.24270000000000003,-28.959140308237306
-0.24369999999999992,-29.18549411621571
-0.24470000000000003,-29.22793545521166
-0.24569999999999992,-29.14305277721976
-0.24670000000000003,-29.001581647233255
-0.24769999999999992,-28.91669896924135
-0.24870000000000003,-29.001581647233255
-0.24969999999999992,-29.18549411621571
-0.25070000000000003,-29.482583489187363
-0.2516999999999999,-29.751378636161718
-0.25270000000000004,-29.878702653149578
-0.2536999999999999,-29.878702653149578
-0.25470000000000004,-29.751378636161718
-0.2556999999999999,-29.66649595816982
-0.25670000000000004,-29.708937297165768
-0.25769999999999993,-29.921143992145527
-0.25870000000000004,-30.232380478115836
-0.25969999999999993,-30.529469851087494
-0.26070000000000004,-30.7558236590659
-0.26169999999999993,-30.79826499806185
-0.26270000000000004,-30.7558236590659
-0.26369999999999993,-30.670940981073993
-0.26470000000000005,-30.71338232006995
-0.26569999999999994,-30.88314767605375
-0.26670000000000005,-31.19438416202406
-0.26769999999999994,-31.533914873991666
-0.26870000000000005,-31.802710020966025
-0.26969999999999994,-31.887592698957924
-0.27070000000000005,-31.887592698957924
-0.27169999999999994,-31.802710020966025
-0.27270000000000005,-31.76026868197007
-0.27369999999999994,-31.930034037953877
-0.27470000000000006,-32.24127052392419
-0.27569999999999995,-32.62324257488775
-0.27670000000000006,-32.93447906085806
-0.27769999999999995,-33.14668575583781
-0.27870000000000006,-33.231568433829715
-0.27969999999999995,-33.18912709483376
-0.28070000000000006,-33.231568433829715
-0.28169999999999995,-33.330598224820264
-0.28270000000000006,-33.58524625879597
-0.28369999999999995,-33.98136542275818
-0.28470000000000006,-34.377484586720385
-0.28569999999999995,-34.632132620696105
-0.28670000000000007,-34.75945663768395
-0.28769999999999996,-34.8018979766799
-0.28870000000000007,-34.8018979766799
-0.28969999999999996,-34.94336910666641
-0.29070000000000007,-35.198017140642115
-0.29169999999999996,-35.55169496560837
-0.29270000000000007,-35.99025546856653
-0.29369999999999996,-36.329786180534136
-0.2947000000000001,-36.55613998851254
-0.29569999999999996,-36.6834640055004
-0.2967000000000001,-36.725905344496354
-0.29769999999999996,-36.8532293614842
-0.2987000000000001,-37.164465847454515
-0.29969999999999997,-37.60302635041268
-0.3007000000000001,-38.16891087035869
-0.30169999999999997,-38.6499127123128
-0.3027000000000001,-38.94700208528445
-0.30369999999999997,-39.130914554266916
-0.3047000000000001,-39.21579723225882
-0.30569999999999997,-39.34312124924667
-0.3067000000000001,-39.56947505722508
-0.3077,-39.95144710818864
-0.3087000000000001,-40.4748902891387
-0.3097,-40.99833347008877
-0.3107000000000001,-41.43689397304693
-0.3117,-41.70568912002128
-0.3127000000000001,-41.87545447600508
-0.3137,-42.087661170984845
-0.3147000000000001,-42.3564563179592
-0.3157,-42.79501682091736
-0.3167000000000001,-43.31846000186743
-0.3177,-43.96922719980534
-0.3187000000000001,-44.4926703807554
-0.3197,-44.93123088371356
-0.3207000000000001,-45.22832025668522
-0.3217,-45.45467406466363
-0.3227000000000001,-45.75176343763528
-0.3237,-46.2327652795894
-0.3247000000000001,-46.75620846053947
-0.3257,-47.46356411047198
-0.3267000000000001,-48.029448630417996
-0.3277,-48.51045047237211
-0.3287000000000001,-48.80753984534376
-0.3297,-49.118776331314066
-0.3307000000000001,-49.50074838227763
-0.3317,-49.98175022423175
-0.3327000000000001,-50.60422319617236
-0.3337,-51.29743173310623
-0.3347000000000001,-51.948198931044146
-0.3357,-52.514083450990164
-0.3367000000000001,-52.95264395394832
-0.3377,-53.30632177891458
-0.3387000000000001,-53.603411151886235
-0.3397,-54.08441299384035
-0.3407000000000001,-54.73518019177827
-0.3417,-55.56985985869864
-0.3427000000000001,-56.44698086461496
-0.3437,-57.182630740544774
-0.3447000000000001,-57.7485152604908
-0.3457,-58.18707576344896
-0.3467000000000001,-58.583194927411164
-0.3477,-59.02175543036933
-0.3487000000000001,-59.54519861131939
-0.3497,-60.23840714825326
-0.3507000000000001,-61.01649836317903
-0.3517,-61.80873669110345
-0.3527000000000001,-62.459503889041365
-0.3537,-63.06782974798333
-0.3547000000000001,-63.54883158993744
-0.3557,-64.19959878787537
-0.35670000000000013,-64.99183711579978
-0.3577,-65.91139946071206
-0.35870000000000013,-66.9582858226122
-0.3597,-67.9202895065204
-0.36070000000000013,-68.78326339943808
-0.3617,-69.4906190493706
-0.3626999999999999,-70.05650356931662
-0.3637,-70.62238808926263
-0.3646999999999999,-71.31559662619651
-0.3657,-72.15027629311687
-0.3666999999999999,-73.09813286402644
-0.3677,-74.06013654793468
-0.3686999999999999,-74.89481621485504
-0.36970000000000003,-75.54558341279296
-0.3706999999999999,-76.06902659374302
-0.37170000000000003,-76.46514575770523
-0.3726999999999999,-76.98858893865528
-0.37370000000000003,-77.63935613659322
-0.3746999999999999,-78.55891848150549
-0.37570000000000003,-79.60580484340561
-0.3766999999999999,-80.73757388329766
-0.37770000000000004,-81.65713622820991
-0.3786999999999999,-82.47766878213164
-0.37970000000000004,-83.26990711005605
-0.3806999999999999,-84.04799832498183
-0.38170000000000004,-84.92511933089816
-0.38269999999999993,-85.97200569279828
-0.38370000000000004,-87.10377473269031
-0.38469999999999993,-88.23554377258235
-0.38570000000000004,-89.28243013448247
-0.38669999999999993,-88.7589869535324
-0.38570000000000004,-85.80224033681448
-0.38469999999999993,-83.08599464107361
-0.38370000000000004,-80.65269120530574
-0.38269999999999993,-78.60135982050144
-0.38170000000000004,-76.9037062606634
-0.3806999999999999,-75.4182593958051
-0.37970000000000004,-73.89037119195086
-0.3786999999999999,-72.32004164910067
-0.37770000000000004,-70.57994675026669
-0.3766999999999999,-68.86814607742998
-0.37570000000000003,-67.2978165345798
-0.3746999999999999,-65.82651678272015
-0.37370000000000003,-64.55327661284163
-0.3726999999999999,-63.421507572949594
-0.37170000000000003,-62.33217987205352
-0.3706999999999999,-61.11552815416958
-0.36970000000000003,-59.7998466452951
-0.3686999999999999,-58.498312249419264
-0.3677,-57.22507207954074
-0.3666999999999999,-56.093303039648696
-0.3657,-55.13129935574048
-0.3646999999999999,-54.31076680181876
-0.3637,-53.433645795902436
-0.3626999999999999,-52.471642111994214
-0.3617,-51.33987307210218
-0.36070000000000013,-50.1656626932142
-0.3597,-48.89242252333566
-0.35870000000000013,-47.71821214444768
-0.3577,-46.67132578254756
-0.35670000000000013,-45.75176343763528
-0.3557,-44.93123088371356
-0.3547000000000001,-44.011668538801295
-0.3537,-42.96478217690117
-0.3527000000000001,-41.83301313700913
-0.3517,-40.65880275812115
-0.3507000000000001,-39.61191639622103
-0.3497,-38.734795390304704
-0.3487000000000001,-37.99914551437489
-0.3477,-37.334231203438314
-0.3467000000000001,-36.5985813275085
-0.3457,-35.721460321592176
-0.3447000000000001,-34.717015298688004
-0.3437,-33.627687597791926
-0.3427000000000001,-32.58080123589179
-0.3417,-31.661238890979522
-0.3407000000000001,-30.88314767605375
-0.3397,-30.147497800123933
-0.3387000000000001,-29.440142150191413
-0.3377,-28.662050935265643
-0.3367000000000001,-27.700047251357418
-0.3357,-26.738043567449193
-0.3347000000000001,-25.691157205549064
-0.3337,-24.729153521640843
-0.3327000000000001,-23.993503645711023
-0.3317,-23.385177786769056
-0.3307000000000001,-22.819293266823045
-0.3297,-22.15437895588647
-0.3287000000000001,-21.333846401964752
-0.3277,-20.414284057052477
-0.3267000000000001,-19.409839034148305
-0.3257,-18.49027668923603
-0.3247000000000001,-17.75462681330621
-0.3237,-17.146300954364243
-0.3227000000000001,-16.622857773414182
-0.3217,-16.056973253468165
-0.3207000000000001,-15.349617603535648
-0.3197,-14.486643710617974
-0.3187000000000001,-13.567081365705702
-0.3177,-12.73806054398479
-0.3167000000000001,-11.996751822855511
-0.3157,-11.385596541313816
-0.3147000000000001,-10.906009410659568
-0.3137,-10.382566229709504
-0.3127000000000001,-9.81668170976349
-0.3117,-9.073958277334345
-0.3107000000000001,-8.246352166913299
-0.3097,-7.4173313451923875
-0.3087000000000001,-6.6760226240631075
-0.3077,-6.108723392817228
-0.3067000000000001,-5.629136262162981
-0.30569999999999997,-5.235846520800501
-0.3047000000000001,-4.712403339850438
-0.30369999999999997,-4.102662769608606
-0.3027000000000001,-3.361354048479327
-0.30169999999999997,-2.576189277054232
-0.3007000000000001,-1.8334658446250875
-0.29969999999999997,-1.2671569112891135
-0.2987000000000001,-0.8308599464107361
-0.29769999999999996,-0.48199213986401795
-0.2967000000000001,-0.04582249900262853
-0.29569999999999996,0.43403342679859325
-0.2947000000000001,1.1317690398920295
-0.29369999999999996,1.8292217107254924
-0.29270000000000007,2.5280890928588207
-0.29169999999999996,3.0515322738088844
-0.29070000000000007,3.4872633541673155
-0.28969999999999996,3.7928409949381634
-0.28870000000000007,4.140859974704963
-0.28769999999999996,4.534149716067443
-0.28670000000000007,5.101448947313322
-0.28569999999999995,5.7111895175551535
-0.28470000000000006,6.366200849392665
-0.28369999999999995,6.975941419634496
-0.28270000000000006,7.32537511070116
-0.28169999999999995,7.630952751472008
-0.28070000000000006,7.848818291651225
-0.27969999999999995,8.154395932422071
-0.27870000000000006,8.63398306307632
-0.27769999999999995,9.201282294322198
-0.27670000000000006,9.811022864564029
-0.27569999999999995,10.37832209580991
-0.27470000000000006,10.771611837172388
-0.27369999999999994,11.033333427647422
-0.27270000000000005,11.20734291753082
-0.27169999999999994,11.425208457710037
-0.27070000000000005,11.818498199072517
-0.26969999999999994,12.254229279430946
-0.26870000000000005,12.865384560972643
-0.26769999999999994,13.344971691626892
-0.26670000000000005,13.736846721689506
