Potential V vs RHE, Current mA cm-2
0.013299999999999867,-0.002205534916489592
0.012299999999999978,-1.9650339955125358
0.011299999999999866,-3.840941179133574
0.010299999999999976,-5.629136262162981
0.009299999999999864,-7.28576319430494
0.008299999999999974,-8.725939297567548
0.007299999999999862,-10.034547249942705
0.006299999999999972,-11.299299152022046
0.00529999999999986,-12.346185513922174
0.0042999999999999705,-13.436927926118118
0.0032999999999998586,-14.444202371622024
0.0022999999999999687,-15.491088733522153
0.0012999999999998568,-16.622857773414182
0.00029999999999996696,-17.669744135314307
-0.000700000000000145,-18.759071836210385
-0.0017000000000000348,-19.721075520118614
-0.0027000000000001467,-20.626490752032236
-0.0037000000000000366,-21.376287740960702
-0.0047000000000001485,-22.027054938898623
-0.005700000000000038,-22.63538079784059
-0.00670000000000015,-23.1163826397947
-0.00770000000000004,-23.682267159740714
-0.008700000000000152,-24.24815167968673
-0.009700000000000042,-24.870624651627345
-0.010700000000000154,-25.521391849565262
-0.011700000000000044,-26.17215904750318
-0.012700000000000156,-26.822926245441096
-0.013700000000000045,-27.38881076538711
-0.014700000000000157,-27.869812607341224
-0.015700000000000047,-28.22349043230748
-0.01670000000000016,-28.53472691827779
-0.01770000000000005,-28.746933613257543
-0.01870000000000016,-29.001581647233255
-0.01970000000000005,-29.22793545521166
-0.020700000000000163,-29.525024828183312
-0.021700000000000053,-29.878702653149578
-0.022700000000000164,-30.317263156107735
-0.023700000000000054,-30.71338232006995
-0.024700000000000166,-31.052913032037555
-0.025700000000000056,-31.40659085700382
-0.026700000000000168,-31.618797551983565
-0.027700000000000058,-31.802710020966025
-0.02870000000000017,-31.930034037953877
-0.02970000000000006,-32.01491671594578
-0.03070000000000017,-32.14224073293363
-0.03170000000000006,-32.283711862920136
-0.03270000000000017,-32.45347721890394
-0.03370000000000006,-32.66568391388369
-0.034700000000000175,-32.93447906085806
-0.035700000000000065,-33.288156885824314
-0.03670000000000018,-33.54280491980002
-0.03770000000000007,-33.81160006677438
-0.03870000000000018,-33.93892408376223
-0.03970000000000007,-33.98136542275818
-0.04070000000000018,-34.02380676175414
-0.04170000000000007,-33.93892408376223
-0.04270000000000018,-33.98136542275818
-0.04370000000000007,-34.02380676175414
-0.044700000000000184,-34.10868943974604
-0.045700000000000074,-34.278454795729836
-0.046700000000000186,-34.462367264712285
-0.047700000000000076,-34.632132620696105
-0.04870000000000019,-34.717015298688004
-0.04970000000000008,-34.75945663768395
-0.05070000000000019,-34.717015298688004
-0.05170000000000008,-34.632132620696105
-0.05270000000000019,-34.50480860370825
-0.05370000000000008,-34.377484586720385
-0.05470000000000019,-34.33504324772444
-0.05570000000000008,-34.377484586720385
-0.056700000000000195,-34.462367264712285
-0.057700000000000085,-34.58969128170015
-0.058700000000000196,-34.8018979766799
-0.059700000000000086,-34.98581044566235
-0.0607000000000002,-35.15557580164616
-0.06170000000000009,-35.240458479638065
-0.0627000000000002,-35.240458479638065
-0.06370000000000009,-35.15557580164616
-0.0647000000000002,-35.02825178465831
-0.06570000000000009,-34.94336910666641
-0.0667000000000002,-34.85848642867451
-0.0677000000000001,-34.90092776767045
-0.0687000000000002,-34.98581044566235
-0.0697000000000001,-35.15557580164616
-0.07070000000000021,-35.32534115762997
-0.0717000000000001,-35.42437094862052
-0.07270000000000021,-35.50925362661242
-0.0737000000000001,-35.46681228761647
-0.07470000000000021,-35.32534115762997
-0.0757000000000001,-35.15557580164616
-0.07670000000000021,-34.94336910666641
-0.0777000000000001,-34.85848642867451
-0.07870000000000021,-34.8018979766799
-0.0797000000000001,-34.85848642867451
-0.08070000000000022,-34.98581044566235
-0.0817000000000001,-35.15557580164616
-0.08270000000000022,-35.38192960962457
-0.08370000000000011,-35.55169496560837
-0.08470000000000022,-35.679018982596226
-0.08570000000000011,-35.679018982596226
-0.08670000000000022,-35.636577643600276
-0.08770000000000011,-35.46681228761647
-0.08870000000000022,-35.38192960962457
-0.08970000000000011,-35.198017140642115
-0.09070000000000022,-35.198017140642115
-0.09170000000000011,-35.240458479638065
-0.09270000000000023,-35.32534115762997
-0.09370000000000012,-35.50925362661242
-0.09470000000000023,-35.636577643600276
-0.09570000000000012,-35.763901660588125
-0.09670000000000023,-35.806342999584075
-0.09770000000000012,-35.763901660588125
-0.09870000000000023,-35.679018982596226
-0.09970000000000012,-35.55169496560837
-0.10070000000000023,-35.46681228761647
-0.10170000000000012,-35.32534115762997
-0.10270000000000024,-35.32534115762997
-0.10370000000000013,-35.38192960962457
-0.10470000000000024,-35.42437094862052
-0.10570000000000013,-35.55169496560837
-0.10670000000000024,-35.594136304604326
-0.10770000000000013,-35.679018982596226
-0.10870000000000024,-35.594136304604326
-0.10970000000000013,-35.50925362661242
-0.11070000000000024,-35.42437094862052
-0.11170000000000013,-35.240458479638065
-0.11270000000000002,-35.198017140642115
-0.11370000000000013,-35.198017140642115
-0.11470000000000002,-35.240458479638065
-0.11570000000000014,-35.32534115762997
-0.11670000000000003,-35.46681228761647
-0.11770000000000014,-35.679018982596226
-0.11870000000000003,-35.763901660588125
-0.11970000000000014,-35.721460321592176
-0.12070000000000003,-35.679018982596226
-0.12170000000000014,-35.55169496560837
-0.12270000000000003,-35.42437094862052
-0.12370000000000014,-35.282899818634014
-0.12470000000000003,-35.15557580164616
-0.12570000000000014,-35.198017140642115
-0.12670000000000003,-35.282899818634014
-0.12770000000000015,-35.42437094862052
-0.12870000000000004,-35.636577643600276
-0.12970000000000015,-35.806342999584075
-0.13070000000000004,-35.94781412957058
-0.13170000000000015,-35.94781412957058
-0.13270000000000004,-35.90537279057463
-0.13370000000000015,-35.806342999584075
-0.13470000000000004,-35.636577643600276
-0.13570000000000015,-35.50925362661242
-0.13670000000000004,-35.42437094862052
-0.13770000000000016,-35.42437094862052
-0.13870000000000005,-35.55169496560837
-0.13970000000000016,-35.636577643600276
-0.14070000000000005,-35.848784338580025
-0.14170000000000016,-35.99025546856653
-0.14270000000000005,-36.07513814655844
-0.14370000000000016,-36.03269680756248
-0.14470000000000005,-35.94781412957058
-0.14570000000000016,-35.806342999584075
-0.14670000000000005,-35.679018982596226
-0.14770000000000016,-35.594136304604326
-0.14870000000000005,-35.55169496560837
-0.14970000000000017,-35.594136304604326
-0.15070000000000006,-35.679018982596226
-0.15170000000000017,-35.848784338580025
-0.15270000000000006,-35.99025546856653
-0.15370000000000017,-36.11757948555439
-0.15470000000000006,-36.11757948555439
-0.15570000000000017,-36.11757948555439
-0.15670000000000006,-36.03269680756248
-0.15770000000000017,-35.848784338580025
-0.15870000000000006,-35.721460321592176
-0.15970000000000018,-35.594136304604326
-0.16070000000000007,-35.55169496560837
-0.16170000000000018,-35.594136304604326
-0.16270000000000007,-35.721460321592176
-0.16370000000000018,-35.94781412957058
-0.16470000000000007,-36.11757948555439
-0.16570000000000018,-36.244903502542236
-0.16670000000000007,-36.28734484153819
-0.16770000000000018,-36.28734484153819
-0.16870000000000007,-36.20246216354629
-0.16970000000000018,-36.07513814655844
-0.17070000000000007,-35.99025546856653
-0.17170000000000019,-35.90537279057463
-0.17270000000000008,-35.94781412957058
-0.1737000000000002,-36.07513814655844
-0.17470000000000008,-36.16002082455034
-0.1757000000000002,-36.329786180534136
-0.17670000000000008,-36.47125731052064
-0.1777000000000002,-36.5985813275085
-0.17870000000000008,-36.55613998851254
-0.1797000000000002,-36.47125731052064
-0.18070000000000008,-36.329786180534136
-0.1817000000000002,-36.16002082455034
-0.18270000000000008,-36.11757948555439
-0.1837000000000002,-36.07513814655844
-0.1847000000000001,-36.16002082455034
-0.1857000000000002,-36.28734484153819
-0.1867000000000001,-36.47125731052064
-0.1877000000000002,-36.6834640055004
-0.1887000000000001,-36.81078802248826
-0.1897000000000002,-36.89567070048016
-0.1907000000000001,-36.89567070048016
-0.1917000000000001,-36.81078802248826
-0.19269999999999998,-36.6834640055004
-0.1937000000000001,-36.5136986495166
-0.19469999999999998,-36.37222751953009
-0.1957000000000001,-36.37222751953009
-0.19669999999999999,-36.4288159715247
-0.1977000000000001,-36.55613998851254
-0.1987,-36.725905344496354
-0.1997000000000001,-36.89567070048016
-0.2007,-37.037141830466666
-0.2017000000000001,-37.07958316946261
-0.2027,-37.037141830466666
-0.2037000000000001,-36.95225915247476
-0.2047,-36.725905344496354
-0.2057000000000001,-36.64102266650445
-0.2067,-36.55613998851254
-0.2077000000000001,-36.55613998851254
-0.2087,-36.6834640055004
-0.2097000000000001,-36.8532293614842
-0.2107,-37.07958316946261
-0.2117000000000001,-37.249348525446415
-0.2127,-37.376672542434264
-0.2137000000000001,-37.41911388143023
-0.2147,-37.376672542434264
-0.2157000000000001,-37.376672542434264
-0.2167,-37.249348525446415
-0.21770000000000012,-37.206907186450465
-0.2187,-37.164465847454515
-0.21970000000000012,-37.206907186450465
-0.2207,-37.334231203438314
-0.22170000000000012,-37.51814367242077
-0.2227,-37.73035036740053
-0.22370000000000012,-37.85767438438838
-0.2247,-37.94255706238028
-0.22570000000000012,-37.94255706238028
-0.2267,-37.85767438438838
-0.22770000000000012,-37.73035036740053
-0.22870000000000001,-37.60302635041268
-0.22970000000000013,-37.56058501141672
-0.23070000000000002,-37.60302635041268
-0.23170000000000013,-37.645467689408626
-0.23270000000000002,-37.85767438438838
-0.23370000000000013,-38.04158685337084
-0.23470000000000002,-38.29623488734655
-0.23570000000000013,-38.42355890433439
-0.23670000000000002,-38.522588695324956
-0.2376999999999999,-38.46600024333035
-0.23870000000000002,-38.42355890433439
-0.2396999999999999,-38.33867622634249
-0.24070000000000003,-38.253793548350586
-0.24169999999999991,-38.211352209354644
-0.24270000000000003,-38.253793548350586
-0.24369999999999992,-38.46600024333035
-0.24470000000000003,-38.6499127123128
-0.24569999999999992,-38.90456074628851
-0.24670000000000003,-39.130914554266916
-0.24769999999999992,-39.34312124924667
-0.24870000000000003,-39.42800392723857
-0.24969999999999992,-39.38556258824262
-0.25070000000000003,-39.38556258824262
-0.2516999999999999,-39.30067991025072
-0.25270000000000004,-39.30067991025072
-0.2536999999999999,-39.34312124924667
-0.25470000000000004,-39.42800392723857
-0.2556999999999999,-39.61191639622103
-0.25670000000000004,-39.78168175220483
-0.25769999999999993,-39.99388844718459
-0.25870000000000004,-40.177800916167044
-0.25969999999999993,-40.30512493315489
-0.26070000000000004,-40.34756627215084
-0.26169999999999993,-40.30512493315489
-0.26270000000000004,-40.30512493315489
-0.26369999999999993,-40.220242255162994
-0.26470000000000005,-40.220242255162994
-0.26569999999999994,-40.30512493315489
-0.26670000000000005,-40.4748902891387
-0.26769999999999994,-40.701244097117105
-0.26870000000000005,-40.99833347008877
-0.26969999999999994,-41.267128617063115
-0.27070000000000005,-41.52177665103883
-0.27169999999999994,-41.606659329030734
-0.27270000000000005,-41.74813045901723
-0.27369999999999994,-41.74813045901723
-0.27470000000000006,-41.74813045901723
-0.27569999999999995,-41.83301313700913
-0.27670000000000006,-41.87545447600508
-0.27769999999999995,-42.04521983198889
-0.27870000000000006,-42.31401497896325
-0.27969999999999995,-42.568663012938956
-0.28070000000000006,-42.92234083790521
-0.28169999999999995,-43.17698887188092
-0.28270000000000006,-43.44578401885527
-0.28369999999999995,-43.57310803584313
-0.28470000000000006,-43.61554937483908
-0.28569999999999995,-43.657990713835034
-0.28670000000000007,-43.657990713835034
-0.28769999999999996,-43.70043205283099
-0.28870000000000007,-43.79946184382153
-0.28969999999999996,-44.011668538801295
-0.29070000000000007,-44.3229050247716
-0.29169999999999996,-44.66243573673921
-0.29270000000000007,-45.05855490070142
-0.29369999999999996,-45.36979138667173
-0.2947000000000001,-45.624439420647434
-0.29569999999999996,-45.85079322862584
-0.2967000000000001,-45.97811724561369
-0.29769999999999996,-46.062999923605595
-0.2987000000000001,-46.147882601597495
-0.29969999999999997,-46.27520661858535
-0.3007000000000001,-46.501560426563756
-0.30169999999999997,-46.79864979953541
-0.3027000000000001,-47.15232762450167
-0.30369999999999997,-47.590888127459834
-0.3047000000000001,-47.987007291422046
-0.30569999999999997,-48.41142068138156
-0.3067000000000001,-48.72265716735186
-0.3077,-48.97730520132757
-0.3087000000000001,-49.20365900930597
-0.3097,-49.373424365289786
-0.3107000000000001,-49.59977817326819
-0.3117,-49.81198486824794
-0.3127000000000001,-50.12322135421825
-0.3137,-50.50519340518181
-0.3147000000000001,-50.90131256914402
-0.3157,-51.424755750094086
-0.3167000000000001,-51.82087491405629
-0.3177,-52.25943541701445
-0.3187000000000001,-52.59896612898206
-0.3197,-52.78287859796452
-0.3207000000000001,-52.995085292944275
-0.3217,-53.12240930993213
-0.3227000000000001,-53.39120445690648
-0.3237,-53.64585249088219
-0.3247000000000001,-54.0419716548444
-0.3257,-54.56541483579447
-0.3267000000000001,-55.13129935574048
-0.3277,-55.6971838756865
-0.3287000000000001,-56.26306839563251
-0.3297,-56.74407023758662
-0.3307000000000001,-57.182630740544774
-0.3317,-57.53630856551105
-0.3327000000000001,-57.8333979384827
-0.3337,-58.18707576344896
-0.3347000000000001,-58.583194927411164
-0.3357,-59.02175543036933
-0.3367000000000001,-59.54519861131939
-0.3377,-60.15352447026136
-0.3387000000000001,-60.761850329203334
-0.3397,-61.412617527141244
-0.3407000000000001,-61.97850204708726
-0.3417,-62.501945228037314
-0.3427000000000001,-62.98294706999144
-0.3437,-63.46394891194555
-0.3447000000000001,-63.860068075907755
-0.3457,-64.29862857886593
-0.3467000000000001,-64.72304196882543
-0.3477,-65.3030736017701
-0.3487000000000001,-65.95384079970802
-0.3497,-66.60460799764593
-0.3507000000000001,-67.34025787357575
-0.3517,-68.04761352350828
-0.3527000000000001,-68.74082206044213
-0.3537,-69.30670658038814
-0.3547000000000001,-69.74526708334632
-0.3557,-70.18382758630447
-0.35670000000000013,-70.62238808926263
-0.3577,-71.1458312702127
-0.35870000000000013,-71.7965984681506
-0.3597,-72.57468968307639
-0.36070000000000013,-73.49425202798865
-0.3617,-74.45625571189689
-0.3626999999999999,-75.46070073480107
-0.3637,-76.33782174071737
-0.3646999999999999,-77.11591295564315
-0.3657,-77.90815128356756
-0.3666999999999999,-78.51647714250953
-0.3677,-79.08236166245555
-0.3686999999999999,-79.64824618240156
-0.36970000000000003,-80.29901338033947
-0.3706999999999999,-80.99222191727335
-0.37170000000000003,-81.78446024519776
-0.3726999999999999,-82.61913991211814
-0.37370000000000003,-83.43967246603985
-0.3746999999999999,-84.27435213296022
-0.37570000000000003,-85.052443347886
-0.3766999999999999,-85.75979899781852
-0.37770000000000004,-86.36812485676049
-0.3786999999999999,-87.01889205469841
-0.37970000000000004,-87.62721791364037
-0.3806999999999999,-88.32042645057423
-0.38170000000000004,-89.11266477849867
-0.38269999999999993,-90.03222712341093
-0.38370000000000004,-91.03667214631511
-0.38469999999999993,-92.16844118620713
-0.38570000000000004,-93.30021022609918
-0.38669999999999993,-93.03141507912481
-0.38570000000000004,-90.28687515738663
-0.38469999999999993,-87.71210059163228
-0.38370000000000004,-85.23635581686847
-0.38269999999999993,-82.9162292850898
-0.38170000000000004,-80.61024986630979
-0.3806999999999999,-78.47403580351359
-0.37970000000000004,-76.46514575770523
-0.3786999999999999,-74.62602106788069
-0.37770000000000004,-72.92836750804264
-0.3766999999999999,-71.27315528720055
-0.37570000000000003,-69.78770842234226
-0.3746999999999999,-68.21737887949207
-0.37370000000000003,-66.64704933664189
-0.3726999999999999,-65.0767197937917
-0.37170000000000003,-63.5063902509415
-0.3706999999999999,-61.936060708091304
-0.36970000000000003,-60.40817250423707
-0.3686999999999999,-58.92272563937878
-0.3677,-57.57874990450699
-0.3666999999999999,-56.36209818662306
-0.3657,-55.21618203373238
-0.3646999999999999,-54.1268543328363
-0.3637,-53.12240930993213
-0.3626999999999999,-52.033081609036046
-0.3617,-50.85887123014807
-0.36070000000000013,-49.68466085126009
-0.3597,-48.36897934238561
-0.35870000000000013,-47.02500360751382
-0.3577,-45.75176343763528
-0.35670000000000013,-44.535111719751356
-0.3557,-43.40334267985933
-0.3547000000000001,-42.39889765695515
-0.3537,-41.39445263405098
-0.3527000000000001,-40.4748902891387
-0.3517,-39.56947505722508
-0.3507000000000001,-38.607471373316855
-0.3497,-37.56058501141672
-0.3487000000000001,-36.47125731052064
-0.3477,-35.38192960962457
-0.3467000000000001,-34.193572117737936
-0.3457,-33.10424441684186
-0.3447000000000001,-32.05735805494172
-0.3437,-31.137795710029454
-0.3427000000000001,-30.274821817111786
-0.3417,-29.440142150191413
-0.3407000000000001,-28.704492274261593
-0.3397,-27.912253946337174
-0.3387000000000001,-27.091721392415455
-0.3377,-26.17215904750318
-0.3367000000000001,-25.167714024599
-0.3357,-24.16326900169483
-0.3347000000000001,-23.1163826397947
-0.3337,-22.111937616890522
-0.3327000000000001,-21.248963723972853
-0.3317,-20.414284057052477
-0.3307000000000001,-19.678634181122664
-0.3297,-18.97127853119014
-0.3287000000000001,-18.27806999425627
-0.3277,-17.542420118326454
-0.3267000000000001,-16.70774045140608
-0.3257,-15.830619445489761
-0.3247000000000001,-14.868615761581536
-0.3237,-13.872659006476551
-0.3227000000000001,-12.99978213445982
-0.3217,-12.12831997374296
-0.3207000000000001,-11.299299152022046
-0.3197,-10.601846481188586
-0.3187000000000001,-9.946835149351072
-0.3177,-9.379535918105192
-0.3167000000000001,-8.725939297567548
-0.3157,-8.070927965730034
-0.3147000000000001,-7.329619244600755
-0.3137,-6.54445447317566
-0.3127000000000001,-5.715433651454749
-0.3117,-4.800115440442069
-0.3107000000000001,-4.014950669016974
-0.3097,-3.2297858975918787
-0.3087000000000001,-2.532333226758415
-0.3077,-1.9650339955125358
-0.3067000000000001,-1.4415908145624723
-0.30569999999999997,-0.9181476336124089
-0.3047000000000001,-0.3511313446265021
-0.30369999999999997,0.2594580523952477
-0.3027000000000001,0.9573351366186703
-0.30169999999999997,1.6990682711379093
-0.3007000000000001,2.4842330425630044
-0.29969999999999997,3.225541763692284
-0.2987000000000001,3.9668504848215624
-0.29769999999999996,4.6218618166590755
-0.2967000000000001,5.145304997609139
-0.29569999999999996,5.624892128263387
-0.2947000000000001,6.1044792589176335
-0.29369999999999996,6.496354288980249
-0.29270000000000007,6.975941419634496
-0.29169999999999996,7.543240650880375
-0.29070000000000007,8.154395932422071
-0.28969999999999996,8.80799255295972
-0.28870000000000007,9.549301274088998
-0.28769999999999996,10.20431260592651
-0.28670000000000007,10.857909226464155
-0.28569999999999995,11.38135240741422
-0.28470000000000006,11.862354249368334
-0.28369999999999995,12.254229279430946
-0.28270000000000006,12.603662970497613
-0.28169999999999995,12.995538000560227
-0.28070000000000006,13.431269080918659
-0.27969999999999995,13.91227092287277
-0.27870000000000006,14.472496597619326
-0.27769999999999995,15.05252823056399
-0.27670000000000006,15.74573676749786
-0.27569999999999995,16.311621287443874
-0.27470000000000006,16.792623129397985
-0.27369999999999994,17.231183632356142
-0.27270000000000005,17.570714344323754
-0.27169999999999994,17.881950830294063
-0.27070000000000005,18.13659886426977
-0.26969999999999994,18.44783535024008
-0.26870000000000005,18.843954514202288
-0.26769999999999994,19.22592656516585
-0.26670000000000005,19.805958198110513
-0.26569999999999994,20.272812927065978
-0.26470000000000005,20.85284456001064
