June 28, 2026   01:08:05
Cyclic Voltammetry
File: c:/users/guazh/data/20260623_doe_duplica2/2026-06-24-exp28\exp28-2026-06-28t00_59_35-h2koh\exp28_cv_50mvs_efin_-1500mv.bin
Data Source:  Experiment
Instrument Model:  CHI760E
Header: CV ran at 50 mVs
Note: 

Init E (V) = -1
High E (V) = -1
Low E (V) = -1.5
Final E (V) = -1
Init P/N = N
Scan Rate (V/s) = 0.05
Segment = 7
Sample Interval (V) = 0.001
Quiet Time (sec) = 60
Sensitivity (A/V) = 0.001
Comp R (ohm) = 2.2

Results:

Channel 1:
Segment 1:

Segment 2:

Segment 3:

Segment 4:

Segment 5:

Segment 6:

Segment 7:

Potential/V, Current/A

-1.000, 8.165e-6
-1.001, 1.194e-5
-1.002, 1.282e-5
-1.003, 1.341e-5
-1.004, 1.401e-5
-1.005, 1.448e-5
-1.006, 1.484e-5
-1.007, 1.545e-5
-1.008, 1.569e-5
-1.009, 1.607e-5
-1.010, 1.646e-5
-1.011, 1.658e-5
-1.012, 1.703e-5
-1.013, 1.729e-5
-1.014, 1.741e-5
-1.015, 1.779e-5
-1.016, 1.785e-5
-1.017, 1.805e-5
-1.018, 1.840e-5
-1.019, 1.853e-5
-1.020, 1.873e-5
-1.021, 1.875e-5
-1.022, 1.908e-5
-1.023, 1.935e-5
-1.024, 1.948e-5
-1.025, 1.949e-5
-1.026, 1.963e-5
-1.027, 1.973e-5
-1.028, 2.002e-5
-1.029, 2.012e-5
-1.030, 2.013e-5
-1.031, 2.036e-5
-1.032, 2.039e-5
-1.033, 2.046e-5
-1.034, 2.069e-5
-1.035, 2.071e-5
-1.036, 2.079e-5
-1.037, 2.090e-5
-1.038, 2.095e-5
-1.039, 2.122e-5
-1.040, 2.109e-5
-1.041, 2.121e-5
-1.042, 2.142e-5
-1.043, 2.142e-5
-1.044, 2.160e-5
-1.045, 2.163e-5
-1.046, 2.161e-5
-1.047, 2.185e-5
-1.048, 2.190e-5
-1.049, 2.186e-5
-1.050, 2.217e-5
-1.051, 2.200e-5
-1.052, 2.224e-5
-1.053, 2.233e-5
-1.054, 2.235e-5
-1.055, 2.258e-5
-1.056, 2.246e-5
-1.057, 2.257e-5
-1.058, 2.281e-5
-1.059, 2.271e-5
-1.060, 2.294e-5
-1.061, 2.289e-5
-1.062, 2.313e-5
-1.063, 2.324e-5
-1.064, 2.325e-5
-1.065, 2.325e-5
-1.066, 2.340e-5
-1.067, 2.357e-5
-1.068, 2.362e-5
-1.069, 2.372e-5
-1.070, 2.375e-5
-1.071, 2.395e-5
-1.072, 2.401e-5
-1.073, 2.412e-5
-1.074, 2.423e-5
-1.075, 2.449e-5
-1.076, 2.437e-5
-1.077, 2.449e-5
-1.078, 2.460e-5
-1.079, 2.475e-5
-1.080, 2.474e-5
-1.081, 2.482e-5
-1.082, 2.512e-5
-1.083, 2.508e-5
-1.084, 2.528e-5
-1.085, 2.537e-5
-1.086, 2.528e-5
-1.087, 2.567e-5
-1.088, 2.561e-5
-1.089, 2.583e-5
-1.090, 2.590e-5
-1.091, 2.592e-5
-1.092, 2.627e-5
-1.093, 2.619e-5
-1.094, 2.647e-5
-1.095, 2.646e-5
-1.096, 2.645e-5
-1.097, 2.674e-5
-1.098, 2.684e-5
-1.099, 2.696e-5
-1.100, 2.699e-5
-1.101, 2.720e-5
-1.102, 2.730e-5
-1.103, 2.755e-5
-1.104, 2.747e-5
-1.105, 2.773e-5
-1.106, 2.780e-5
-1.107, 2.791e-5
-1.108, 2.808e-5
-1.109, 2.827e-5
-1.110, 2.840e-5
-1.111, 2.847e-5
-1.112, 2.847e-5
-1.113, 2.873e-5
-1.114, 2.898e-5
-1.115, 2.894e-5
-1.116, 2.894e-5
-1.117, 2.921e-5
-1.118, 2.938e-5
-1.119, 2.960e-5
-1.120, 2.950e-5
-1.121, 2.965e-5
-1.122, 3.001e-5
-1.123, 2.996e-5
-1.124, 3.015e-5
-1.125, 3.030e-5
-1.126, 3.051e-5
-1.127, 3.061e-5
-1.128, 3.069e-5
-1.129, 3.082e-5
-1.130, 3.107e-5
-1.131, 3.114e-5
-1.132, 3.136e-5
-1.133, 3.151e-5
-1.134, 3.151e-5
-1.135, 3.184e-5
-1.136, 3.179e-5
-1.137, 3.195e-5
-1.138, 3.225e-5
-1.139, 3.228e-5
-1.140, 3.246e-5
-1.141, 3.254e-5
-1.142, 3.270e-5
-1.143, 3.301e-5
-1.144, 3.305e-5
-1.145, 3.323e-5
-1.146, 3.347e-5
-1.147, 3.349e-5
-1.148, 3.372e-5
-1.149, 3.396e-5
-1.150, 3.399e-5
-1.151, 3.420e-5
-1.152, 3.436e-5
-1.153, 3.464e-5
-1.154, 3.485e-5
-1.155, 3.482e-5
-1.156, 3.496e-5
-1.157, 3.532e-5
-1.158, 3.557e-5
-1.159, 3.573e-5
-1.160, 3.576e-5
-1.161, 3.594e-5
-1.162, 3.635e-5
-1.163, 3.632e-5
-1.164, 3.667e-5
-1.165, 3.681e-5
-1.166, 3.700e-5
-1.167, 3.737e-5
-1.168, 3.736e-5
-1.169, 3.763e-5
-1.170, 3.798e-5
-1.171, 3.795e-5
-1.172, 3.823e-5
-1.173, 3.858e-5
-1.174, 3.893e-5
-1.175, 3.899e-5
-1.176, 3.917e-5
-1.177, 3.959e-5
-1.178, 3.984e-5
-1.179, 4.004e-5
-1.180, 4.036e-5
-1.181, 4.058e-5
-1.182, 4.074e-5
-1.183, 4.117e-5
-1.184, 4.134e-5
-1.185, 4.159e-5
-1.186, 4.198e-5
-1.187, 4.222e-5
-1.188, 4.263e-5
-1.189, 4.293e-5
-1.190, 4.310e-5
-1.191, 4.357e-5
-1.192, 4.387e-5
-1.193, 4.418e-5
-1.194, 4.468e-5
-1.195, 4.469e-5
-1.196, 4.529e-5
-1.197, 4.561e-5
-1.198, 4.587e-5
-1.199, 4.659e-5
-1.200, 4.667e-5
-1.201, 4.716e-5
-1.202, 4.758e-5
-1.203, 4.795e-5
-1.204, 4.847e-5
-1.205, 4.885e-5
-1.206, 4.911e-5
-1.207, 4.981e-5
-1.208, 5.022e-5
-1.209, 5.077e-5
-1.210, 5.117e-5
-1.211, 5.147e-5
-1.212, 5.227e-5
-1.213, 5.262e-5
-1.214, 5.331e-5
-1.215, 5.374e-5
-1.216, 5.410e-5
-1.217, 5.478e-5
-1.218, 5.555e-5
-1.219, 5.604e-5
-1.220, 5.663e-5
-1.221, 5.713e-5
-1.222, 5.774e-5
-1.223, 5.866e-5
-1.224, 5.906e-5
-1.225, 5.964e-5
-1.226, 6.040e-5
-1.227, 6.109e-5
-1.228, 6.221e-5
-1.229, 6.282e-5
-1.230, 6.342e-5
-1.231, 6.412e-5
-1.232, 6.483e-5
-1.233, 6.558e-5
-1.234, 6.667e-5
-1.235, 6.713e-5
-1.236, 6.810e-5
-1.237, 6.899e-5
-1.238, 6.986e-5
-1.239, 7.082e-5
-1.240, 7.159e-5
-1.241, 7.248e-5
-1.242, 7.355e-5
-1.243, 7.439e-5
-1.244, 7.554e-5
-1.245, 7.661e-5
-1.246, 7.755e-5
-1.247, 7.878e-5
-1.248, 7.955e-5
-1.249, 8.086e-5
-1.250, 8.204e-5
-1.251, 8.314e-5
-1.252, 8.432e-5
-1.253, 8.553e-5
-1.254, 8.689e-5
-1.255, 8.816e-5
-1.256, 8.918e-5
-1.257, 9.063e-5
-1.258, 9.210e-5
-1.259, 9.337e-5
-1.260, 9.461e-5
-1.261, 9.618e-5
-1.262, 9.779e-5
-1.263, 9.930e-5
-1.264, 1.005e-4
-1.265, 1.023e-4
-1.266, 1.040e-4
-1.267, 1.055e-4
-1.268, 1.072e-4
-1.269, 1.089e-4
-1.270, 1.103e-4
-1.271, 1.125e-4
-1.272, 1.140e-4
-1.273, 1.160e-4
-1.274, 1.178e-4
-1.275, 1.196e-4
-1.276, 1.220e-4
-1.277, 1.238e-4
-1.278, 1.257e-4
-1.279, 1.283e-4
-1.280, 1.302e-4
-1.281, 1.324e-4
-1.282, 1.344e-4
-1.283, 1.365e-4
-1.284, 1.393e-4
-1.285, 1.419e-4
-1.286, 1.439e-4
-1.287, 1.464e-4
-1.288, 1.490e-4
-1.289, 1.517e-4
-1.290, 1.544e-4
-1.291, 1.570e-4
-1.292, 1.600e-4
-1.293, 1.628e-4
-1.294, 1.655e-4
-1.295, 1.687e-4
-1.296, 1.716e-4
-1.297, 1.748e-4
-1.298, 1.779e-4
-1.299, 1.812e-4
-1.300, 1.845e-4
-1.301, 1.877e-4
-1.302, 1.913e-4
-1.303, 1.949e-4
-1.304, 1.983e-4
-1.305, 2.019e-4
-1.306, 2.056e-4
-1.307, 2.094e-4
-1.308, 2.134e-4
-1.309, 2.174e-4
-1.310, 2.213e-4
-1.311, 2.256e-4
-1.312, 2.296e-4
-1.313, 2.340e-4
-1.314, 2.384e-4
-1.315, 2.428e-4
-1.316, 2.474e-4
-1.317, 2.520e-4
-1.318, 2.569e-4
-1.319, 2.619e-4
-1.320, 2.666e-4
-1.321, 2.716e-4
-1.322, 2.768e-4
-1.323, 2.819e-4
-1.324, 2.874e-4
-1.325, 2.927e-4
-1.326, 2.983e-4
-1.327, 3.041e-4
-1.328, 3.097e-4
-1.329, 3.158e-4
-1.330, 3.218e-4
-1.331, 3.279e-4
-1.332, 3.343e-4
-1.333, 3.408e-4
-1.334, 3.474e-4
-1.335, 3.539e-4
-1.336, 3.606e-4
-1.337, 3.675e-4
-1.338, 3.747e-4
-1.339, 3.818e-4
-1.340, 3.891e-4
-1.341, 3.966e-4
-1.342, 4.043e-4
-1.343, 4.121e-4
-1.344, 4.200e-4
-1.345, 4.280e-4
-1.346, 4.362e-4
-1.347, 4.442e-4
-1.348, 4.527e-4
-1.349, 4.615e-4
-1.350, 4.703e-4
-1.351, 4.795e-4
-1.352, 4.885e-4
-1.353, 4.978e-4
-1.354, 5.074e-4
-1.355, 5.170e-4
-1.356, 5.266e-4
-1.357, 5.367e-4
-1.358, 5.467e-4
-1.359, 5.574e-4
-1.360, 5.675e-4
-1.361, 5.789e-4
-1.362, 5.898e-4
-1.363, 6.003e-4
-1.364, 6.110e-4
-1.365, 6.228e-4
-1.366, 6.355e-4
-1.367, 6.459e-4
-1.368, 6.570e-4
-1.369, 6.698e-4
-1.370, 6.830e-4
-1.371, 6.945e-4
-1.372, 7.072e-4
-1.373, 7.196e-4
-1.374, 7.336e-4
-1.375, 7.472e-4
-1.376, 7.596e-4
-1.377, 7.733e-4
-1.378, 7.861e-4
-1.379, 8.013e-4
-1.380, 8.152e-4
-1.381, 8.290e-4
-1.382, 8.448e-4
-1.383, 8.608e-4
-1.384, 8.744e-4
-1.385, 8.883e-4
-1.386, 9.044e-4
-1.387, 9.198e-4
-1.388, 9.350e-4
-1.389, 9.527e-4
-1.390, 9.693e-4
-1.391, 9.846e-4
-1.392, 1.002e-3
-1.393, 1.019e-3
-1.394, 1.036e-3
-1.395, 1.054e-3
-1.396, 1.071e-3
-1.397, 1.089e-3
-1.398, 1.107e-3
-1.399, 1.126e-3
-1.400, 1.144e-3
-1.401, 1.163e-3
-1.402, 1.182e-3
-1.403, 1.202e-3
-1.404, 1.221e-3
-1.405, 1.241e-3
-1.406, 1.261e-3
-1.407, 1.281e-3
-1.408, 1.302e-3
-1.409, 1.322e-3
-1.410, 1.344e-3
-1.411, 1.365e-3
-1.412, 1.386e-3
-1.413, 1.407e-3
-1.414, 1.430e-3
-1.415, 1.452e-3
-1.416, 1.475e-3
-1.417, 1.497e-3
-1.418, 1.521e-3
-1.419, 1.543e-3
-1.420, 1.567e-3
-1.421, 1.590e-3
-1.422, 1.614e-3
-1.423, 1.639e-3
-1.424, 1.663e-3
-1.425, 1.688e-3
-1.426, 1.712e-3
-1.427, 1.737e-3
-1.428, 1.763e-3
-1.429, 1.789e-3
-1.430, 1.815e-3
-1.431, 1.841e-3
-1.432, 1.867e-3
-1.433, 1.894e-3
-1.434, 1.922e-3
-1.435, 1.948e-3
-1.436, 1.975e-3
-1.437, 2.003e-3
-1.438, 2.031e-3
-1.439, 2.060e-3
-1.440, 2.088e-3
-1.441, 2.117e-3
-1.442, 2.146e-3
-1.443, 2.174e-3
-1.444, 2.205e-3
-1.445, 2.235e-3
-1.446, 2.265e-3
-1.447, 2.295e-3
-1.448, 2.324e-3
-1.449, 2.355e-3
-1.450, 2.385e-3
-1.451, 2.417e-3
-1.452, 2.449e-3
-1.453, 2.480e-3
-1.454, 2.512e-3
-1.455, 2.545e-3
-1.456, 2.576e-3
-1.457, 2.609e-3
-1.458, 2.642e-3
-1.459, 2.676e-3
-1.460, 2.709e-3
-1.461, 2.743e-3
-1.462, 2.777e-3
-1.463, 2.811e-3
-1.464, 2.846e-3
-1.465, 2.880e-3
-1.466, 2.915e-3
-1.467, 2.952e-3
-1.468, 2.987e-3
-1.469, 3.024e-3
-1.470, 3.059e-3
-1.471, 3.095e-3
-1.472, 3.131e-3
-1.473, 3.170e-3
-1.474, 3.205e-3
-1.475, 3.241e-3
-1.476, 3.275e-3
-1.477, 3.311e-3
-1.478, 3.350e-3
-1.479, 3.389e-3
-1.480, 3.427e-3
-1.481, 3.466e-3
-1.482, 3.504e-3
-1.483, 3.543e-3
-1.484, 3.583e-3
-1.485, 3.624e-3
-1.486, 3.665e-3
-1.487, 3.706e-3
-1.488, 3.744e-3
-1.489, 3.786e-3
-1.490, 3.838e-3
-1.491, 3.887e-3
-1.492, 3.922e-3
-1.493, 3.957e-3
-1.494, 4.007e-3
-1.495, 4.037e-3
-1.496, 4.063e-3
-1.497, 4.107e-3
-1.498, 4.164e-3
-1.499, 4.204e-3
-1.500, 4.187e-3
-1.499, 4.154e-3
-1.498, 4.117e-3
-1.497, 4.069e-3
-1.496, 4.027e-3
-1.495, 3.992e-3
-1.494, 3.947e-3
-1.493, 3.906e-3
-1.492, 3.873e-3
-1.491, 3.832e-3
-1.490, 3.780e-3
-1.489, 3.740e-3
-1.488, 3.704e-3
-1.487, 3.675e-3
-1.486, 3.633e-3
-1.485, 3.597e-3
-1.484, 3.548e-3
-1.483, 3.500e-3
-1.482, 3.474e-3
-1.481, 3.445e-3
-1.480, 3.405e-3
-1.479, 3.362e-3
-1.478, 3.321e-3
-1.477, 3.277e-3
-1.476, 3.250e-3
-1.475, 3.206e-3
-1.474, 3.171e-3
-1.473, 3.129e-3
-1.472, 3.092e-3
-1.471, 3.059e-3
-1.470, 3.034e-3
-1.469, 2.996e-3
-1.468, 2.961e-3
-1.467, 2.923e-3
-1.466, 2.880e-3
-1.465, 2.851e-3
-1.464, 2.818e-3
-1.463, 2.788e-3
-1.462, 2.746e-3
-1.461, 2.720e-3
-1.460, 2.688e-3
-1.459, 2.655e-3
-1.458, 2.625e-3
-1.457, 2.592e-3
-1.456, 2.559e-3
-1.455, 2.524e-3
-1.454, 2.495e-3
-1.453, 2.467e-3
-1.452, 2.436e-3
-1.451, 2.404e-3
-1.450, 2.376e-3
-1.449, 2.349e-3
-1.448, 2.321e-3
-1.447, 2.287e-3
-1.446, 2.261e-3
-1.445, 2.234e-3
-1.444, 2.207e-3
-1.443, 2.181e-3
-1.442, 2.156e-3
-1.441, 2.128e-3
-1.440, 2.100e-3
-1.439, 2.070e-3
-1.438, 2.046e-3
-1.437, 2.024e-3
-1.436, 1.998e-3
-1.435, 1.973e-3
-1.434, 1.950e-3
-1.433, 1.925e-3
-1.432, 1.901e-3
-1.431, 1.877e-3
-1.430, 1.852e-3
-1.429, 1.828e-3
-1.428, 1.805e-3
-1.427, 1.782e-3
-1.426, 1.760e-3
-1.425, 1.736e-3
-1.424, 1.714e-3
-1.423, 1.692e-3
-1.422, 1.670e-3
-1.421, 1.649e-3
-1.420, 1.626e-3
-1.419, 1.605e-3
-1.418, 1.585e-3
-1.417, 1.564e-3
-1.416, 1.544e-3
-1.415, 1.523e-3
-1.414, 1.503e-3
-1.413, 1.484e-3
-1.412, 1.464e-3
-1.411, 1.445e-3
-1.410, 1.426e-3
-1.409, 1.407e-3
-1.408, 1.388e-3
-1.407, 1.370e-3
-1.406, 1.352e-3
-1.405, 1.333e-3
-1.404, 1.315e-3
-1.403, 1.299e-3
-1.402, 1.281e-3
-1.401, 1.264e-3
-1.400, 1.247e-3
-1.399, 1.229e-3
-1.398, 1.212e-3
-1.397, 1.193e-3
-1.396, 1.178e-3
-1.395, 1.162e-3
-1.394, 1.145e-3
-1.393, 1.129e-3
-1.392, 1.114e-3
-1.391, 1.098e-3
-1.390, 1.082e-3
-1.389, 1.067e-3
-1.388, 1.052e-3
-1.387, 1.037e-3
-1.386, 1.023e-3
-1.385, 1.007e-3
-1.384, 9.933e-4
-1.383, 9.792e-4
-1.382, 9.652e-4
-1.381, 9.511e-4
-1.380, 9.370e-4
-1.379, 9.233e-4
-1.378, 9.100e-4
-1.377, 8.965e-4
-1.376, 8.835e-4
-1.375, 8.704e-4
-1.374, 8.577e-4
-1.373, 8.454e-4
-1.372, 8.326e-4
-1.371, 8.195e-4
-1.370, 8.074e-4
-1.369, 7.951e-4
-1.368, 7.830e-4
-1.367, 7.710e-4
-1.366, 7.591e-4
-1.365, 7.476e-4
-1.364, 7.360e-4
-1.363, 7.245e-4
-1.362, 7.131e-4
-1.361, 7.012e-4
-1.360, 6.900e-4
-1.359, 6.784e-4
-1.358, 6.678e-4
-1.357, 6.583e-4
-1.356, 6.481e-4
-1.355, 6.379e-4
-1.354, 6.272e-4
-1.353, 6.151e-4
-1.352, 6.052e-4
-1.351, 5.942e-4
-1.350, 5.857e-4
-1.349, 5.754e-4
-1.348, 5.658e-4
-1.347, 5.559e-4
-1.346, 5.464e-4
-1.345, 5.365e-4
-1.344, 5.266e-4
-1.343, 5.178e-4
-1.342, 5.084e-4
-1.341, 5.000e-4
-1.340, 4.905e-4
-1.339, 4.816e-4
-1.338, 4.728e-4
-1.337, 4.647e-4
-1.336, 4.553e-4
-1.335, 4.467e-4
-1.334, 4.392e-4
-1.333, 4.299e-4
-1.332, 4.219e-4
-1.331, 4.139e-4
-1.330, 4.065e-4
-1.329, 3.976e-4
-1.328, 3.892e-4
-1.327, 3.815e-4
-1.326, 3.742e-4
-1.325, 3.667e-4
-1.324, 3.596e-4
-1.323, 3.520e-4
-1.322, 3.444e-4
-1.321, 3.372e-4
-1.320, 3.300e-4
-1.319, 3.236e-4
-1.318, 3.159e-4
-1.317, 3.092e-4
-1.316, 3.027e-4
-1.315, 2.962e-4
-1.314, 2.894e-4
-1.313, 2.829e-4
-1.312, 2.769e-4
-1.311, 2.707e-4
-1.310, 2.644e-4
-1.309, 2.582e-4
-1.308, 2.523e-4
-1.307, 2.463e-4
-1.306, 2.406e-4
-1.305, 2.347e-4
-1.304, 2.292e-4
-1.303, 2.238e-4
-1.302, 2.182e-4
-1.301, 2.126e-4
-1.300, 2.073e-4
-1.299, 2.021e-4
-1.298, 1.969e-4
-1.297, 1.916e-4
-1.296, 1.870e-4
-1.295, 1.824e-4
-1.294, 1.771e-4
-1.293, 1.724e-4
-1.292, 1.678e-4
-1.291, 1.628e-4
-1.290, 1.584e-4
-1.289, 1.539e-4
-1.288, 1.498e-4
-1.287, 1.456e-4
-1.286, 1.411e-4
-1.285, 1.370e-4
-1.284, 1.327e-4
-1.283, 1.287e-4
-1.282, 1.250e-4
-1.281, 1.209e-4
-1.280, 1.169e-4
-1.279, 1.134e-4
-1.278, 1.096e-4
-1.277, 1.060e-4
-1.276, 1.022e-4
-1.275, 9.875e-5
-1.274, 9.540e-5
-1.273, 9.203e-5
-1.272, 8.870e-5
-1.271, 8.531e-5
-1.270, 8.185e-5
-1.269, 7.895e-5
-1.268, 7.574e-5
-1.267, 7.255e-5
-1.266, 6.964e-5
-1.265, 6.640e-5
-1.264, 6.369e-5
-1.263, 6.076e-5
-1.262, 5.781e-5
-1.261, 5.520e-5
-1.260, 5.249e-5
-1.259, 4.968e-5
-1.258, 4.702e-5
-1.257, 4.438e-5
-1.256, 4.203e-5
-1.255, 3.939e-5
-1.254, 3.672e-5
-1.253, 3.458e-5
-1.252, 3.220e-5
-1.251, 2.959e-5
-1.250, 2.737e-5
-1.249, 2.512e-5
-1.248, 2.291e-5
-1.247, 2.084e-5
-1.246, 1.853e-5
-1.245, 1.645e-5
-1.244, 1.447e-5
-1.243, 1.237e-5
-1.242, 1.036e-5
-1.241, 8.311e-6
-1.240, 6.433e-6
-1.239, 4.589e-6
-1.238, 2.523e-6
-1.237, 8.443e-7
-1.236, -1.028e-6
-1.235, -2.873e-6
-1.234, -4.555e-6
-1.233, -6.357e-6
-1.232, -7.990e-6
-1.231, -9.583e-6
-1.230, -1.126e-5
-1.229, -1.313e-5
-1.228, -1.449e-5
-1.227, -1.604e-5
-1.226, -1.746e-5
-1.225, -1.912e-5
-1.224, -2.035e-5
-1.223, -2.169e-5
-1.222, -2.319e-5
-1.221, -2.442e-5
-1.220, -2.584e-5
-1.219, -2.714e-5
-1.218, -2.824e-5
-1.217, -2.969e-5
-1.216, -3.085e-5
-1.215, -3.189e-5
-1.214, -3.303e-5
-1.213, -3.397e-5
-1.212, -3.508e-5
-1.211, -3.628e-5
-1.210, -3.738e-5
-1.209, -3.842e-5
-1.208, -3.936e-5
-1.207, -4.029e-5
-1.206, -4.158e-5
-1.205, -4.235e-5
-1.204, -4.337e-5
-1.203, -4.418e-5
-1.202, -4.512e-5
-1.201, -4.609e-5
-1.200, -4.682e-5
-1.199, -4.763e-5
-1.198, -4.845e-5
-1.197, -4.912e-5
-1.196, -4.998e-5
-1.195, -5.077e-5
-1.194, -5.133e-5
-1.193, -5.208e-5
-1.192, -5.266e-5
-1.191, -5.338e-5
-1.190, -5.412e-5
-1.189, -5.460e-5
-1.188, -5.514e-5
-1.187, -5.577e-5
-1.186, -5.622e-5
-1.185, -5.687e-5
-1.184, -5.729e-5
-1.183, -5.766e-5
-1.182, -5.820e-5
-1.181, -5.862e-5
-1.180, -5.904e-5
-1.179, -5.942e-5
-1.178, -5.978e-5
-1.177, -6.010e-5
-1.176, -6.038e-5
-1.175, -6.071e-5
-1.174, -6.107e-5
-1.173, -6.118e-5
-1.172, -6.149e-5
-1.171, -6.167e-5
-1.170, -6.177e-5
-1.169, -6.212e-5
-1.168, -6.204e-5
-1.167, -6.227e-5
-1.166, -6.258e-5
-1.165, -6.250e-5
-1.164, -6.248e-5
-1.163, -6.278e-5
-1.162, -6.261e-5
-1.161, -6.276e-5
-1.160, -6.279e-5
-1.159, -6.292e-5
-1.158, -6.285e-5
-1.157, -6.270e-5
-1.156, -6.265e-5
-1.155, -6.278e-5
-1.154, -6.252e-5
-1.153, -6.261e-5
-1.152, -6.238e-5
-1.151, -6.231e-5
-1.150, -6.239e-5
-1.149, -6.207e-5
-1.148, -6.198e-5
-1.147, -6.188e-5
-1.146, -6.166e-5
-1.145, -6.159e-5
-1.144, -6.129e-5
-1.143, -6.112e-5
-1.142, -6.109e-5
-1.141, -6.073e-5
-1.140, -6.071e-5
-1.139, -6.056e-5
-1.138, -6.022e-5
-1.137, -6.003e-5
-1.136, -5.996e-5
-1.135, -5.965e-5
-1.134, -5.967e-5
-1.133, -5.935e-5
-1.132, -5.908e-5
-1.131, -5.904e-5
-1.130, -5.874e-5
-1.129, -5.868e-5
-1.128, -5.823e-5
-1.127, -5.807e-5
-1.126, -5.804e-5
-1.125, -5.777e-5
-1.124, -5.733e-5
-1.123, -5.730e-5
-1.122, -5.694e-5
-1.121, -5.692e-5
-1.120, -5.665e-5
-1.119, -5.642e-5
-1.118, -5.628e-5
-1.117, -5.588e-5
-1.116, -5.572e-5
-1.115, -5.555e-5
-1.114, -5.530e-5
-1.113, -5.518e-5
-1.112, -5.485e-5
-1.111, -5.478e-5
-1.110, -5.476e-5
-1.109, -5.423e-5
-1.108, -5.403e-5
-1.107, -5.400e-5
-1.106, -5.369e-5
-1.105, -5.366e-5
-1.104, -5.333e-5
-1.103, -5.303e-5
-1.102, -5.304e-5
-1.101, -5.285e-5
-1.100, -5.268e-5
-1.099, -5.257e-5
-1.098, -5.227e-5
-1.097, -5.218e-5
-1.096, -5.198e-5
-1.095, -5.179e-5
-1.094, -5.173e-5
-1.093, -5.146e-5
-1.092, -5.128e-5
-1.091, -5.124e-5
-1.090, -5.106e-5
-1.089, -5.094e-5
-1.088, -5.071e-5
-1.087, -5.058e-5
-1.086, -5.068e-5
-1.085, -5.036e-5
-1.084, -5.025e-5
-1.083, -5.028e-5
-1.082, -5.006e-5
-1.081, -5.015e-5
-1.080, -4.993e-5
-1.079, -4.981e-5
-1.078, -4.988e-5
-1.077, -4.969e-5
-1.076, -4.979e-5
-1.075, -4.989e-5
-1.074, -4.971e-5
-1.073, -4.971e-5
-1.072, -4.958e-5
-1.071, -4.953e-5
-1.070, -4.970e-5
-1.069, -4.950e-5
-1.068, -4.953e-5
-1.067, -4.967e-5
-1.066, -4.958e-5
-1.065, -4.970e-5
-1.064, -4.962e-5
-1.063, -4.961e-5
-1.062, -4.995e-5
-1.061, -4.977e-5
-1.060, -4.991e-5
-1.059, -5.006e-5
-1.058, -5.007e-5
-1.057, -5.019e-5
-1.056, -5.017e-5
-1.055, -5.031e-5
-1.054, -5.049e-5
-1.053, -5.052e-5
-1.052, -5.069e-5
-1.051, -5.077e-5
-1.050, -5.104e-5
-1.049, -5.110e-5
-1.048, -5.128e-5
-1.047, -5.141e-5
-1.046, -5.169e-5
-1.045, -5.177e-5
-1.044, -5.186e-5
-1.043, -5.214e-5
-1.042, -5.235e-5
-1.041, -5.264e-5
-1.040, -5.275e-5
-1.039, -5.288e-5
-1.038, -5.327e-5
-1.037, -5.340e-5
-1.036, -5.367e-5
-1.035, -5.399e-5
-1.034, -5.415e-5
-1.033, -5.450e-5
-1.032, -5.472e-5
-1.031, -5.495e-5
-1.030, -5.540e-5
-1.029, -5.545e-5
-1.028, -5.580e-5
-1.027, -5.622e-5
-1.026, -5.639e-5
-1.025, -5.691e-5
-1.024, -5.708e-5
-1.023, -5.729e-5
-1.022, -5.796e-5
-1.021, -5.818e-5
-1.020, -5.845e-5
-1.019, -5.885e-5
-1.018, -5.912e-5
-1.017, -5.960e-5
-1.016, -5.990e-5
-1.015, -6.036e-5
-1.014, -6.088e-5
-1.013, -6.102e-5
-1.012, -6.155e-5
-1.011, -6.204e-5
-1.010, -6.242e-5
-1.009, -6.292e-5
-1.008, -6.321e-5
-1.007, -6.365e-5
-1.006, -6.429e-5
-1.005, -6.458e-5
-1.004, -6.504e-5
-1.003, -6.545e-5
-1.002, -6.581e-5
-1.001, -6.658e-5
-1.000, -4.671e-5
-1.001, -3.873e-5
-1.002, -3.581e-5
-1.003, -3.350e-5
-1.004, -3.137e-5
-1.005, -2.952e-5
-1.006, -2.772e-5
-1.007, -2.586e-5
-1.008, -2.447e-5
-1.009, -2.302e-5
-1.010, -2.158e-5
-1.011, -2.035e-5
-1.012, -1.900e-5
-1.013, -1.781e-5
-1.014, -1.677e-5
-1.015, -1.558e-5
-1.016, -1.459e-5
-1.017, -1.357e-5
-1.018, -1.247e-5
-1.019, -1.171e-5
-1.020, -1.079e-5
-1.021, -9.848e-6
-1.022, -9.000e-6
-1.023, -8.119e-6
-1.024, -7.337e-6
-1.025, -6.729e-6
-1.026, -5.759e-6
-1.027, -5.228e-6
-1.028, -4.477e-6
-1.029, -3.824e-6
-1.030, -3.265e-6
-1.031, -2.437e-6
-1.032, -1.976e-6
-1.033, -1.300e-6
-1.034, -7.056e-7
-1.035, -2.478e-7
-1.036, 3.550e-7
-1.037, 8.937e-7
-1.038, 1.368e-6
-1.039, 1.985e-6
-1.040, 2.274e-6
-1.041, 2.761e-6
-1.042, 3.406e-6
-1.043, 3.751e-6
-1.044, 4.138e-6
-1.045, 4.602e-6
-1.046, 4.955e-6
-1.047, 5.440e-6
-1.048, 5.731e-6
-1.049, 6.146e-6
-1.050, 6.613e-6
-1.051, 6.803e-6
-1.052, 7.284e-6
-1.053, 7.483e-6
-1.054, 7.784e-6
-1.055, 8.166e-6
-1.056, 8.423e-6
-1.057, 8.764e-6
-1.058, 9.091e-6
-1.059, 9.296e-6
-1.060, 9.599e-6
-1.061, 9.842e-6
-1.062, 1.011e-5
-1.063, 1.047e-5
-1.064, 1.053e-5
-1.065, 1.073e-5
-1.066, 1.111e-5
-1.067, 1.128e-5
-1.068, 1.149e-5
-1.069, 1.168e-5
-1.070, 1.184e-5
-1.071, 1.222e-5
-1.072, 1.221e-5
-1.073, 1.244e-5
-1.074, 1.266e-5
-1.075, 1.292e-5
-1.076, 1.303e-5
-1.077, 1.327e-5
-1.078, 1.330e-5
-1.079, 1.360e-5
-1.080, 1.352e-5
-1.081, 1.384e-5
-1.082, 1.404e-5
-1.083, 1.409e-5
-1.084, 1.424e-5
-1.085, 1.451e-5
-1.086, 1.452e-5
-1.087, 1.487e-5
-1.088, 1.485e-5
-1.089, 1.492e-5
-1.090, 1.517e-5
-1.091, 1.521e-5
-1.092, 1.545e-5
-1.093, 1.554e-5
-1.094, 1.565e-5
-1.095, 1.585e-5
-1.096, 1.590e-5
-1.097, 1.598e-5
-1.098, 1.626e-5
-1.099, 1.626e-5
-1.100, 1.648e-5
-1.101, 1.661e-5
-1.102, 1.671e-5
-1.103, 1.695e-5
-1.104, 1.688e-5
-1.105, 1.705e-5
-1.106, 1.724e-5
-1.107, 1.733e-5
-1.108, 1.751e-5
-1.109, 1.754e-5
-1.110, 1.767e-5
-1.111, 1.791e-5
-1.112, 1.794e-5
-1.113, 1.805e-5
-1.114, 1.828e-5
-1.115, 1.828e-5
-1.116, 1.856e-5
-1.117, 1.860e-5
-1.118, 1.869e-5
-1.119, 1.892e-5
-1.120, 1.899e-5
-1.121, 1.911e-5
-1.122, 1.932e-5
-1.123, 1.932e-5
-1.124, 1.957e-5
-1.125, 1.967e-5
-1.126, 1.978e-5
-1.127, 1.997e-5
-1.128, 2.005e-5
-1.129, 2.011e-5
-1.130, 2.036e-5
-1.131, 2.046e-5
-1.132, 2.066e-5
-1.133, 2.073e-5
-1.134, 2.088e-5
-1.135, 2.102e-5
-1.136, 2.113e-5
-1.137, 2.135e-5
-1.138, 2.146e-5
-1.139, 2.162e-5
-1.140, 2.177e-5
-1.141, 2.187e-5
-1.142, 2.202e-5
-1.143, 2.222e-5
-1.144, 2.233e-5
-1.145, 2.241e-5
-1.146, 2.272e-5
-1.147, 2.288e-5
-1.148, 2.296e-5
-1.149, 2.318e-5
-1.150, 2.316e-5
-1.151, 2.358e-5
-1.152, 2.361e-5
-1.153, 2.371e-5
-1.154, 2.409e-5
-1.155, 2.402e-5
-1.156, 2.426e-5
-1.157, 2.450e-5
-1.158, 2.462e-5
-1.159, 2.489e-5
-1.160, 2.494e-5
-1.161, 2.517e-5
-1.162, 2.545e-5
-1.163, 2.551e-5
-1.164, 2.567e-5
-1.165, 2.599e-5
-1.166, 2.612e-5
-1.167, 2.638e-5
-1.168, 2.652e-5
-1.169, 2.668e-5
-1.170, 2.708e-5
-1.171, 2.713e-5
-1.172, 2.740e-5
-1.173, 2.760e-5
-1.174, 2.778e-5
-1.175, 2.807e-5
-1.176, 2.831e-5
-1.177, 2.862e-5
-1.178, 2.890e-5
-1.179, 2.898e-5
-1.180, 2.929e-5
-1.181, 2.952e-5
-1.182, 2.975e-5
-1.183, 3.015e-5
-1.184, 3.027e-5
-1.185, 3.055e-5
-1.186, 3.096e-5
-1.187, 3.116e-5
-1.188, 3.151e-5
-1.189, 3.179e-5
-1.190, 3.209e-5
-1.191, 3.252e-5
-1.192, 3.269e-5
-1.193, 3.309e-5
-1.194, 3.347e-5
-1.195, 3.373e-5
-1.196, 3.422e-5
-1.197, 3.456e-5
-1.198, 3.484e-5
-1.199, 3.535e-5
-1.200, 3.552e-5
-1.201, 3.600e-5
-1.202, 3.650e-5
-1.203, 3.692e-5
-1.204, 3.733e-5
-1.205, 3.771e-5
-1.206, 3.816e-5
-1.207, 3.875e-5
-1.208, 3.918e-5
-1.209, 3.954e-5
-1.210, 4.022e-5
-1.211, 4.062e-5
-1.212, 4.122e-5
-1.213, 4.164e-5
-1.214, 4.217e-5
-1.215, 4.288e-5
-1.216, 4.330e-5
-1.217, 4.401e-5
-1.218, 4.451e-5
-1.219, 4.515e-5
-1.220, 4.571e-5
-1.221, 4.642e-5
-1.222, 4.707e-5
-1.223, 4.780e-5
-1.224, 4.833e-5
-1.225, 4.898e-5
-1.226, 4.986e-5
-1.227, 5.051e-5
-1.228, 5.140e-5
-1.229, 5.212e-5
-1.230, 5.278e-5
-1.231, 5.379e-5
-1.232, 5.432e-5
-1.233, 5.530e-5
-1.234, 5.608e-5
-1.235, 5.682e-5
-1.236, 5.784e-5
-1.237, 5.875e-5
-1.238, 5.955e-5
-1.239, 6.052e-5
-1.240, 6.142e-5
-1.241, 6.242e-5
-1.242, 6.357e-5
-1.243, 6.441e-5
-1.244, 6.547e-5
-1.245, 6.647e-5
-1.246, 6.753e-5
-1.247, 6.876e-5
-1.248, 6.980e-5
-1.249, 7.084e-5
-1.250, 7.219e-5
-1.251, 7.332e-5
-1.252, 7.460e-5
-1.253, 7.572e-5
-1.254, 7.685e-5
-1.255, 7.836e-5
-1.256, 7.958e-5
-1.257, 8.095e-5
-1.258, 8.244e-5
-1.259, 8.363e-5
-1.260, 8.514e-5
-1.261, 8.660e-5
-1.262, 8.805e-5
-1.263, 8.962e-5
-1.264, 9.095e-5
-1.265, 9.257e-5
-1.266, 9.426e-5
-1.267, 9.583e-5
-1.268, 9.761e-5
-1.269, 9.915e-5
-1.270, 1.008e-4
-1.271, 1.027e-4
-1.272, 1.044e-4
-1.273, 1.063e-4
-1.274, 1.082e-4
-1.275, 1.099e-4
-1.276, 1.119e-4
-1.277, 1.138e-4
-1.278, 1.158e-4
-1.279, 1.179e-4
-1.280, 1.200e-4
-1.281, 1.220e-4
-1.282, 1.243e-4
-1.283, 1.264e-4
-1.284, 1.285e-4
-1.285, 1.309e-4
-1.286, 1.332e-4
-1.287, 1.356e-4
-1.288, 1.379e-4
-1.289, 1.403e-4
-1.290, 1.429e-4
-1.291, 1.454e-4
-1.292, 1.480e-4
-1.293, 1.506e-4
-1.294, 1.534e-4
-1.295, 1.561e-4
-1.296, 1.589e-4
-1.297, 1.616e-4
-1.298, 1.646e-4
-1.299, 1.677e-4
-1.300, 1.707e-4
-1.301, 1.736e-4
-1.302, 1.766e-4
-1.303, 1.800e-4
-1.304, 1.830e-4
-1.305, 1.862e-4
-1.306, 1.897e-4
-1.307, 1.928e-4
-1.308, 1.969e-4
-1.309, 2.001e-4
-1.310, 2.036e-4
-1.311, 2.073e-4
-1.312, 2.107e-4
-1.313, 2.146e-4
-1.314, 2.186e-4
-1.315, 2.222e-4
-1.316, 2.262e-4
-1.317, 2.301e-4
-1.318, 2.342e-4
-1.319, 2.387e-4
-1.320, 2.428e-4
-1.321, 2.470e-4
-1.322, 2.514e-4
-1.323, 2.557e-4
-1.324, 2.604e-4
-1.325, 2.648e-4
-1.326, 2.695e-4
-1.327, 2.739e-4
-1.328, 2.787e-4
-1.329, 2.840e-4
-1.330, 2.890e-4
-1.331, 2.935e-4
-1.332, 2.988e-4
-1.333, 3.043e-4
-1.334, 3.093e-4
-1.335, 3.149e-4
-1.336, 3.200e-4
-1.337, 3.257e-4
-1.338, 3.311e-4
-1.339, 3.371e-4
-1.340, 3.425e-4
-1.341, 3.484e-4
-1.342, 3.548e-4
-1.343, 3.610e-4
-1.344, 3.664e-4
-1.345, 3.728e-4
-1.346, 3.790e-4
-1.347, 3.851e-4
-1.348, 3.921e-4
-1.349, 3.984e-4
-1.350, 4.052e-4
-1.351, 4.118e-4
-1.352, 4.189e-4
-1.353, 4.257e-4
-1.354, 4.321e-4
-1.355, 4.391e-4
-1.356, 4.470e-4
-1.357, 4.542e-4
-1.358, 4.613e-4
-1.359, 4.687e-4
-1.360, 4.767e-4
-1.361, 4.839e-4
-1.362, 4.916e-4
-1.363, 4.995e-4
-1.364, 5.076e-4
-1.365, 5.155e-4
-1.366, 5.239e-4
-1.367, 5.312e-4
-1.368, 5.400e-4
-1.369, 5.489e-4
-1.370, 5.575e-4
-1.371, 5.651e-4
-1.372, 5.747e-4
-1.373, 5.834e-4
-1.374, 5.919e-4
-1.375, 6.017e-4
-1.376, 6.098e-4
-1.377, 6.190e-4
-1.378, 6.286e-4
-1.379, 6.381e-4
-1.380, 6.480e-4
-1.381, 6.584e-4
-1.382, 6.671e-4
-1.383, 6.771e-4
-1.384, 6.870e-4
-1.385, 6.971e-4
-1.386, 7.079e-4
-1.387, 7.179e-4
-1.388, 7.275e-4
-1.389, 7.376e-4
-1.390, 7.490e-4
-1.391, 7.599e-4
-1.392, 7.711e-4
-1.393, 7.817e-4
-1.394, 7.926e-4
-1.395, 8.026e-4
-1.396, 8.151e-4
-1.397, 8.269e-4
-1.398, 8.384e-4
-1.399, 8.483e-4
-1.400, 8.602e-4
-1.401, 8.733e-4
-1.402, 8.857e-4
-1.403, 8.963e-4
-1.404, 9.092e-4
-1.405, 9.196e-4
-1.406, 9.329e-4
-1.407, 9.466e-4
-1.408, 9.593e-4
-1.409, 9.705e-4
-1.410, 9.848e-4
-1.411, 9.967e-4
-1.412, 1.010e-3
-1.413, 1.024e-3
-1.414, 1.037e-3
-1.415, 1.050e-3
-1.416, 1.062e-3
-1.417, 1.077e-3
-1.418, 1.091e-3
-1.419, 1.106e-3
-1.420, 1.120e-3
-1.421, 1.135e-3
-1.422, 1.148e-3
-1.423, 1.164e-3
-1.424, 1.177e-3
-1.425, 1.190e-3
-1.426, 1.207e-3
-1.427, 1.222e-3
-1.428, 1.236e-3
-1.429, 1.249e-3
-1.430, 1.267e-3
-1.431, 1.284e-3
-1.432, 1.300e-3
-1.433, 1.314e-3
-1.434, 1.329e-3
-1.435, 1.345e-3
-1.436, 1.363e-3
-1.437, 1.378e-3
-1.438, 1.395e-3
-1.439, 1.410e-3
-1.440, 1.428e-3
-1.441, 1.446e-3
-1.442, 1.463e-3
-1.443, 1.479e-3
-1.444, 1.496e-3
-1.445, 1.513e-3
-1.446, 1.532e-3
-1.447, 1.549e-3
-1.448, 1.566e-3
-1.449, 1.585e-3
-1.450, 1.604e-3
-1.451, 1.623e-3
-1.452, 1.641e-3
-1.453, 1.658e-3
-1.454, 1.679e-3
-1.455, 1.699e-3
-1.456, 1.714e-3
-1.457, 1.732e-3
-1.458, 1.755e-3
-1.459, 1.777e-3
-1.460, 1.795e-3
-1.461, 1.814e-3
-1.462, 1.832e-3
-1.463, 1.855e-3
-1.464, 1.876e-3
-1.465, 1.894e-3
-1.466, 1.916e-3
-1.467, 1.936e-3
-1.468, 1.959e-3
-1.469, 1.979e-3
-1.470, 1.997e-3
-1.471, 2.021e-3
-1.472, 2.028e-3
-1.473, 2.053e-3
-1.474, 2.074e-3
-1.475, 2.095e-3
-1.476, 2.117e-3
-1.477, 2.141e-3
-1.478, 2.165e-3
-1.479, 2.190e-3
-1.480, 2.213e-3
-1.481, 2.236e-3
-1.482, 2.259e-3
-1.483, 2.285e-3
-1.484, 2.310e-3
-1.485, 2.334e-3
-1.486, 2.359e-3
-1.487, 2.384e-3
-1.488, 2.410e-3
-1.489, 2.436e-3
-1.490, 2.461e-3
-1.491, 2.486e-3
-1.492, 2.512e-3
-1.493, 2.538e-3
-1.494, 2.564e-3
-1.495, 2.592e-3
-1.496, 2.619e-3
-1.497, 2.646e-3
-1.498, 2.670e-3
-1.499, 2.687e-3
-1.500, 2.678e-3
-1.499, 2.650e-3
-1.498, 2.624e-3
-1.497, 2.598e-3
-1.496, 2.573e-3
-1.495, 2.548e-3
-1.494, 2.523e-3
-1.493, 2.497e-3
-1.492, 2.472e-3
-1.491, 2.446e-3
-1.490, 2.421e-3
-1.489, 2.396e-3
-1.488, 2.369e-3
-1.487, 2.343e-3
-1.486, 2.318e-3
-1.485, 2.294e-3
-1.484, 2.270e-3
-1.483, 2.247e-3
-1.482, 2.224e-3
-1.481, 2.201e-3
-1.480, 2.177e-3
-1.479, 2.154e-3
-1.478, 2.131e-3
-1.477, 2.109e-3
-1.476, 2.086e-3
-1.475, 2.064e-3
-1.474, 2.041e-3
-1.473, 2.020e-3
-1.472, 1.998e-3
-1.471, 1.977e-3
-1.470, 1.955e-3
-1.469, 1.934e-3
-1.468, 1.913e-3
-1.467, 1.893e-3
-1.466, 1.872e-3
-1.465, 1.852e-3
-1.464, 1.831e-3
-1.463, 1.811e-3
-1.462, 1.791e-3
-1.461, 1.772e-3
-1.460, 1.752e-3
-1.459, 1.733e-3
-1.458, 1.713e-3
-1.457, 1.694e-3
-1.456, 1.675e-3
-1.455, 1.657e-3
-1.454, 1.638e-3
-1.453, 1.621e-3
-1.452, 1.602e-3
-1.451, 1.584e-3
-1.450, 1.566e-3
-1.449, 1.547e-3
-1.448, 1.528e-3
-1.447, 1.511e-3
-1.446, 1.493e-3
-1.445, 1.475e-3
-1.444, 1.458e-3
-1.443, 1.441e-3
-1.442, 1.424e-3
-1.441, 1.408e-3
-1.440, 1.392e-3
-1.439, 1.376e-3
-1.438, 1.361e-3
-1.437, 1.346e-3
-1.436, 1.331e-3
-1.435, 1.314e-3
-1.434, 1.299e-3
-1.433, 1.284e-3
-1.432, 1.269e-3
-1.431, 1.255e-3
-1.430, 1.240e-3
-1.429, 1.225e-3
-1.428, 1.210e-3
-1.427, 1.196e-3
-1.426, 1.182e-3
-1.425, 1.167e-3
-1.424, 1.154e-3
-1.423, 1.139e-3
-1.422, 1.126e-3
-1.421, 1.113e-3
-1.420, 1.099e-3
-1.419, 1.086e-3
-1.418, 1.074e-3
-1.417, 1.060e-3
-1.416, 1.047e-3
-1.415, 1.034e-3
-1.414, 1.021e-3
-1.413, 1.009e-3
-1.412, 9.957e-4
-1.411, 9.827e-4
-1.410, 9.709e-4
-1.409, 9.589e-4
-1.408, 9.474e-4
-1.407, 9.351e-4
-1.406, 9.234e-4
-1.405, 9.122e-4
-1.404, 9.013e-4
-1.403, 8.896e-4
-1.402, 8.785e-4
-1.401, 8.666e-4
-1.400, 8.555e-4
-1.399, 8.443e-4
-1.398, 8.335e-4
-1.397, 8.234e-4
-1.396, 8.128e-4
-1.395, 8.020e-4
-1.394, 7.916e-4
-1.393, 7.815e-4
-1.392, 7.712e-4
-1.391, 7.609e-4
-1.390, 7.509e-4
-1.389, 7.412e-4
-1.388, 7.314e-4
-1.387, 7.218e-4
-1.386, 7.121e-4
-1.385, 7.024e-4
-1.384, 6.930e-4
-1.383, 6.835e-4
-1.382, 6.742e-4
-1.381, 6.653e-4
-1.380, 6.561e-4
-1.379, 6.473e-4
-1.378, 6.383e-4
-1.377, 6.297e-4
-1.376, 6.209e-4
-1.375, 6.118e-4
-1.374, 6.031e-4
-1.373, 5.949e-4
-1.372, 5.871e-4
-1.371, 5.787e-4
-1.370, 5.703e-4
-1.369, 5.620e-4
-1.368, 5.538e-4
-1.367, 5.459e-4
-1.366, 5.380e-4
-1.365, 5.303e-4
-1.364, 5.225e-4
-1.363, 5.149e-4
-1.362, 5.074e-4
-1.361, 4.999e-4
-1.360, 4.927e-4
-1.359, 4.854e-4
-1.358, 4.780e-4
-1.357, 4.710e-4
-1.356, 4.637e-4
-1.355, 4.565e-4
-1.354, 4.497e-4
-1.353, 4.430e-4
-1.352, 4.361e-4
-1.351, 4.295e-4
-1.350, 4.227e-4
-1.349, 4.174e-4
-1.348, 4.100e-4
-1.347, 4.032e-4
-1.346, 3.969e-4
-1.345, 3.905e-4
-1.344, 3.843e-4
-1.343, 3.783e-4
-1.342, 3.718e-4
-1.341, 3.641e-4
-1.340, 3.582e-4
-1.339, 3.525e-4
-1.338, 3.469e-4
-1.337, 3.411e-4
-1.336, 3.355e-4
-1.335, 3.295e-4
-1.334, 3.238e-4
-1.333, 3.183e-4
-1.332, 3.129e-4
-1.331, 3.073e-4
-1.330, 3.019e-4
-1.329, 2.964e-4
-1.328, 2.914e-4
-1.327, 2.862e-4
-1.326, 2.809e-4
-1.325, 2.758e-4
-1.324, 2.709e-4
-1.323, 2.659e-4
-1.322, 2.609e-4
-1.321, 2.559e-4
-1.320, 2.512e-4
-1.319, 2.465e-4
-1.318, 2.416e-4
-1.317, 2.371e-4
-1.316, 2.325e-4
-1.315, 2.278e-4
-1.314, 2.234e-4
-1.313, 2.188e-4
-1.312, 2.145e-4
-1.311, 2.102e-4
-1.310, 2.058e-4
-1.309, 2.017e-4
-1.308, 1.973e-4
-1.307, 1.931e-4
-1.306, 1.893e-4
-1.305, 1.850e-4
-1.304, 1.812e-4
-1.303, 1.771e-4
-1.302, 1.731e-4
-1.301, 1.694e-4
-1.300, 1.656e-4
-1.299, 1.616e-4
-1.298, 1.581e-4
-1.297, 1.544e-4
-1.296, 1.508e-4
-1.295, 1.473e-4
-1.294, 1.436e-4
-1.293, 1.403e-4
-1.292, 1.369e-4
-1.291, 1.334e-4
-1.290, 1.301e-4
-1.289, 1.269e-4
-1.288, 1.239e-4
-1.287, 1.207e-4
-1.286, 1.175e-4
-1.285, 1.146e-4
-1.284, 1.115e-4
-1.283, 1.084e-4
-1.282, 1.057e-4
-1.281, 1.027e-4
-1.280, 9.980e-5
-1.279, 9.711e-5
-1.278, 9.418e-5
-1.277, 9.167e-5
-1.276, 8.897e-5
-1.275, 8.621e-5
-1.274, 8.378e-5
-1.273, 8.122e-5
-1.272, 7.867e-5
-1.271, 7.619e-5
-1.270, 7.368e-5
-1.269, 7.145e-5
-1.268, 6.912e-5
-1.267, 6.667e-5
-1.266, 6.453e-5
-1.265, 6.218e-5
-1.264, 6.009e-5
-1.263, 5.799e-5
-1.262, 5.582e-5
-1.261, 5.381e-5
-1.260, 5.173e-5
-1.259, 4.971e-5
-1.258, 4.787e-5
-1.257, 4.589e-5
-1.256, 4.401e-5
-1.255, 4.210e-5
-1.254, 4.014e-5
-1.253, 3.855e-5
-1.252, 3.678e-5
-1.251, 3.492e-5
-1.250, 3.321e-5
-1.249, 3.159e-5
-1.248, 3.001e-5
-1.247, 2.842e-5
-1.246, 2.675e-5
-1.245, 2.523e-5
-1.244, 2.377e-5
-1.243, 2.219e-5
-1.242, 2.083e-5
-1.241, 1.928e-5
-1.240, 1.798e-5
-1.239, 1.665e-5
-1.238, 1.519e-5
-1.237, 1.399e-5
-1.236, 1.267e-5
-1.235, 1.122e-5
-1.234, 1.012e-5
-1.233, 8.849e-6
-1.232, 7.756e-6
-1.231, 6.522e-6
-1.230, 5.210e-6
-1.229, 3.908e-6
-1.228, 3.058e-6
-1.227, 1.914e-6
-1.226, 9.578e-7
-1.225, -1.679e-7
-1.224, -1.082e-6
-1.223, -2.047e-6
-1.222, -3.066e-6
-1.221, -3.942e-6
-1.220, -4.887e-6
-1.219, -5.855e-6
-1.218, -6.622e-6
-1.217, -7.523e-6
-1.216, -8.314e-6
-1.215, -9.126e-6
-1.214, -1.003e-5
-1.213, -1.063e-5
-1.212, -1.134e-5
-1.211, -1.230e-5
-1.210, -1.291e-5
-1.209, -1.364e-5
-1.208, -1.417e-5
-1.207, -1.488e-5
-1.206, -1.566e-5
-1.205, -1.612e-5
-1.204, -1.682e-5
-1.203, -1.738e-5
-1.202, -1.792e-5
-1.201, -1.854e-5
-1.200, -1.897e-5
-1.199, -1.952e-5
-1.198, -2.010e-5
-1.197, -2.040e-5
-1.196, -2.091e-5
-1.195, -2.150e-5
-1.194, -2.179e-5
-1.193, -2.237e-5
-1.192, -2.264e-5
-1.191, -2.305e-5
-1.190, -2.358e-5
-1.189, -2.378e-5
-1.188, -2.412e-5
-1.187, -2.457e-5
-1.186, -2.478e-5
-1.185, -2.527e-5
-1.184, -2.544e-5
-1.183, -2.567e-5
-1.182, -2.615e-5
-1.181, -2.629e-5
-1.180, -2.665e-5
-1.179, -2.687e-5
-1.178, -2.709e-5
-1.177, -2.738e-5
-1.176, -2.741e-5
-1.175, -2.769e-5
-1.174, -2.806e-5
-1.173, -2.799e-5
-1.172, -2.826e-5
-1.171, -2.846e-5
-1.170, -2.861e-5
-1.169, -2.877e-5
-1.168, -2.878e-5
-1.167, -2.906e-5
-1.166, -2.921e-5
-1.165, -2.927e-5
-1.164, -2.939e-5
-1.163, -2.958e-5
-1.162, -2.958e-5
-1.161, -2.979e-5
-1.160, -2.981e-5
-1.159, -2.987e-5
-1.158, -3.001e-5
-1.157, -2.995e-5
-1.156, -3.008e-5
-1.155, -3.030e-5
-1.154, -3.022e-5
-1.153, -3.030e-5
-1.152, -3.031e-5
-1.151, -3.034e-5
-1.150, -3.053e-5
-1.149, -3.047e-5
-1.148, -3.048e-5
-1.147, -3.052e-5
-1.146, -3.054e-5
-1.145, -3.065e-5
-1.144, -3.053e-5
-1.143, -3.050e-5
-1.142, -3.063e-5
-1.141, -3.058e-5
-1.140, -3.060e-5
-1.139, -3.071e-5
-1.138, -3.057e-5
-1.137, -3.066e-5
-1.136, -3.054e-5
-1.135, -3.060e-5
-1.134, -3.074e-5
-1.133, -3.049e-5
-1.132, -3.059e-5
-1.131, -3.063e-5
-1.130, -3.057e-5
-1.129, -3.072e-5
-1.128, -3.052e-5
-1.127, -3.054e-5
-1.126, -3.066e-5
-1.125, -3.058e-5
-1.124, -3.057e-5
-1.123, -3.055e-5
-1.122, -3.047e-5
-1.121, -3.065e-5
-1.120, -3.053e-5
-1.119, -3.053e-5
-1.118, -3.064e-5
-1.117, -3.047e-5
-1.116, -3.051e-5
-1.115, -3.056e-5
-1.114, -3.056e-5
-1.113, -3.057e-5
-1.112, -3.050e-5
-1.111, -3.053e-5
-1.110, -3.067e-5
-1.109, -3.053e-5
-1.108, -3.055e-5
-1.107, -3.064e-5
-1.106, -3.063e-5
-1.105, -3.074e-5
-1.104, -3.067e-5
-1.103, -3.070e-5
-1.102, -3.070e-5
-1.101, -3.073e-5
-1.100, -3.079e-5
-1.099, -3.090e-5
-1.098, -3.086e-5
-1.097, -3.090e-5
-1.096, -3.097e-5
-1.095, -3.098e-5
-1.094, -3.109e-5
-1.093, -3.104e-5
-1.092, -3.112e-5
-1.091, -3.124e-5
-1.090, -3.123e-5
-1.089, -3.137e-5
-1.088, -3.144e-5
-1.087, -3.145e-5
-1.086, -3.165e-5
-1.085, -3.159e-5
-1.084, -3.166e-5
-1.083, -3.185e-5
-1.082, -3.191e-5
-1.081, -3.204e-5
-1.080, -3.210e-5
-1.079, -3.225e-5
-1.078, -3.237e-5
-1.077, -3.234e-5
-1.076, -3.259e-5
-1.075, -3.280e-5
-1.074, -3.280e-5
-1.073, -3.292e-5
-1.072, -3.298e-5
-1.071, -3.307e-5
-1.070, -3.334e-5
-1.069, -3.335e-5
-1.068, -3.343e-5
-1.067, -3.377e-5
-1.066, -3.375e-5
-1.065, -3.401e-5
-1.064, -3.407e-5
-1.063, -3.419e-5
-1.062, -3.450e-5
-1.061, -3.448e-5
-1.060, -3.480e-5
-1.059, -3.494e-5
-1.058, -3.499e-5
-1.057, -3.539e-5
-1.056, -3.545e-5
-1.055, -3.556e-5
-1.054, -3.593e-5
-1.053, -3.599e-5
-1.052, -3.612e-5
-1.051, -3.655e-5
-1.050, -3.667e-5
-1.049, -3.694e-5
-1.048, -3.709e-5
-1.047, -3.720e-5
-1.046, -3.759e-5
-1.045, -3.776e-5
-1.044, -3.804e-5
-1.043, -3.832e-5
-1.042, -3.845e-5
-1.041, -3.885e-5
-1.040, -3.898e-5
-1.039, -3.925e-5
-1.038, -3.962e-5
-1.037, -3.972e-5
-1.036, -4.002e-5
-1.035, -4.044e-5
-1.034, -4.055e-5
-1.033, -4.094e-5
-1.032, -4.115e-5
-1.031, -4.137e-5
-1.030, -4.193e-5
-1.029, -4.205e-5
-1.028, -4.232e-5
-1.027, -4.269e-5
-1.026, -4.290e-5
-1.025, -4.337e-5
-1.024, -4.360e-5
-1.023, -4.386e-5
-1.022, -4.432e-5
-1.021, -4.452e-5
-1.020, -4.482e-5
-1.019, -4.531e-5
-1.018, -4.546e-5
-1.017, -4.595e-5
-1.016, -4.616e-5
-1.015, -4.653e-5
-1.014, -4.692e-5
-1.013, -4.717e-5
-1.012, -4.753e-5
-1.011, -4.803e-5
-1.010, -4.823e-5
-1.009, -4.869e-5
-1.008, -4.892e-5
-1.007, -4.923e-5
-1.006, -4.979e-5
-1.005, -5.006e-5
-1.004, -5.036e-5
-1.003, -5.084e-5
-1.002, -5.111e-5
-1.001, -5.158e-5
-1.000, -3.395e-5
-1.001, -2.727e-5
-1.002, -2.485e-5
-1.003, -2.303e-5
-1.004, -2.139e-5
-1.005, -1.990e-5
-1.006, -1.858e-5
-1.007, -1.715e-5
-1.008, -1.606e-5
-1.009, -1.503e-5
-1.010, -1.387e-5
-1.011, -1.290e-5
-1.012, -1.196e-5
-1.013, -1.104e-5
-1.014, -1.017e-5
-1.015, -9.373e-6
-1.016, -8.647e-6
-1.017, -7.843e-6
-1.018, -7.066e-6
-1.019, -6.388e-6
-1.020, -5.775e-6
-1.021, -5.054e-6
-1.022, -4.417e-6
-1.023, -3.744e-6
-1.024, -3.134e-6
-1.025, -2.726e-6
-1.026, -1.991e-6
-1.027, -1.552e-6
-1.028, -9.651e-7
-1.029, -5.507e-7
-1.030, -2.190e-8
-1.031, 5.474e-7
-1.032, 9.233e-7
-1.033, 1.347e-6
-1.034, 1.913e-6
-1.035, 2.238e-6
-1.036, 2.714e-6
-1.037, 3.085e-6
-1.038, 3.401e-6
-1.039, 3.997e-6
-1.040, 4.154e-6
-1.041, 4.542e-6
-1.042, 4.987e-6
-1.043, 5.310e-6
-1.044, 5.683e-6
-1.045, 5.902e-6
-1.046, 6.199e-6
-1.047, 6.642e-6
-1.048, 6.841e-6
-1.049, 7.126e-6
-1.050, 7.421e-6
-1.051, 7.642e-6
-1.052, 8.001e-6
-1.053, 8.265e-6
-1.054, 8.421e-6
-1.055, 8.739e-6
-1.056, 8.910e-6
-1.057, 9.172e-6
-1.058, 9.489e-6
-1.059, 9.598e-6
-1.060, 9.837e-6
-1.061, 1.013e-5
-1.062, 1.018e-5
-1.063, 1.053e-5
-1.064, 1.056e-5
-1.065, 1.071e-5
-1.066, 1.104e-5
-1.067, 1.108e-5
-1.068, 1.140e-5
-1.069, 1.148e-5
-1.070, 1.159e-5
-1.071, 1.185e-5
-1.072, 1.192e-5
-1.073, 1.209e-5
-1.074, 1.230e-5
-1.075, 1.246e-5
-1.076, 1.249e-5
-1.077, 1.260e-5
-1.078, 1.278e-5
-1.079, 1.295e-5
-1.080, 1.291e-5
-1.081, 1.306e-5
-1.082, 1.334e-5
-1.083, 1.327e-5
-1.084, 1.348e-5
-1.085, 1.349e-5
-1.086, 1.361e-5
-1.087, 1.384e-5
-1.088, 1.384e-5
-1.089, 1.400e-5
-1.090, 1.397e-5
-1.091, 1.411e-5
-1.092, 1.424e-5
-1.093, 1.438e-5
-1.094, 1.444e-5
-1.095, 1.448e-5
-1.096, 1.453e-5
-1.097, 1.468e-5
-1.098, 1.481e-5
-1.099, 1.489e-5
-1.100, 1.493e-5
-1.101, 1.502e-5
-1.102, 1.502e-5
-1.103, 1.532e-5
-1.104, 1.524e-5
-1.105, 1.537e-5
-1.106, 1.545e-5
-1.107, 1.553e-5
-1.108, 1.562e-5
-1.109, 1.569e-5
-1.110, 1.574e-5
-1.111, 1.599e-5
-1.112, 1.597e-5
-1.113, 1.602e-5
-1.114, 1.620e-5
-1.115, 1.617e-5
-1.116, 1.629e-5
-1.117, 1.638e-5
-1.118, 1.652e-5
-1.119, 1.662e-5
-1.120, 1.652e-5
-1.121, 1.677e-5
-1.122, 1.689e-5
-1.123, 1.690e-5
-1.124, 1.708e-5
-1.125, 1.706e-5
-1.126, 1.716e-5
-1.127, 1.733e-5
-1.128, 1.736e-5
-1.129, 1.741e-5
-1.130, 1.758e-5
-1.131, 1.751e-5
-1.132, 1.783e-5
-1.133, 1.784e-5
-1.134, 1.789e-5
-1.135, 1.808e-5
-1.136, 1.804e-5
-1.137, 1.816e-5
-1.138, 1.843e-5
-1.139, 1.839e-5
-1.140, 1.853e-5
-1.141, 1.858e-5
-1.142, 1.871e-5
-1.143, 1.890e-5
-1.144, 1.893e-5
-1.145, 1.899e-5
-1.146, 1.916e-5
-1.147, 1.928e-5
-1.148, 1.943e-5
-1.149, 1.949e-5
-1.150, 1.956e-5
-1.151, 1.980e-5
-1.152, 1.982e-5
-1.153, 1.996e-5
-1.154, 2.013e-5
-1.155, 2.006e-5
-1.156, 2.031e-5
-1.157, 2.049e-5
-1.158, 2.055e-5
-1.159, 2.081e-5
-1.160, 2.071e-5
-1.161, 2.101e-5
-1.162, 2.115e-5
-1.163, 2.119e-5
-1.164, 2.144e-5
-1.165, 2.148e-5
-1.166, 2.167e-5
-1.167, 2.190e-5
-1.168, 2.194e-5
-1.169, 2.207e-5
-1.170, 2.233e-5
-1.171, 2.239e-5
-1.172, 2.265e-5
-1.173, 2.286e-5
-1.174, 2.303e-5
-1.175, 2.314e-5
-1.176, 2.331e-5
-1.177, 2.352e-5
-1.178, 2.380e-5
-1.179, 2.390e-5
-1.180, 2.406e-5
-1.181, 2.427e-5
-1.182, 2.447e-5
-1.183, 2.480e-5
-1.184, 2.487e-5
-1.185, 2.507e-5
-1.186, 2.543e-5
-1.187, 2.551e-5
-1.188, 2.582e-5
-1.189, 2.614e-5
-1.190, 2.636e-5
-1.191, 2.669e-5
-1.192, 2.681e-5
-1.193, 2.710e-5
-1.194, 2.749e-5
-1.195, 2.758e-5
-1.196, 2.794e-5
-1.197, 2.828e-5
-1.198, 2.861e-5
-1.199, 2.897e-5
-1.200, 2.909e-5
-1.201, 2.953e-5
-1.202, 2.994e-5
-1.203, 3.020e-5
-1.204, 3.068e-5
-1.205, 3.092e-5
-1.206, 3.125e-5
-1.207, 3.177e-5
-1.208, 3.208e-5
-1.209, 3.249e-5
-1.210, 3.299e-5
-1.211, 3.324e-5
-1.212, 3.376e-5
-1.213, 3.427e-5
-1.214, 3.470e-5
-1.215, 3.516e-5
-1.216, 3.556e-5
-1.217, 3.616e-5
-1.218, 3.674e-5
-1.219, 3.708e-5
-1.220, 3.773e-5
-1.221, 3.816e-5
-1.222, 3.884e-5
-1.223, 3.945e-5
-1.224, 3.989e-5
-1.225, 4.047e-5
-1.226, 4.122e-5
-1.227, 4.169e-5
-1.228, 4.257e-5
-1.229, 4.334e-5
-1.230, 4.373e-5
-1.231, 4.459e-5
-1.232, 4.512e-5
-1.233, 4.585e-5
-1.234, 4.667e-5
-1.235, 4.728e-5
-1.236, 4.812e-5
-1.237, 4.886e-5
-1.238, 4.972e-5
-1.239, 5.063e-5
-1.240, 5.127e-5
-1.241, 5.217e-5
-1.242, 5.308e-5
-1.243, 5.400e-5
-1.244, 5.488e-5
-1.245, 5.574e-5
-1.246, 5.667e-5
-1.247, 5.774e-5
-1.248, 5.865e-5
-1.249, 5.967e-5
-1.250, 6.062e-5
-1.251, 6.175e-5
-1.252, 6.296e-5
-1.253, 6.392e-5
-1.254, 6.509e-5
-1.255, 6.617e-5
-1.256, 6.731e-5
-1.257, 6.840e-5
-1.258, 6.979e-5
-1.259, 7.093e-5
-1.260, 7.212e-5
-1.261, 7.340e-5
-1.262, 7.468e-5
-1.263, 7.616e-5
-1.264, 7.741e-5
-1.265, 7.867e-5
-1.266, 8.020e-5
-1.267, 8.169e-5
-1.268, 8.307e-5
-1.269, 8.452e-5
-1.270, 8.590e-5
-1.271, 8.769e-5
-1.272, 8.917e-5
-1.273, 9.088e-5
-1.274, 9.187e-5
-1.275, 9.354e-5
-1.276, 9.539e-5
-1.277, 9.695e-5
-1.278, 9.862e-5
-1.279, 1.006e-4
-1.280, 1.023e-4
-1.281, 1.041e-4
-1.282, 1.061e-4
-1.283, 1.078e-4
-1.284, 1.099e-4
-1.285, 1.117e-4
-1.286, 1.137e-4
-1.287, 1.157e-4
-1.288, 1.176e-4
-1.289, 1.199e-4
-1.290, 1.220e-4
-1.291, 1.240e-4
-1.292, 1.264e-4
-1.293, 1.287e-4
-1.294, 1.309e-4
-1.295, 1.331e-4
-1.296, 1.354e-4
-1.297, 1.380e-4
-1.298, 1.405e-4
-1.299, 1.428e-4
-1.300, 1.454e-4
-1.301, 1.481e-4
-1.302, 1.505e-4
-1.303, 1.534e-4
-1.304, 1.558e-4
-1.305, 1.589e-4
-1.306, 1.616e-4
-1.307, 1.644e-4
-1.308, 1.673e-4
-1.309, 1.702e-4
-1.310, 1.732e-4
-1.311, 1.765e-4
-1.312, 1.793e-4
-1.313, 1.825e-4
-1.314, 1.857e-4
-1.315, 1.886e-4
-1.316, 1.922e-4
-1.317, 1.955e-4
-1.318, 1.991e-4
-1.319, 2.021e-4
-1.320, 2.055e-4
-1.321, 2.094e-4
-1.322, 2.129e-4
-1.323, 2.162e-4
-1.324, 2.204e-4
-1.325, 2.237e-4
-1.326, 2.273e-4
-1.327, 2.313e-4
-1.328, 2.352e-4
-1.329, 2.396e-4
-1.330, 2.434e-4
-1.331, 2.475e-4
-1.332, 2.518e-4
-1.333, 2.559e-4
-1.334, 2.599e-4
-1.335, 2.644e-4
-1.336, 2.685e-4
-1.337, 2.731e-4
-1.338, 2.775e-4
-1.339, 2.822e-4
-1.340, 2.866e-4
-1.341, 2.912e-4
-1.342, 2.955e-4
-1.343, 3.003e-4
-1.344, 3.055e-4
-1.345, 3.104e-4
-1.346, 3.152e-4
-1.347, 3.201e-4
-1.348, 3.251e-4
-1.349, 3.304e-4
-1.350, 3.354e-4
-1.351, 3.410e-4
-1.352, 3.460e-4
-1.353, 3.517e-4
-1.354, 3.568e-4
-1.355, 3.620e-4
-1.356, 3.676e-4
-1.357, 3.732e-4
-1.358, 3.792e-4
-1.359, 3.847e-4
-1.360, 3.909e-4
-1.361, 3.966e-4
-1.362, 4.026e-4
-1.363, 4.085e-4
-1.364, 4.146e-4
-1.365, 4.206e-4
-1.366, 4.269e-4
-1.367, 4.329e-4
-1.368, 4.390e-4
-1.369, 4.460e-4
-1.370, 4.524e-4
-1.371, 4.586e-4
-1.372, 4.658e-4
-1.373, 4.718e-4
-1.374, 4.786e-4
-1.375, 4.857e-4
-1.376, 4.920e-4
-1.377, 4.994e-4
-1.378, 5.065e-4
-1.379, 5.134e-4
-1.380, 5.204e-4
-1.381, 5.271e-4
-1.382, 5.351e-4
-1.383, 5.427e-4
-1.384, 5.502e-4
-1.385, 5.580e-4
-1.386, 5.657e-4
-1.387, 5.728e-4
-1.388, 5.808e-4
-1.389, 5.887e-4
-1.390, 5.963e-4
-1.391, 6.046e-4
-1.392, 6.118e-4
-1.393, 6.209e-4
-1.394, 6.283e-4
-1.395, 6.377e-4
-1.396, 6.460e-4
-1.397, 6.548e-4
-1.398, 6.629e-4
-1.399, 6.719e-4
-1.400, 6.803e-4
-1.401, 6.888e-4
-1.402, 6.972e-4
-1.403, 7.064e-4
-1.404, 7.155e-4
-1.405, 7.247e-4
-1.406, 7.354e-4
-1.407, 7.442e-4
-1.408, 7.531e-4
-1.409, 7.628e-4
-1.410, 7.723e-4
-1.411, 7.814e-4
-1.412, 7.900e-4
-1.413, 8.007e-4
-1.414, 8.106e-4
-1.415, 8.218e-4
-1.416, 8.324e-4
-1.417, 8.421e-4
-1.418, 8.502e-4
-1.419, 8.596e-4
-1.420, 8.722e-4
-1.421, 8.794e-4
-1.422, 8.922e-4
-1.423, 9.036e-4
-1.424, 9.165e-4
-1.425, 9.278e-4
-1.426, 9.390e-4
-1.427, 9.500e-4
-1.428, 9.617e-4
-1.429, 9.725e-4
-1.430, 9.832e-4
-1.431, 9.943e-4
-1.432, 1.005e-3
-1.433, 1.017e-3
-1.434, 1.029e-3
-1.435, 1.041e-3
-1.436, 1.053e-3
-1.437, 1.065e-3
-1.438, 1.077e-3
-1.439, 1.090e-3
-1.440, 1.102e-3
-1.441, 1.115e-3
-1.442, 1.128e-3
-1.443, 1.140e-3
-1.444, 1.153e-3
-1.445, 1.166e-3
-1.446, 1.180e-3
-1.447, 1.193e-3
-1.448, 1.206e-3
-1.449, 1.219e-3
-1.450, 1.233e-3
-1.451, 1.247e-3
-1.452, 1.261e-3
-1.453, 1.275e-3
-1.454, 1.289e-3
-1.455, 1.303e-3
-1.456, 1.317e-3
-1.457, 1.332e-3
-1.458, 1.346e-3
-1.459, 1.363e-3
-1.460, 1.378e-3
-1.461, 1.391e-3
-1.462, 1.406e-3
-1.463, 1.423e-3
-1.464, 1.439e-3
-1.465, 1.455e-3
-1.466, 1.469e-3
-1.467, 1.484e-3
-1.468, 1.502e-3
-1.469, 1.520e-3
-1.470, 1.536e-3
-1.471, 1.552e-3
-1.472, 1.567e-3
-1.473, 1.586e-3
-1.474, 1.604e-3
-1.475, 1.618e-3
-1.476, 1.636e-3
-1.477, 1.654e-3
-1.478, 1.672e-3
-1.479, 1.689e-3
-1.480, 1.708e-3
-1.481, 1.726e-3
-1.482, 1.744e-3
-1.483, 1.763e-3
-1.484, 1.782e-3
-1.485, 1.802e-3
-1.486, 1.821e-3
-1.487, 1.841e-3
-1.488, 1.860e-3
-1.489, 1.880e-3
-1.490, 1.900e-3
-1.491, 1.920e-3
-1.492, 1.941e-3
-1.493, 1.962e-3
-1.494, 1.983e-3
-1.495, 2.004e-3
-1.496, 2.025e-3
-1.497, 2.047e-3
-1.498, 2.068e-3
-1.499, 2.089e-3
-1.500, 2.085e-3
-1.499, 2.061e-3
-1.498, 2.040e-3
-1.497, 2.018e-3
-1.496, 1.994e-3
-1.495, 1.977e-3
-1.494, 1.958e-3
-1.493, 1.934e-3
-1.492, 1.913e-3
-1.491, 1.895e-3
-1.490, 1.876e-3
-1.489, 1.857e-3
-1.488, 1.836e-3
-1.487, 1.817e-3
-1.486, 1.795e-3
-1.485, 1.778e-3
-1.484, 1.759e-3
-1.483, 1.740e-3
-1.482, 1.718e-3
-1.481, 1.703e-3
-1.480, 1.685e-3
-1.479, 1.666e-3
-1.478, 1.645e-3
-1.477, 1.627e-3
-1.476, 1.613e-3
-1.475, 1.597e-3
-1.474, 1.579e-3
-1.473, 1.563e-3
-1.472, 1.545e-3
-1.471, 1.527e-3
-1.470, 1.510e-3
-1.469, 1.496e-3
-1.468, 1.478e-3
-1.467, 1.461e-3
-1.466, 1.445e-3
-1.465, 1.430e-3
-1.464, 1.415e-3
-1.463, 1.400e-3
-1.462, 1.383e-3
-1.461, 1.368e-3
-1.460, 1.354e-3
-1.459, 1.339e-3
-1.458, 1.323e-3
-1.457, 1.308e-3
-1.456, 1.293e-3
-1.455, 1.280e-3
-1.454, 1.264e-3
-1.453, 1.249e-3
-1.452, 1.235e-3
-1.451, 1.223e-3
-1.450, 1.212e-3
-1.449, 1.197e-3
-1.448, 1.185e-3
-1.447, 1.171e-3
-1.446, 1.158e-3
-1.445, 1.145e-3
-1.444, 1.131e-3
-1.443, 1.118e-3
-1.442, 1.105e-3
-1.441, 1.093e-3
-1.440, 1.080e-3
-1.439, 1.068e-3
-1.438, 1.057e-3
-1.437, 1.045e-3
-1.436, 1.033e-3
-1.435, 1.021e-3
-1.434, 1.008e-3
-1.433, 9.978e-4
-1.432, 9.862e-4
-1.431, 9.736e-4
-1.430, 9.627e-4
-1.429, 9.518e-4
-1.428, 9.422e-4
-1.427, 9.311e-4
-1.426, 9.182e-4
-1.425, 9.072e-4
-1.424, 8.989e-4
-1.423, 8.876e-4
-1.422, 8.761e-4
-1.421, 8.663e-4
-1.420, 8.556e-4
-1.419, 8.458e-4
-1.418, 8.357e-4
-1.417, 8.261e-4
-1.416, 8.166e-4
-1.415, 8.063e-4
-1.414, 7.966e-4
-1.413, 7.876e-4
-1.412, 7.784e-4
-1.411, 7.689e-4
-1.410, 7.593e-4
-1.409, 7.499e-4
-1.408, 7.417e-4
-1.407, 7.333e-4
-1.406, 7.232e-4
-1.405, 7.142e-4
-1.404, 7.065e-4
-1.403, 6.978e-4
-1.402, 6.886e-4
-1.401, 6.799e-4
-1.400, 6.722e-4
-1.399, 6.645e-4
-1.398, 6.552e-4
-1.397, 6.475e-4
-1.396, 6.397e-4
-1.395, 6.309e-4
-1.394, 6.239e-4
-1.393, 6.156e-4
-1.392, 6.074e-4
-1.391, 5.996e-4
-1.390, 5.929e-4
-1.389, 5.852e-4
-1.388, 5.779e-4
-1.387, 5.697e-4
-1.386, 5.625e-4
-1.385, 5.553e-4
-1.384, 5.488e-4
-1.383, 5.411e-4
-1.382, 5.338e-4
-1.381, 5.272e-4
-1.380, 5.199e-4
-1.379, 5.130e-4
-1.378, 5.065e-4
-1.377, 5.001e-4
-1.376, 4.929e-4
-1.375, 4.861e-4
-1.374, 4.798e-4
-1.373, 4.737e-4
-1.372, 4.668e-4
-1.371, 4.604e-4
-1.370, 4.540e-4
-1.369, 4.477e-4
-1.368, 4.422e-4
-1.367, 4.358e-4
-1.366, 4.298e-4
-1.365, 4.239e-4
-1.364, 4.181e-4
-1.363, 4.119e-4
-1.362, 4.065e-4
-1.361, 4.002e-4
-1.360, 3.945e-4
-1.359, 3.890e-4
-1.358, 3.833e-4
-1.357, 3.782e-4
-1.356, 3.728e-4
-1.355, 3.666e-4
-1.354, 3.610e-4
-1.353, 3.564e-4
-1.352, 3.516e-4
-1.351, 3.459e-4
-1.350, 3.406e-4
-1.349, 3.359e-4
-1.348, 3.305e-4
-1.347, 3.256e-4
-1.346, 3.203e-4
-1.345, 3.156e-4
-1.344, 3.107e-4
-1.343, 3.063e-4
-1.342, 3.010e-4
-1.341, 2.960e-4
-1.340, 2.917e-4
-1.339, 2.870e-4
-1.338, 2.825e-4
-1.337, 2.779e-4
-1.336, 2.736e-4
-1.335, 2.690e-4
-1.334, 2.646e-4
-1.333, 2.604e-4
-1.332, 2.561e-4
-1.331, 2.517e-4
-1.330, 2.476e-4
-1.329, 2.433e-4
-1.328, 2.393e-4
-1.327, 2.352e-4
-1.326, 2.311e-4
-1.325, 2.271e-4
-1.324, 2.232e-4
-1.323, 2.192e-4
-1.322, 2.155e-4
-1.321, 2.116e-4
-1.320, 2.077e-4
-1.319, 2.040e-4
-1.318, 2.003e-4
-1.317, 1.968e-4
-1.316, 1.931e-4
-1.315, 1.894e-4
-1.314, 1.859e-4
-1.313, 1.824e-4
-1.312, 1.790e-4
-1.311, 1.756e-4
-1.310, 1.720e-4
-1.309, 1.689e-4
-1.308, 1.656e-4
-1.307, 1.623e-4
-1.306, 1.591e-4
-1.305, 1.557e-4
-1.304, 1.527e-4
-1.303, 1.496e-4
-1.302, 1.465e-4
-1.301, 1.436e-4
-1.300, 1.405e-4
-1.299, 1.375e-4
-1.298, 1.347e-4
-1.297, 1.317e-4
-1.296, 1.289e-4
-1.295, 1.261e-4
-1.294, 1.233e-4
-1.293, 1.206e-4
-1.292, 1.180e-4
-1.291, 1.152e-4
-1.290, 1.126e-4
-1.289, 1.100e-4
-1.288, 1.075e-4
-1.287, 1.050e-4
-1.286, 1.024e-4
-1.285, 1.001e-4
-1.284, 9.762e-5
-1.283, 9.515e-5
-1.282, 9.289e-5
-1.281, 9.050e-5
-1.280, 8.805e-5
-1.279, 8.599e-5
-1.278, 8.355e-5
-1.277, 8.162e-5
-1.276, 7.935e-5
-1.275, 7.709e-5
-1.274, 7.504e-5
-1.273, 7.289e-5
-1.272, 7.101e-5
-1.271, 6.895e-5
-1.270, 6.679e-5
-1.269, 6.503e-5
-1.268, 6.320e-5
-1.267, 6.118e-5
-1.266, 5.941e-5
-1.265, 5.736e-5
-1.264, 5.577e-5
-1.263, 5.398e-5
-1.262, 5.217e-5
-1.261, 5.050e-5
-1.260, 4.875e-5
-1.259, 4.710e-5
-1.258, 4.556e-5
-1.257, 4.389e-5
-1.256, 4.240e-5
-1.255, 4.067e-5
-1.254, 3.910e-5
-1.253, 3.781e-5
-1.252, 3.623e-5
-1.251, 3.477e-5
-1.250, 3.335e-5
-1.249, 3.194e-5
-1.248, 3.065e-5
-1.247, 2.928e-5
-1.246, 2.788e-5
-1.245, 2.663e-5
-1.244, 2.538e-5
-1.243, 2.398e-5
-1.242, 2.282e-5
-1.241, 2.156e-5
-1.240, 2.041e-5
-1.239, 1.921e-5
-1.238, 1.806e-5
-1.237, 1.699e-5
-1.236, 1.588e-5
-1.235, 1.464e-5
-1.234, 1.373e-5
-1.233, 1.262e-5
-1.232, 1.166e-5
-1.231, 1.060e-5
-1.230, 9.531e-6
-1.229, 8.454e-6
-1.228, 7.717e-6
-1.227, 6.677e-6
-1.226, 5.863e-6
-1.225, 4.887e-6
-1.224, 4.136e-6
-1.223, 3.340e-6
-1.222, 2.323e-6
-1.221, 1.612e-6
-1.220, 8.068e-7
-1.219, -1.105e-8
-1.218, -6.898e-7
-1.217, -1.526e-6
-1.216, -2.195e-6
-1.215, -2.843e-6
-1.214, -3.694e-6
-1.213, -4.185e-6
-1.212, -4.844e-6
-1.211, -5.688e-6
-1.210, -6.250e-6
-1.209, -6.865e-6
-1.208, -7.391e-6
-1.207, -7.965e-6
-1.206, -8.636e-6
-1.205, -9.153e-6
-1.204, -9.699e-6
-1.203, -1.023e-5
-1.202, -1.069e-5
-1.201, -1.130e-5
-1.200, -1.168e-5
-1.199, -1.218e-5
-1.198, -1.275e-5
-1.197, -1.301e-5
-1.196, -1.350e-5
-1.195, -1.406e-5
-1.194, -1.434e-5
-1.193, -1.478e-5
-1.192, -1.507e-5
-1.191, -1.553e-5
-1.190, -1.605e-5
-1.189, -1.624e-5
-1.188, -1.658e-5
-1.187, -1.692e-5
-1.186, -1.724e-5
-1.185, -1.780e-5
-1.184, -1.781e-5
-1.183, -1.815e-5
-1.182, -1.857e-5
-1.181, -1.875e-5
-1.180, -1.908e-5
-1.179, -1.936e-5
-1.178, -1.966e-5
-1.177, -1.983e-5
-1.176, -2.005e-5
-1.175, -2.023e-5
-1.174, -2.064e-5
-1.173, -2.068e-5
-1.172, -2.082e-5
-1.171, -2.120e-5
-1.170, -2.137e-5
-1.169, -2.156e-5
-1.168, -2.165e-5
-1.167, -2.175e-5
-1.166, -2.220e-5
-1.165, -2.221e-5
-1.164, -2.235e-5
-1.163, -2.255e-5
-1.162, -2.267e-5
-1.161, -2.287e-5
-1.160, -2.296e-5
-1.159, -2.301e-5
-1.158, -2.321e-5
-1.157, -2.316e-5
-1.156, -2.340e-5
-1.155, -2.361e-5
-1.154, -2.361e-5
-1.153, -2.382e-5
-1.152, -2.378e-5
-1.151, -2.397e-5
-1.150, -2.418e-5
-1.149, -2.400e-5
-1.148, -2.414e-5
-1.147, -2.430e-5
-1.146, -2.438e-5
-1.145, -2.452e-5
-1.144, -2.441e-5
-1.143, -2.456e-5
-1.142, -2.460e-5
-1.141, -2.466e-5
-1.140, -2.464e-5
-1.139, -2.490e-5
-1.138, -2.483e-5
-1.137, -2.492e-5
-1.136, -2.487e-5
-1.135, -2.495e-5
-1.134, -2.514e-5
-1.133, -2.500e-5
-1.132, -2.503e-5
-1.131, -2.529e-5
-1.130, -2.518e-5
-1.129, -2.526e-5
-1.128, -2.522e-5
-1.127, -2.522e-5
-1.126, -2.542e-5
-1.125, -2.542e-5
-1.124, -2.547e-5
-1.123, -2.549e-5
-1.122, -2.545e-5
-1.121, -2.556e-5
-1.120, -2.552e-5
-1.119, -2.555e-5
-1.118, -2.564e-5
-1.117, -2.553e-5
-1.116, -2.562e-5
-1.115, -2.579e-5
-1.114, -2.571e-5
-1.113, -2.581e-5
-1.112, -2.580e-5
-1.111, -2.577e-5
-1.110, -2.602e-5
-1.109, -2.589e-5
-1.108, -2.593e-5
-1.107, -2.599e-5
-1.106, -2.603e-5
-1.105, -2.617e-5
-1.104, -2.611e-5
-1.103, -2.615e-5
-1.102, -2.625e-5
-1.101, -2.620e-5
-1.100, -2.631e-5
-1.099, -2.638e-5
-1.098, -2.642e-5
-1.097, -2.658e-5
-1.096, -2.649e-5
-1.095, -2.657e-5
-1.094, -2.671e-5
-1.093, -2.669e-5
-1.092, -2.672e-5
-1.091, -2.689e-5
-1.090, -2.694e-5
-1.089, -2.702e-5
-1.088, -2.709e-5
-1.087, -2.703e-5
-1.086, -2.728e-5
-1.085, -2.730e-5
-1.084, -2.739e-5
-1.083, -2.753e-5
-1.082, -2.746e-5
-1.081, -2.773e-5
-1.080, -2.778e-5
-1.079, -2.774e-5
-1.078, -2.806e-5
-1.077, -2.799e-5
-1.076, -2.823e-5
-1.075, -2.838e-5
-1.074, -2.834e-5
-1.073, -2.858e-5
-1.072, -2.861e-5
-1.071, -2.863e-5
-1.070, -2.889e-5
-1.069, -2.889e-5
-1.068, -2.907e-5
-1.067, -2.933e-5
-1.066, -2.931e-5
-1.065, -2.956e-5
-1.064, -2.958e-5
-1.063, -2.970e-5
-1.062, -2.991e-5
-1.061, -3.004e-5
-1.060, -3.013e-5
-1.059, -3.039e-5
-1.058, -3.046e-5
-1.057, -3.067e-5
-1.056, -3.075e-5
-1.055, -3.104e-5
-1.054, -3.120e-5
-1.053, -3.125e-5
-1.052, -3.141e-5
-1.051, -3.168e-5
-1.050, -3.183e-5
-1.049, -3.206e-5
-1.048, -3.216e-5
-1.047, -3.235e-5
-1.046, -3.265e-5
-1.045, -3.280e-5
-1.044, -3.295e-5
-1.043, -3.322e-5
-1.042, -3.334e-5
-1.041, -3.365e-5
-1.040, -3.378e-5
-1.039, -3.399e-5
-1.038, -3.428e-5
-1.037, -3.437e-5
-1.036, -3.469e-5
-1.035, -3.507e-5
-1.034, -3.505e-5
-1.033, -3.542e-5
-1.032, -3.556e-5
-1.031, -3.580e-5
-1.030, -3.616e-5
-1.029, -3.636e-5
-1.028, -3.650e-5
-1.027, -3.685e-5
-1.026, -3.706e-5
-1.025, -3.746e-5
-1.024, -3.762e-5
-1.023, -3.784e-5
-1.022, -3.808e-5
-1.021, -3.839e-5
-1.020, -3.871e-5
-1.019, -3.902e-5
-1.018, -3.910e-5
-1.017, -3.949e-5
-1.016, -3.962e-5
-1.015, -3.999e-5
-1.014, -4.028e-5
-1.013, -4.051e-5
-1.012, -4.075e-5
-1.011, -4.121e-5
-1.010, -4.136e-5
-1.009, -4.173e-5
-1.008, -4.195e-5
-1.007, -4.216e-5
-1.006, -4.270e-5
-1.005, -4.277e-5
-1.004, -4.315e-5
-1.003, -4.344e-5
-1.002, -4.374e-5
-1.001, -4.412e-5
