Potential V vs RHE, Current mA cm-2
0.013299999999999867,0.7393281253094681
0.012299999999999978,-1.0054353208140816
0.011299999999999866,-2.794054817233447
0.010299999999999976,-4.668547289554621
0.009299999999999864,-6.500598422879844
0.008299999999999974,-8.11478401602585
0.007299999999999862,-9.379535918105192
0.006299999999999972,-10.296268840417738
0.00529999999999986,-10.906009410659568
0.0042999999999999705,-11.56102074249708
0.0032999999999998586,-12.346185513922174
0.0022999999999999687,-13.3930718758223
0.0012999999999998568,-14.529085049613924
0.00029999999999996696,-15.618412750510005
-0.000700000000000145,-16.438945304431726
-0.0017000000000000348,-16.962388485381787
-0.0027000000000001467,-17.188742293360193
-0.0037000000000000366,-17.40094898833995
-0.0047000000000001485,-17.75462681330621
-0.005700000000000038,-18.362952672248177
-0.00670000000000015,-19.197632339168546
-0.00770000000000004,-20.06060623208622
-0.008700000000000152,-20.76796188201874
-0.009700000000000042,-21.149933932982297
-0.010700000000000154,-21.291405062968803
-0.011700000000000044,-21.333846401964752
-0.012700000000000156,-21.461170418952605
-0.013700000000000045,-21.857289582914817
-0.014700000000000157,-22.508056780852733
-0.015700000000000047,-23.24370665678255
-0.01670000000000016,-23.951062306715073
-0.01770000000000005,-24.34718147067728
-0.01870000000000016,-24.474505487665134
-0.01970000000000005,-24.389622809673234
-0.020700000000000163,-24.389622809673234
-0.021700000000000053,-24.601829504652986
-0.022700000000000164,-25.12527268560305
-0.023700000000000054,-25.81848122253692
-0.024700000000000166,-26.525836872469437
-0.025700000000000056,-26.9643973754276
-0.026700000000000168,-27.134162731411404
-0.027700000000000058,-27.091721392415455
-0.02870000000000017,-27.049280053419505
-0.02970000000000006,-27.134162731411404
-0.03070000000000017,-27.572723234369565
-0.03170000000000006,-28.18104909331153
-0.03270000000000017,-28.8742576302454
-0.03370000000000006,-29.39770081119546
-0.034700000000000175,-29.66649595816982
-0.035700000000000065,-29.66649595816982
-0.03670000000000018,-29.581613280177915
-0.03770000000000007,-29.581613280177915
-0.03870000000000018,-29.921143992145527
-0.03970000000000007,-30.444587173095588
-0.04070000000000018,-31.095354371033505
-0.04170000000000007,-31.76026868197007
-0.04270000000000018,-32.09979939393769
-0.04370000000000007,-32.184682071929586
-0.044700000000000184,-32.05735805494172
-0.045700000000000074,-32.01491671594578
-0.046700000000000186,-32.24127052392419
-0.047700000000000076,-32.70812525287965
-0.04870000000000019,-33.373039563816214
-0.04970000000000008,-34.02380676175414
-0.05070000000000019,-34.462367264712285
-0.05170000000000008,-34.632132620696105
-0.05270000000000019,-34.5472499427042
-0.05370000000000008,-34.50480860370825
-0.05470000000000019,-34.5472499427042
-0.05570000000000008,-34.94336910666641
-0.056700000000000195,-35.55169496560837
-0.057700000000000085,-36.20246216354629
-0.058700000000000196,-36.725905344496354
-0.059700000000000086,-36.99470049147071
-0.0607000000000002,-36.95225915247476
-0.06170000000000009,-36.89567070048016
-0.0627000000000002,-36.95225915247476
-0.06370000000000009,-37.206907186450465
-0.0647000000000002,-37.77279170639648
-0.06570000000000009,-38.42355890433439
-0.0667000000000002,-39.046031876275016
-0.0677000000000001,-39.34312124924667
-0.0687000000000002,-39.34312124924667
-0.0697000000000001,-39.173355893262865
-0.07070000000000021,-39.08847321527096
-0.0717000000000001,-39.21579723225882
-0.07270000000000021,-39.61191639622103
-0.0737000000000001,-40.26268359415894
-0.07470000000000021,-40.87100945310091
-0.0757000000000001,-41.267128617063115
-0.07670000000000021,-41.352011295055014
-0.0777000000000001,-41.267128617063115
-0.07870000000000021,-41.083216148080666
-0.0797000000000001,-41.139804600075266
-0.08070000000000022,-41.43689397304693
-0.0817000000000001,-41.96033715399699
-0.08270000000000022,-42.526221673943
-0.08370000000000011,-43.007223515897124
-0.08470000000000022,-43.17698887188092
-0.08570000000000011,-43.134547532884966
-0.08670000000000022,-42.96478217690117
-0.08770000000000011,-42.87989949890926
-0.08870000000000022,-43.09210619388902
-0.08970000000000011,-43.53066669684718
-0.09070000000000022,-44.138992555789144
-0.09170000000000011,-44.66243573673921
-0.09270000000000023,-44.97367222270952
-0.09370000000000012,-44.97367222270952
-0.09470000000000023,-44.74731841473111
-0.09570000000000012,-44.577553058747306
-0.09670000000000023,-44.66243573673921
-0.09770000000000012,-45.01611356170547
-0.09870000000000023,-45.581998081651484
-0.09970000000000012,-46.10544126260155
-0.10070000000000023,-46.45911908756781
-0.10170000000000012,-46.501560426563756
-0.10270000000000024,-46.3176479575813
-0.10370000000000013,-46.062999923605595
-0.10470000000000024,-46.062999923605595
-0.10570000000000013,-46.27520661858535
-0.10670000000000024,-46.79864979953541
-0.10770000000000013,-47.36453431948143
-0.10870000000000024,-47.76065348344364
-0.10970000000000013,-47.8879775004315
-0.11070000000000024,-47.76065348344364
-0.11170000000000013,-47.54844678846388
-0.11270000000000002,-47.40697565847737
-0.11370000000000013,-47.54844678846388
-0.11470000000000002,-47.93041883942744
-0.11570000000000014,-48.51045047237211
-0.11670000000000003,-49.03389365332217
-0.11770000000000014,-49.24610034830193
-0.11870000000000003,-49.24610034830193
-0.11970000000000014,-48.97730520132757
-0.12070000000000003,-48.80753984534376
-0.12170000000000014,-48.84998118433972
-0.12270000000000003,-49.118776331314066
-0.12370000000000014,-49.68466085126009
-0.12470000000000003,-50.20810403221015
-0.12570000000000014,-50.50519340518181
-0.12670000000000003,-50.547634744177756
-0.12770000000000015,-50.37786938819396
-0.12870000000000004,-50.1656626932142
-0.12970000000000015,-50.12322135421825
-0.13070000000000004,-50.335428049198
-0.13170000000000015,-50.81642989115212
-0.13270000000000004,-51.38231441109813
-0.13370000000000015,-51.77843357506035
-0.13470000000000004,-51.948198931044146
-0.13570000000000015,-51.82087491405629
-0.13670000000000004,-51.55207976708194
-0.13770000000000016,-51.46719708909004
-0.13870000000000005,-51.594521106077885
-0.13970000000000016,-52.033081609036046
-0.14070000000000005,-52.55652478998611
-0.14170000000000016,-53.079967970936174
-0.14270000000000005,-53.30632177891458
-0.14370000000000016,-53.30632177891458
-0.14470000000000005,-53.079967970936174
-0.14570000000000016,-52.86776127595642
-0.14670000000000005,-52.91020261495237
-0.14770000000000016,-53.22143910092268
-0.14870000000000005,-53.74488228187274
-0.14970000000000017,-54.31076680181876
-0.15070000000000006,-54.60785617479041
-0.15170000000000017,-54.60785617479041
-0.15270000000000006,-54.43809081880661
-0.15370000000000017,-54.1268543328363
-0.15470000000000006,-54.0419716548444
-0.15570000000000017,-54.26832546282281
-0.15670000000000006,-54.69273885278232
-0.15770000000000017,-55.21618203373238
-0.15870000000000006,-55.612301197694585
-0.15970000000000018,-55.73962521468245
-0.16070000000000007,-55.56985985869864
-0.16170000000000018,-55.31521182472294
-0.16270000000000007,-55.13129935574048
-0.16370000000000018,-55.25862337272834
-0.16470000000000007,-55.612301197694585
-0.16570000000000018,-56.13574437864466
-0.16670000000000007,-56.61674622059877
-0.16770000000000018,-56.786511576582576
-0.16870000000000007,-56.65918755959472
-0.16970000000000018,-56.404539525619015
-0.17070000000000007,-56.13574437864466
-0.17170000000000019,-56.13574437864466
-0.17270000000000008,-56.404539525619015
-0.1737000000000002,-56.82895291557852
-0.17470000000000008,-57.30995475753264
-0.1757000000000002,-57.57874990450699
-0.17670000000000008,-57.57874990450699
-0.1777000000000002,-57.30995475753264
-0.17870000000000008,-57.012865384560975
-0.1797000000000002,-56.927982706569075
-0.18070000000000008,-57.05530672355693
-0.1817000000000002,-57.45142588751914
-0.18270000000000008,-57.93242772947325
-0.1837000000000002,-58.22951710244491
-0.1847000000000001,-58.31439978043681
-0.1857000000000002,-58.10219308545706
-0.1867000000000001,-57.7485152604908
-0.1877000000000002,-57.53630856551105
-0.1887000000000001,-57.53630856551105
-0.1897000000000002,-57.79095659948675
-0.1907000000000001,-58.22951710244491
-0.1917000000000001,-58.54075358841522
-0.19269999999999998,-58.66807760540307
-0.1937000000000001,-58.498312249419264
-0.19469999999999998,-58.14463442445301
-0.1957000000000001,-57.8333979384827
-0.19669999999999999,-57.7485152604908
-0.1977000000000001,-57.974869068469204
-0.1987,-58.39928245842871
-0.1997000000000001,-58.75296028339497
-0.2007,-58.92272563937878
-0.2017000000000001,-58.83784296138688
-0.2027,-58.498312249419264
-0.2037000000000001,-58.10219308545706
-0.2047,-57.87583927747865
-0.2057000000000001,-57.93242772947325
-0.2067,-58.22951710244491
-0.2077000000000001,-58.583194927411164
-0.2087,-58.79540162239092
-0.2097000000000001,-58.71051894439902
-0.2107,-58.39928245842871
-0.2117000000000001,-57.974869068469204
-0.2127,-57.62119124350295
-0.2137000000000001,-57.53630856551105
-0.2147,-57.7485152604908
-0.2157000000000001,-58.14463442445301
-0.2167,-58.45587091042332
-0.21770000000000012,-58.45587091042332
-0.2187,-58.18707576344896
-0.21970000000000012,-57.7485152604908
-0.2207,-57.30995475753264
-0.22170000000000012,-57.14018940154883
-0.2227,-57.182630740544774
-0.22370000000000012,-57.493867226515086
-0.2247,-57.8333979384827
-0.22570000000000012,-57.87583927747865
-0.2267,-57.70607392149485
-0.22770000000000012,-57.26751341853669
-0.22870000000000001,-56.82895291557852
-0.22970000000000013,-56.57430488160282
-0.23070000000000002,-56.53186354260687
-0.23170000000000013,-56.74407023758662
-0.23270000000000002,-57.05530672355693
-0.23370000000000013,-57.22507207954074
-0.23470000000000002,-57.097748062552874
-0.23570000000000013,-56.70162889859067
-0.23670000000000002,-56.1781857176406
-0.2376999999999999,-55.7820665536784
-0.23870000000000002,-55.65474253669055
-0.2396999999999999,-55.7820665536784
-0.24070000000000003,-56.05086170065276
-0.24169999999999991,-56.26306839563251
-0.24270000000000003,-56.1781857176406
-0.24369999999999992,-55.881096344668954
-0.24470000000000003,-55.400094502714836
-0.24569999999999992,-54.876651321764776
-0.24670000000000003,-54.69273885278232
-0.24769999999999992,-54.69273885278232
-0.24870000000000003,-54.961533999756675
-0.24969999999999992,-55.21618203373238
-0.25070000000000003,-55.31521182472294
-0.2516999999999999,-55.088858016744524
-0.25270000000000004,-54.60785617479041
-0.2536999999999999,-54.08441299384035
-0.25470000000000004,-53.74488228187274
-0.2556999999999999,-53.68829382987814
-0.25670000000000004,-53.872206298860604
-0.25769999999999993,-54.1268543328363
-0.25870000000000004,-54.26832546282281
-0.25969999999999993,-54.08441299384035
-0.26070000000000004,-53.56096981289029
-0.26169999999999993,-52.995085292944275
-0.26270000000000004,-52.514083450990164
-0.26369999999999993,-52.30187675601041
-0.26470000000000005,-52.386759434002315
-0.26569999999999994,-52.59896612898206
-0.26670000000000005,-52.82531993696047
-0.26769999999999994,-52.78287859796452
-0.26870000000000005,-52.42920077299826
-0.26969999999999994,-51.86331625305225
-0.27070000000000005,-51.33987307210218
-0.27169999999999994,-51.071077925127824
-0.27270000000000005,-51.127666377122424
-0.27369999999999994,-51.33987307210218
-0.27470000000000006,-51.594521106077885
-0.27569999999999995,-51.65110955807249
-0.27670000000000006,-51.33987307210218
-0.27769999999999995,-50.85887123014807
-0.27870000000000006,-50.335428049198
-0.27969999999999995,-50.024191563227696
-0.28070000000000006,-49.98175022423175
-0.28169999999999995,-50.20810403221015
-0.28270000000000006,-50.46275206618586
-0.28369999999999995,-50.60422319617236
-0.28470000000000006,-50.42031072718991
-0.28569999999999995,-49.98175022423175
-0.28670000000000007,-49.458307043281685
-0.28769999999999996,-49.03389365332217
-0.28870000000000007,-48.84998118433972
-0.28969999999999996,-48.97730520132757
-0.29070000000000007,-49.24610034830193
-0.29169999999999996,-49.41586570428573
-0.29270000000000007,-49.373424365289786
-0.29369999999999996,-49.03389365332217
-0.2947000000000001,-48.51045047237211
-0.29569999999999996,-48.029448630417996
-0.2967000000000001,-47.80309482243959
-0.29769999999999996,-47.8879775004315
-0.2987000000000001,-48.156772647405845
-0.29969999999999997,-48.45386202037751
-0.3007000000000001,-48.51045047237211
-0.30169999999999997,-48.2840966643937
-0.3027000000000001,-47.80309482243959
-0.30369999999999997,-47.32209298048547
-0.3047000000000001,-47.02500360751382
-0.30569999999999997,-47.02500360751382
-0.3067000000000001,-47.27965164148953
-0.3077,-47.633329466455784
-0.3087000000000001,-47.76065348344364
-0.3097,-47.633329466455784
-0.3107000000000001,-47.27965164148953
-0.3117,-46.79864979953541
-0.3127000000000001,-46.501560426563756
-0.3137,-46.45911908756781
-0.3147000000000001,-46.67132578254756
-0.3157,-47.067444946509774
-0.3167000000000001,-47.27965164148953
-0.3177,-47.32209298048547
-0.3187000000000001,-47.067444946509774
-0.3197,-46.628884443551605
-0.3207000000000001,-46.2327652795894
-0.3217,-46.10544126260155
-0.3227000000000001,-46.2327652795894
-0.3237,-46.544001765559706
-0.3247000000000001,-46.88353247752732
-0.3257,-46.982562268517874
-0.3267000000000001,-46.84109113853137
-0.3277,-46.41667774857186
-0.3287000000000001,-46.02055858460964
-0.3297,-45.79420477663124
-0.3307000000000001,-45.79420477663124
-0.3317,-46.147882601597495
-0.3327000000000001,-46.501560426563756
-0.3337,-46.67132578254756
-0.3347000000000001,-46.628884443551605
-0.3357,-46.3176479575813
-0.3367000000000001,-45.89323456762179
-0.3377,-45.624439420647434
-0.3387000000000001,-45.624439420647434
-0.3397,-45.85079322862584
-0.3407000000000001,-46.2327652795894
-0.3417,-46.544001765559706
-0.3427000000000001,-46.628884443551605
-0.3437,-46.41667774857186
-0.3447000000000001,-46.062999923605595
-0.3457,-45.70932209863933
-0.3467000000000001,-45.666880759643384
-0.3477,-45.89323456762179
-0.3487000000000001,-46.3176479575813
-0.3497,-46.713767121543505
-0.3507000000000001,-46.88353247752732
-0.3517,-46.79864979953541
-0.3527000000000001,-46.501560426563756
-0.3537,-46.147882601597495
-0.3547000000000001,-46.02055858460964
-0.3557,-46.19032394059345
-0.35670000000000013,-46.586443104555656
-0.3577,-47.02500360751382
-0.35870000000000013,-47.36453431948143
-0.3597,-47.36453431948143
-0.36070000000000013,-47.15232762450167
-0.3617,-46.88353247752732
-0.3626999999999999,-46.713767121543505
-0.3637,-46.79864979953541
-0.3646999999999999,-47.15232762450167
-0.3657,-47.67577080545174
-0.3666999999999999,-48.071889969413945
-0.3677,-48.24165532539775
-0.3686999999999999,-48.156772647405845
-0.36970000000000003,-47.8879775004315
-0.3706999999999999,-47.67577080545174
-0.37170000000000003,-47.67577080545174
-0.3726999999999999,-47.987007291422046
-0.37370000000000003,-48.45386202037751
-0.3746999999999999,-48.93486386233162
-0.37570000000000003,-49.20365900930597
-0.3766999999999999,-49.20365900930597
-0.37770000000000004,-48.93486386233162
-0.3786999999999999,-48.68021582835591
-0.37970000000000004,-48.63777448935996
-0.3806999999999999,-48.89242252333566
-0.38170000000000004,-49.33098302629383
-0.38269999999999993,-49.89686754623985
-0.38370000000000004,-50.335428049198
-0.38469999999999993,-50.46275206618586
-0.38570000000000004,-50.37786938819396
-0.38669999999999993,-48.55289181136806
-0.38570000000000004,-44.4077877027635
-0.38469999999999993,-41.083216148080666
-0.38370000000000004,-38.38111756533845
-0.38269999999999993,-36.16002082455034
-0.38170000000000004,-34.10868943974604
-0.3806999999999999,-31.972475376949827
-0.37970000000000004,-29.751378636161718
-0.3786999999999999,-27.572723234369565
-0.37770000000000004,-25.521391849565262
-0.3766999999999999,-23.908620967719123
-0.37570000000000003,-22.592939458844636
-0.3746999999999999,-21.58849443594046
-0.37370000000000003,-20.683079204026836
-0.3726999999999999,-19.636192842126707
-0.37170000000000003,-18.362952672248177
-0.3706999999999999,-16.962388485381787
-0.36970000000000003,-15.575971411514052
-0.3686999999999999,-14.401761032626075
-0.3677,-13.567081365705702
-0.3666999999999999,-12.99978213445982
-0.3657,-12.56405105410139
-0.3646999999999999,-11.996751822855511
-0.3637,-11.1677310011346
-0.3626999999999999,-10.120844639234473
-0.3617,-8.987660888042578
-0.36070000000000013,-8.027071915434218
-0.3597,-7.37347529489657
-0.35870000000000013,-6.981600264833956
-0.3577,-6.762320013354876
-0.35670000000000013,-6.458157083883892
-0.3557,-5.890857852638012
-0.3547000000000001,-5.149549131508733
-0.3537,-4.1889601589003735
-0.3527000000000001,-3.317497998183511
-0.3517,-2.706342716641815
-0.3507000000000001,-2.3569090255751513
-0.3497,-2.2706116362833835
-0.3487000000000001,-2.1390434853959355
-0.3477,-1.7910245056291363
-0.3467000000000001,-1.2234423321232837
-0.3457,-0.3947044526623452
-0.3447000000000001,0.3903188476327636
-0.3437,1.0010497157844997
-0.3427000000000001,1.349917522331218
-0.3417,1.3934906303670611
-0.3407000000000001,1.4373466806628774
-0.3397,1.5675001202504606
-0.3387000000000001,2.004645911908757
-0.3377,2.658242532446404
-0.3367000000000001,3.4434073038714996
-0.3357,4.054562585413195
-0.3347000000000001,4.402581565179994
-0.3337,4.44643761547581
-0.3327000000000001,4.402581565179994
-0.3317,4.402581565179994
-0.3307000000000001,4.708159205950842
-0.3297,5.231602386900906
-0.3287000000000001,5.886613718738418
-0.3277,6.540210339276065
-0.3267000000000001,6.889644030342729
-0.3257,7.019797469930312
-0.3247000000000001,6.889644030342729
-0.3237,6.801931929751096
-0.3227000000000001,6.975941419634496
-0.3217,7.369231160996977
-0.3207000000000001,7.980386442538672
-0.3197,8.590127012780503
-0.3187000000000001,9.06971414343475
-0.3177,9.201282294322198
-0.3167000000000001,9.113570193730567
-0.3157,8.983416754142983
-0.3147000000000001,8.983416754142983
-0.3137,9.287579683613965
-0.3127000000000001,9.811022864564029
-0.3117,10.422178146105725
-0.3107000000000001,10.901765276759972
-0.3097,11.119630816939189
-0.3087000000000001,11.033333427647422
-0.3077,10.857909226464155
-0.3067000000000001,10.771611837172388
-0.30569999999999997,10.94562132705579
-0.3047000000000001,11.38135240741422
-0.30369999999999997,11.9486516386601
-0.3027000000000001,12.515950869905978
-0.30169999999999997,12.821528510676828
-0.3007000000000001,12.77767246038101
-0.29969999999999997,12.603662970497613
-0.2987000000000001,12.428238769314348
-0.29769999999999996,12.515950869905978
-0.2967000000000001,12.821528510676828
-0.29569999999999996,13.344971691626892
-0.2947000000000001,13.91227092287277
-0.29369999999999996,14.26028990263957
-0.29270000000000007,14.30273124163552
-0.29169999999999996,14.175407224647667
-0.29070000000000007,13.954712261868721
-0.28969999999999996,13.868414872576954
-0.28870000000000007,14.08628041275617
-0.28769999999999996,14.529085049613924
-0.28670000000000007,15.094969569559943
-0.28569999999999995,15.519382959519453
-0.28470000000000006,15.70329542850191
-0.28369999999999995,15.575971411514052
-0.28270000000000006,15.349617603535648
-0.28169999999999995,15.179852247551842
-0.28070000000000006,15.307176264539699
-0.27969999999999995,15.660854089505953
-0.27870000000000006,16.22673860945197
-0.27769999999999995,16.70774045140608
-0.27670000000000006,16.919947146385837
-0.27569999999999995,16.877505807389888
-0.27470000000000006,16.665299112410132
-0.27369999999999994,16.396503965435777
-0.27270000000000005,16.438945304431726
-0.27169999999999994,16.70774045140608
-0.27070000000000005,17.231183632356142
-0.26969999999999994,17.75462681330621
-0.26870000000000005,18.05171618627787
-0.26769999999999994,18.09415752527382
-0.26670000000000005,17.924392169290012
-0.26569999999999994,17.669744135314307
-0.26470000000000005,17.528273005327804
-0.26369999999999993,17.71218547431026
