Dec. 16, 2024   13:35:23
Cyclic Voltammetry
File: c:/users/guazh/data/banditlqround7_x0exp667_r5/2024-12-16-exp671\exp671-2024-12-16t13_30_29-h2koh\exp671_cv_50mvs_efin_-1400mv.bin
Data Source:  Experiment
Instrument Model:  CHI760E
Header: CV ran at 50 mVs
Note: 

Init E (V) = -1
High E (V) = -1
Low E (V) = -1.4
Final E (V) = -1
Init P/N = N
Scan Rate (V/s) = 0.05
Segment = 7
Sample Interval (V) = 0.001
Quiet Time (sec) = 60
Sensitivity (A/V) = 0.001
Comp R (ohm) = 1.0

Results:

Channel 1:
Segment 1:

Segment 2:

Segment 3:

Segment 4:

Segment 5:

Segment 6:

Segment 7:

Potential/V, Current/A

-1.000, -1.916e-5
-1.001, 4.723e-5
-1.002, 8.300e-5
-1.003, 1.254e-4
-1.004, 1.757e-4
-1.005, 2.146e-4
-1.006, 2.306e-4
-1.007, 2.365e-4
-1.008, 2.585e-4
-1.009, 2.940e-4
-1.010, 3.224e-4
-1.011, 3.292e-4
-1.012, 3.274e-4
-1.013, 3.423e-4
-1.014, 3.729e-4
-1.015, 3.976e-4
-1.016, 4.011e-4
-1.017, 3.975e-4
-1.018, 4.111e-4
-1.019, 4.397e-4
-1.020, 4.628e-4
-1.021, 4.656e-4
-1.022, 4.593e-4
-1.023, 4.722e-4
-1.024, 5.003e-4
-1.025, 5.228e-4
-1.026, 5.251e-4
-1.027, 5.179e-4
-1.028, 5.298e-4
-1.029, 5.585e-4
-1.030, 5.823e-4
-1.031, 5.846e-4
-1.032, 5.781e-4
-1.033, 5.901e-4
-1.034, 6.185e-4
-1.035, 6.417e-4
-1.036, 6.461e-4
-1.037, 6.404e-4
-1.038, 6.531e-4
-1.039, 6.823e-4
-1.040, 7.046e-4
-1.041, 7.080e-4
-1.042, 7.049e-4
-1.043, 7.181e-4
-1.044, 7.483e-4
-1.045, 7.741e-4
-1.046, 7.794e-4
-1.047, 7.757e-4
-1.048, 7.885e-4
-1.049, 8.191e-4
-1.050, 8.462e-4
-1.051, 8.526e-4
-1.052, 8.506e-4
-1.053, 8.647e-4
-1.054, 8.966e-4
-1.055, 9.252e-4
-1.056, 9.319e-4
-1.057, 9.310e-4
-1.058, 9.457e-4
-1.059, 9.774e-4
-1.060, 1.009e-3
-1.061, 1.019e-3
-1.062, 1.019e-3
-1.063, 1.035e-3
-1.064, 1.068e-3
-1.065, 1.100e-3
-1.066, 1.111e-3
-1.067, 1.111e-3
-1.068, 1.129e-3
-1.069, 1.163e-3
-1.070, 1.195e-3
-1.071, 1.205e-3
-1.072, 1.208e-3
-1.073, 1.228e-3
-1.074, 1.264e-3
-1.075, 1.299e-3
-1.076, 1.312e-3
-1.077, 1.315e-3
-1.078, 1.333e-3
-1.079, 1.371e-3
-1.080, 1.404e-3
-1.081, 1.419e-3
-1.082, 1.425e-3
-1.083, 1.448e-3
-1.084, 1.489e-3
-1.085, 1.523e-3
-1.086, 1.528e-3
-1.087, 1.531e-3
-1.088, 1.553e-3
-1.089, 1.591e-3
-1.090, 1.630e-3
-1.091, 1.648e-3
-1.092, 1.660e-3
-1.093, 1.683e-3
-1.094, 1.724e-3
-1.095, 1.762e-3
-1.096, 1.777e-3
-1.097, 1.784e-3
-1.098, 1.805e-3
-1.099, 1.846e-3
-1.100, 1.884e-3
-1.101, 1.906e-3
-1.102, 1.915e-3
-1.103, 1.941e-3
-1.104, 1.985e-3
-1.105, 2.024e-3
-1.106, 2.044e-3
-1.107, 2.051e-3
-1.108, 2.070e-3
-1.109, 2.113e-3
-1.110, 2.155e-3
-1.111, 2.179e-3
-1.112, 2.194e-3
-1.113, 2.222e-3
-1.114, 2.262e-3
-1.115, 2.302e-3
-1.116, 2.323e-3
-1.117, 2.333e-3
-1.118, 2.358e-3
-1.119, 2.403e-3
-1.120, 2.445e-3
-1.121, 2.472e-3
-1.122, 2.486e-3
-1.123, 2.511e-3
-1.124, 2.557e-3
-1.125, 2.600e-3
-1.126, 2.623e-3
-1.127, 2.634e-3
-1.128, 2.661e-3
-1.129, 2.708e-3
-1.130, 2.757e-3
-1.131, 2.784e-3
-1.132, 2.798e-3
-1.133, 2.826e-3
-1.134, 2.868e-3
-1.135, 2.913e-3
-1.136, 2.941e-3
-1.137, 2.956e-3
-1.138, 2.983e-3
-1.139, 3.039e-3
-1.140, 3.089e-3
-1.141, 3.115e-3
-1.142, 3.127e-3
-1.143, 3.148e-3
-1.144, 3.197e-3
-1.145, 3.249e-3
-1.146, 3.278e-3
-1.147, 3.289e-3
-1.148, 3.317e-3
-1.149, 3.364e-3
-1.150, 3.409e-3
-1.151, 3.438e-3
-1.152, 3.459e-3
-1.153, 3.492e-3
-1.154, 3.541e-3
-1.155, 3.587e-3
-1.156, 3.613e-3
-1.157, 3.630e-3
-1.158, 3.660e-3
-1.159, 3.714e-3
-1.160, 3.764e-3
-1.161, 3.791e-3
-1.162, 3.807e-3
-1.163, 3.826e-3
-1.164, 3.877e-3
-1.165, 3.927e-3
-1.166, 3.954e-3
-1.167, 3.971e-3
-1.168, 4.004e-3
-1.169, 4.059e-3
-1.170, 4.109e-3
-1.171, 4.141e-3
-1.172, 4.159e-3
-1.173, 4.188e-3
-1.174, 4.239e-3
-1.175, 4.292e-3
-1.176, 4.330e-3
-1.177, 4.349e-3
-1.178, 4.383e-3
-1.179, 4.433e-3
-1.180, 4.488e-3
-1.181, 4.530e-3
-1.182, 4.557e-3
-1.183, 4.593e-3
-1.184, 4.640e-3
-1.185, 4.680e-3
-1.186, 4.705e-3
-1.187, 4.725e-3
-1.188, 4.757e-3
-1.189, 4.810e-3
-1.190, 4.864e-3
-1.191, 4.901e-3
-1.192, 4.922e-3
-1.193, 4.953e-3
-1.194, 5.005e-3
-1.195, 5.055e-3
-1.196, 5.089e-3
-1.197, 5.112e-3
-1.198, 5.145e-3
-1.199, 5.192e-3
-1.200, 5.240e-3
-1.201, 5.281e-3
-1.202, 5.304e-3
-1.203, 5.335e-3
-1.204, 5.391e-3
-1.205, 5.447e-3
-1.206, 5.495e-3
-1.207, 5.517e-3
-1.208, 5.537e-3
-1.209, 5.586e-3
-1.210, 5.645e-3
-1.211, 5.677e-3
-1.212, 5.701e-3
-1.213, 5.735e-3
-1.214, 5.783e-3
-1.215, 5.832e-3
-1.216, 5.867e-3
-1.217, 5.890e-3
-1.218, 5.918e-3
-1.219, 5.965e-3
-1.220, 6.014e-3
-1.221, 6.044e-3
-1.222, 6.067e-3
-1.223, 6.101e-3
-1.224, 6.151e-3
-1.225, 6.203e-3
-1.226, 6.238e-3
-1.227, 6.259e-3
-1.228, 6.281e-3
-1.229, 6.334e-3
-1.230, 6.390e-3
-1.231, 6.424e-3
-1.232, 6.444e-3
-1.233, 6.470e-3
-1.234, 6.519e-3
-1.235, 6.568e-3
-1.236, 6.600e-3
-1.237, 6.613e-3
-1.238, 6.639e-3
-1.239, 6.695e-3
-1.240, 6.753e-3
-1.241, 6.789e-3
-1.242, 6.806e-3
-1.243, 6.835e-3
-1.244, 6.873e-3
-1.245, 6.920e-3
-1.246, 6.947e-3
-1.247, 6.981e-3
-1.248, 7.008e-3
-1.249, 7.050e-3
-1.250, 7.094e-3
-1.251, 7.123e-3
-1.252, 7.128e-3
-1.253, 7.145e-3
-1.254, 7.192e-3
-1.255, 7.244e-3
-1.256, 7.278e-3
-1.257, 7.298e-3
-1.258, 7.319e-3
-1.259, 7.366e-3
-1.260, 7.418e-3
-1.261, 7.436e-3
-1.262, 7.448e-3
-1.263, 7.473e-3
-1.264, 7.508e-3
-1.265, 7.565e-3
-1.266, 7.584e-3
-1.267, 7.584e-3
-1.268, 7.604e-3
-1.269, 7.642e-3
-1.270, 7.692e-3
-1.271, 7.712e-3
-1.272, 7.727e-3
-1.273, 7.753e-3
-1.274, 7.780e-3
-1.275, 7.828e-3
-1.276, 7.850e-3
-1.277, 7.861e-3
-1.278, 7.894e-3
-1.279, 7.928e-3
-1.280, 7.975e-3
-1.281, 7.989e-3
-1.282, 7.958e-3
-1.283, 7.975e-3
-1.284, 8.012e-3
-1.285, 8.073e-3
-1.286, 8.090e-3
-1.287, 8.082e-3
-1.288, 8.072e-3
-1.289, 8.104e-3
-1.290, 8.145e-3
-1.291, 8.167e-3
-1.292, 8.174e-3
-1.293, 8.184e-3
-1.294, 8.210e-3
-1.295, 8.235e-3
-1.296, 8.245e-3
-1.297, 8.248e-3
-1.298, 8.256e-3
-1.299, 8.284e-3
-1.300, 8.332e-3
-1.301, 8.351e-3
-1.302, 8.342e-3
-1.303, 8.327e-3
-1.304, 8.349e-3
-1.305, 8.385e-3
-1.306, 8.396e-3
-1.307, 8.406e-3
-1.308, 8.418e-3
-1.309, 8.444e-3
-1.310, 8.471e-3
-1.311, 8.475e-3
-1.312, 8.461e-3
-1.313, 8.444e-3
-1.314, 8.453e-3
-1.315, 8.488e-3
-1.316, 8.503e-3
-1.317, 8.498e-3
-1.318, 8.499e-3
-1.319, 8.511e-3
-1.320, 8.535e-3
-1.321, 8.543e-3
-1.322, 8.529e-3
-1.323, 8.528e-3
-1.324, 8.552e-3
-1.325, 8.576e-3
-1.326, 8.590e-3
-1.327, 8.589e-3
-1.328, 8.575e-3
-1.329, 8.611e-3
-1.330, 8.635e-3
-1.331, 8.628e-3
-1.332, 8.617e-3
-1.333, 8.598e-3
-1.334, 8.609e-3
-1.335, 8.620e-3
-1.336, 8.634e-3
-1.337, 8.628e-3
-1.338, 8.617e-3
-1.339, 8.636e-3
-1.340, 8.661e-3
-1.341, 8.660e-3
-1.342, 8.640e-3
-1.343, 8.630e-3
-1.344, 8.640e-3
-1.345, 8.669e-3
-1.346, 8.678e-3
-1.347, 8.665e-3
-1.348, 8.660e-3
-1.349, 8.673e-3
-1.350, 8.706e-3
-1.351, 8.734e-3
-1.352, 8.733e-3
-1.353, 8.730e-3
-1.354, 8.736e-3
-1.355, 8.765e-3
-1.356, 8.781e-3
-1.357, 8.767e-3
-1.358, 8.758e-3
-1.359, 8.786e-3
-1.360, 8.816e-3
-1.361, 8.820e-3
-1.362, 8.829e-3
-1.363, 8.842e-3
-1.364, 8.886e-3
-1.365, 8.968e-3
-1.366, 9.102e-3
-1.367, 9.195e-3
-1.368, 9.195e-3
-1.369, 9.234e-3
-1.370, 9.281e-3
-1.371, 9.302e-3
-1.372, 9.303e-3
-1.373, 9.299e-3
-1.374, 9.299e-3
-1.375, 9.325e-3
-1.376, 9.327e-3
-1.377, 9.302e-3
-1.378, 9.290e-3
-1.379, 9.320e-3
-1.380, 9.379e-3
-1.381, 9.409e-3
-1.382, 9.394e-3
-1.383, 9.393e-3
-1.384, 9.405e-3
-1.385, 9.428e-3
-1.386, 9.455e-3
-1.387, 9.460e-3
-1.388, 9.489e-3
-1.389, 9.537e-3
-1.390, 9.580e-3
-1.391, 9.601e-3
-1.392, 9.607e-3
-1.393, 9.601e-3
-1.394, 9.616e-3
-1.395, 9.653e-3
-1.396, 9.695e-3
-1.397, 9.694e-3
-1.398, 9.694e-3
-1.399, 9.722e-3
-1.400, 9.656e-3
-1.399, 9.439e-3
-1.398, 9.236e-3
-1.397, 9.050e-3
-1.396, 8.915e-3
-1.395, 8.779e-3
-1.394, 8.634e-3
-1.393, 8.470e-3
-1.392, 8.307e-3
-1.391, 8.158e-3
-1.390, 8.027e-3
-1.389, 7.898e-3
-1.388, 7.741e-3
-1.387, 7.590e-3
-1.386, 7.466e-3
-1.385, 7.355e-3
-1.384, 7.239e-3
-1.383, 7.110e-3
-1.382, 6.984e-3
-1.381, 6.876e-3
-1.380, 6.776e-3
-1.379, 6.665e-3
-1.378, 6.550e-3
-1.377, 6.424e-3
-1.376, 6.314e-3
-1.375, 6.216e-3
-1.374, 6.139e-3
-1.373, 6.040e-3
-1.372, 5.896e-3
-1.371, 5.798e-3
-1.370, 5.715e-3
-1.369, 5.617e-3
-1.368, 5.492e-3
-1.367, 5.379e-3
-1.366, 5.290e-3
-1.365, 5.207e-3
-1.364, 5.128e-3
-1.363, 5.009e-3
-1.362, 4.899e-3
-1.361, 4.821e-3
-1.360, 4.740e-3
-1.359, 4.659e-3
-1.358, 4.559e-3
-1.357, 4.462e-3
-1.356, 4.391e-3
-1.355, 4.327e-3
-1.354, 4.254e-3
-1.353, 4.157e-3
-1.352, 4.068e-3
-1.351, 3.999e-3
-1.350, 3.938e-3
-1.349, 3.861e-3
-1.348, 3.759e-3
-1.347, 3.654e-3
-1.346, 3.588e-3
-1.345, 3.539e-3
-1.344, 3.482e-3
-1.343, 3.404e-3
-1.342, 3.323e-3
-1.341, 3.269e-3
-1.340, 3.224e-3
-1.339, 3.164e-3
-1.338, 3.083e-3
-1.337, 3.010e-3
-1.336, 2.953e-3
-1.335, 2.908e-3
-1.334, 2.854e-3
-1.333, 2.776e-3
-1.332, 2.705e-3
-1.331, 2.656e-3
-1.330, 2.619e-3
-1.329, 2.567e-3
-1.328, 2.495e-3
-1.327, 2.430e-3
-1.326, 2.384e-3
-1.325, 2.350e-3
-1.324, 2.303e-3
-1.323, 2.237e-3
-1.322, 2.170e-3
-1.321, 2.124e-3
-1.320, 2.097e-3
-1.319, 2.054e-3
-1.318, 1.991e-3
-1.317, 1.929e-3
-1.316, 1.887e-3
-1.315, 1.861e-3
-1.314, 1.822e-3
-1.313, 1.762e-3
-1.312, 1.703e-3
-1.311, 1.663e-3
-1.310, 1.639e-3
-1.309, 1.608e-3
-1.308, 1.549e-3
-1.307, 1.487e-3
-1.306, 1.448e-3
-1.305, 1.429e-3
-1.304, 1.397e-3
-1.303, 1.342e-3
-1.302, 1.286e-3
-1.301, 1.251e-3
-1.300, 1.232e-3
-1.299, 1.202e-3
-1.298, 1.149e-3
-1.297, 1.097e-3
-1.296, 1.066e-3
-1.295, 1.048e-3
-1.294, 1.020e-3
-1.293, 9.708e-4
-1.292, 9.203e-4
-1.291, 8.892e-4
-1.290, 8.737e-4
-1.289, 8.460e-4
-1.288, 7.979e-4
-1.287, 7.484e-4
-1.286, 7.193e-4
-1.285, 7.069e-4
-1.284, 6.827e-4
-1.283, 6.357e-4
-1.282, 5.894e-4
-1.281, 5.632e-4
-1.280, 5.510e-4
-1.279, 5.285e-4
-1.278, 4.824e-4
-1.277, 4.371e-4
-1.276, 4.115e-4
-1.275, 4.022e-4
-1.274, 3.811e-4
-1.273, 3.381e-4
-1.272, 2.956e-4
-1.271, 2.706e-4
-1.270, 2.621e-4
-1.269, 2.434e-4
-1.268, 2.011e-4
-1.267, 1.590e-4
-1.266, 1.362e-4
-1.265, 1.292e-4
-1.264, 1.121e-4
-1.263, 7.252e-5
-1.262, 3.133e-5
-1.261, 7.550e-6
-1.260, 2.425e-7
-1.259, -1.523e-5
-1.258, -5.260e-5
-1.257, -9.223e-5
-1.256, -1.122e-4
-1.255, -1.183e-4
-1.254, -1.341e-4
-1.253, -1.712e-4
-1.252, -2.105e-4
-1.251, -2.304e-4
-1.250, -2.343e-4
-1.249, -2.479e-4
-1.248, -2.834e-4
-1.247, -3.218e-4
-1.246, -3.414e-4
-1.245, -3.447e-4
-1.244, -3.581e-4
-1.243, -3.937e-4
-1.242, -4.307e-4
-1.241, -4.488e-4
-1.240, -4.503e-4
-1.239, -4.623e-4
-1.238, -4.973e-4
-1.237, -5.342e-4
-1.236, -5.531e-4
-1.235, -5.541e-4
-1.234, -5.649e-4
-1.233, -5.991e-4
-1.232, -6.355e-4
-1.231, -6.533e-4
-1.230, -6.552e-4
-1.229, -6.677e-4
-1.228, -7.021e-4
-1.227, -7.376e-4
-1.226, -7.534e-4
-1.225, -7.553e-4
-1.224, -7.653e-4
-1.223, -7.981e-4
-1.222, -8.358e-4
-1.221, -8.523e-4
-1.220, -8.528e-4
-1.219, -8.628e-4
-1.218, -8.940e-4
-1.217, -9.292e-4
-1.216, -9.445e-4
-1.215, -9.458e-4
-1.214, -9.566e-4
-1.213, -9.896e-4
-1.212, -1.027e-3
-1.211, -1.043e-3
-1.210, -1.043e-3
-1.209, -1.051e-3
-1.208, -1.081e-3
-1.207, -1.117e-3
-1.206, -1.133e-3
-1.205, -1.135e-3
-1.204, -1.146e-3
-1.203, -1.176e-3
-1.202, -1.212e-3
-1.201, -1.229e-3
-1.200, -1.229e-3
-1.199, -1.237e-3
-1.198, -1.268e-3
-1.197, -1.304e-3
-1.196, -1.321e-3
-1.195, -1.323e-3
-1.194, -1.334e-3
-1.193, -1.366e-3
-1.192, -1.403e-3
-1.191, -1.420e-3
-1.190, -1.422e-3
-1.189, -1.431e-3
-1.188, -1.461e-3
-1.187, -1.498e-3
-1.186, -1.515e-3
-1.185, -1.518e-3
-1.184, -1.528e-3
-1.183, -1.561e-3
-1.182, -1.598e-3
-1.181, -1.616e-3
-1.180, -1.619e-3
-1.179, -1.631e-3
-1.178, -1.667e-3
-1.177, -1.704e-3
-1.176, -1.720e-3
-1.175, -1.721e-3
-1.174, -1.739e-3
-1.173, -1.777e-3
-1.172, -1.813e-3
-1.171, -1.832e-3
-1.170, -1.837e-3
-1.169, -1.850e-3
-1.168, -1.877e-3
-1.167, -1.912e-3
-1.166, -1.928e-3
-1.165, -1.931e-3
-1.164, -1.945e-3
-1.163, -1.979e-3
-1.162, -2.023e-3
-1.161, -2.045e-3
-1.160, -2.044e-3
-1.159, -2.054e-3
-1.158, -2.087e-3
-1.157, -2.129e-3
-1.156, -2.150e-3
-1.155, -2.155e-3
-1.154, -2.170e-3
-1.153, -2.201e-3
-1.152, -2.243e-3
-1.151, -2.260e-3
-1.150, -2.263e-3
-1.149, -2.273e-3
-1.148, -2.307e-3
-1.147, -2.350e-3
-1.146, -2.373e-3
-1.145, -2.381e-3
-1.144, -2.389e-3
-1.143, -2.424e-3
-1.142, -2.467e-3
-1.141, -2.487e-3
-1.140, -2.491e-3
-1.139, -2.501e-3
-1.138, -2.533e-3
-1.137, -2.572e-3
-1.136, -2.598e-3
-1.135, -2.607e-3
-1.134, -2.618e-3
-1.133, -2.655e-3
-1.132, -2.696e-3
-1.131, -2.714e-3
-1.130, -2.715e-3
-1.129, -2.725e-3
-1.128, -2.756e-3
-1.127, -2.800e-3
-1.126, -2.821e-3
-1.125, -2.826e-3
-1.124, -2.825e-3
-1.123, -2.856e-3
-1.122, -2.893e-3
-1.121, -2.919e-3
-1.120, -2.920e-3
-1.119, -2.936e-3
-1.118, -2.976e-3
-1.117, -3.021e-3
-1.116, -3.045e-3
-1.115, -3.047e-3
-1.114, -3.051e-3
-1.113, -3.084e-3
-1.112, -3.123e-3
-1.111, -3.142e-3
-1.110, -3.143e-3
-1.109, -3.154e-3
-1.108, -3.189e-3
-1.107, -3.228e-3
-1.106, -3.245e-3
-1.105, -3.249e-3
-1.104, -3.254e-3
-1.103, -3.283e-3
-1.102, -3.329e-3
-1.101, -3.355e-3
-1.100, -3.355e-3
-1.099, -3.367e-3
-1.098, -3.400e-3
-1.097, -3.436e-3
-1.096, -3.454e-3
-1.095, -3.459e-3
-1.094, -3.466e-3
-1.093, -3.494e-3
-1.092, -3.533e-3
-1.091, -3.558e-3
-1.090, -3.561e-3
-1.089, -3.568e-3
-1.088, -3.603e-3
-1.087, -3.638e-3
-1.086, -3.655e-3
-1.085, -3.651e-3
-1.084, -3.654e-3
-1.083, -3.686e-3
-1.082, -3.729e-3
-1.081, -3.751e-3
-1.080, -3.749e-3
-1.079, -3.751e-3
-1.078, -3.779e-3
-1.077, -3.811e-3
-1.076, -3.831e-3
-1.075, -3.836e-3
-1.074, -3.841e-3
-1.073, -3.874e-3
-1.072, -3.920e-3
-1.071, -3.939e-3
-1.070, -3.938e-3
-1.069, -3.944e-3
-1.068, -3.966e-3
-1.067, -3.995e-3
-1.066, -4.012e-3
-1.065, -4.016e-3
-1.064, -4.026e-3
-1.063, -4.054e-3
-1.062, -4.088e-3
-1.061, -4.104e-3
-1.060, -4.104e-3
-1.059, -4.121e-3
-1.058, -4.149e-3
-1.057, -4.187e-3
-1.056, -4.203e-3
-1.055, -4.209e-3
-1.054, -4.216e-3
-1.053, -4.239e-3
-1.052, -4.270e-3
-1.051, -4.280e-3
-1.050, -4.284e-3
-1.049, -4.290e-3
-1.048, -4.310e-3
-1.047, -4.341e-3
-1.046, -4.362e-3
-1.045, -4.360e-3
-1.044, -4.361e-3
-1.043, -4.379e-3
-1.042, -4.408e-3
-1.041, -4.432e-3
-1.040, -4.435e-3
-1.039, -4.436e-3
-1.038, -4.460e-3
-1.037, -4.470e-3
-1.036, -4.478e-3
-1.035, -4.469e-3
-1.034, -4.469e-3
-1.033, -4.485e-3
-1.032, -4.522e-3
-1.031, -4.548e-3
-1.030, -4.552e-3
-1.029, -4.550e-3
-1.028, -4.567e-3
-1.027, -4.593e-3
-1.026, -4.604e-3
-1.025, -4.604e-3
-1.024, -4.608e-3
-1.023, -4.630e-3
-1.022, -4.666e-3
-1.021, -4.689e-3
-1.020, -4.685e-3
-1.019, -4.671e-3
-1.018, -4.683e-3
-1.017, -4.718e-3
-1.016, -4.730e-3
-1.015, -4.722e-3
-1.014, -4.720e-3
-1.013, -4.738e-3
-1.012, -4.767e-3
-1.011, -4.781e-3
-1.010, -4.782e-3
-1.009, -4.784e-3
-1.008, -4.809e-3
-1.007, -4.841e-3
-1.006, -4.847e-3
-1.005, -4.831e-3
-1.004, -4.810e-3
-1.003, -4.843e-3
-1.002, -4.864e-3
-1.001, -4.871e-3
-1.000, -4.759e-3
-1.001, -4.548e-3
-1.002, -4.379e-3
-1.003, -4.228e-3
-1.004, -4.076e-3
-1.005, -3.915e-3
-1.006, -3.762e-3
-1.007, -3.638e-3
-1.008, -3.526e-3
-1.009, -3.413e-3
-1.010, -3.284e-3
-1.011, -3.153e-3
-1.012, -3.046e-3
-1.013, -2.953e-3
-1.014, -2.853e-3
-1.015, -2.744e-3
-1.016, -2.627e-3
-1.017, -2.533e-3
-1.018, -2.464e-3
-1.019, -2.384e-3
-1.020, -2.280e-3
-1.021, -2.183e-3
-1.022, -2.108e-3
-1.023, -2.049e-3
-1.024, -1.978e-3
-1.025, -1.890e-3
-1.026, -1.807e-3
-1.027, -1.747e-3
-1.028, -1.699e-3
-1.029, -1.637e-3
-1.030, -1.557e-3
-1.031, -1.479e-3
-1.032, -1.423e-3
-1.033, -1.383e-3
-1.034, -1.330e-3
-1.035, -1.260e-3
-1.036, -1.193e-3
-1.037, -1.148e-3
-1.038, -1.114e-3
-1.039, -1.068e-3
-1.040, -1.004e-3
-1.041, -9.417e-4
-1.042, -9.018e-4
-1.043, -8.748e-4
-1.044, -8.351e-4
-1.045, -7.770e-4
-1.046, -7.213e-4
-1.047, -6.845e-4
-1.048, -6.611e-4
-1.049, -6.270e-4
-1.050, -5.729e-4
-1.051, -5.226e-4
-1.052, -4.932e-4
-1.053, -4.755e-4
-1.054, -4.451e-4
-1.055, -3.960e-4
-1.056, -3.481e-4
-1.057, -3.187e-4
-1.058, -3.032e-4
-1.059, -2.762e-4
-1.060, -2.298e-4
-1.061, -1.853e-4
-1.062, -1.589e-4
-1.063, -1.467e-4
-1.064, -1.229e-4
-1.065, -7.846e-5
-1.066, -3.534e-5
-1.067, -1.132e-5
-1.068, -4.156e-7
-1.069, 2.190e-5
-1.070, 6.476e-5
-1.071, 1.064e-4
-1.072, 1.291e-4
-1.073, 1.383e-4
-1.074, 1.592e-4
-1.075, 2.012e-4
-1.076, 2.420e-4
-1.077, 2.631e-4
-1.078, 2.707e-4
-1.079, 2.907e-4
-1.080, 3.304e-4
-1.081, 3.706e-4
-1.082, 3.926e-4
-1.083, 3.994e-4
-1.084, 4.184e-4
-1.085, 4.573e-4
-1.086, 4.960e-4
-1.087, 5.172e-4
-1.088, 5.237e-4
-1.089, 5.428e-4
-1.090, 5.810e-4
-1.091, 6.191e-4
-1.092, 6.408e-4
-1.093, 6.468e-4
-1.094, 6.643e-4
-1.095, 7.025e-4
-1.096, 7.402e-4
-1.097, 7.619e-4
-1.098, 7.688e-4
-1.099, 7.864e-4
-1.100, 8.242e-4
-1.101, 8.627e-4
-1.102, 8.831e-4
-1.103, 8.891e-4
-1.104, 9.054e-4
-1.105, 9.419e-4
-1.106, 9.798e-4
-1.107, 1.001e-3
-1.108, 1.009e-3
-1.109, 1.025e-3
-1.110, 1.064e-3
-1.111, 1.103e-3
-1.112, 1.125e-3
-1.113, 1.134e-3
-1.114, 1.151e-3
-1.115, 1.187e-3
-1.116, 1.224e-3
-1.117, 1.245e-3
-1.118, 1.251e-3
-1.119, 1.265e-3
-1.120, 1.302e-3
-1.121, 1.342e-3
-1.122, 1.363e-3
-1.123, 1.369e-3
-1.124, 1.387e-3
-1.125, 1.423e-3
-1.126, 1.463e-3
-1.127, 1.486e-3
-1.128, 1.488e-3
-1.129, 1.502e-3
-1.130, 1.539e-3
-1.131, 1.580e-3
-1.132, 1.602e-3
-1.133, 1.606e-3
-1.134, 1.624e-3
-1.135, 1.660e-3
-1.136, 1.701e-3
-1.137, 1.721e-3
-1.138, 1.729e-3
-1.139, 1.746e-3
-1.140, 1.781e-3
-1.141, 1.820e-3
-1.142, 1.841e-3
-1.143, 1.844e-3
-1.144, 1.856e-3
-1.145, 1.893e-3
-1.146, 1.928e-3
-1.147, 1.950e-3
-1.148, 1.959e-3
-1.149, 1.973e-3
-1.150, 2.007e-3
-1.151, 2.048e-3
-1.152, 2.072e-3
-1.153, 2.081e-3
-1.154, 2.093e-3
-1.155, 2.126e-3
-1.156, 2.163e-3
-1.157, 2.184e-3
-1.158, 2.190e-3
-1.159, 2.205e-3
-1.160, 2.242e-3
-1.161, 2.283e-3
-1.162, 2.302e-3
-1.163, 2.310e-3
-1.164, 2.323e-3
-1.165, 2.358e-3
-1.166, 2.397e-3
-1.167, 2.418e-3
-1.168, 2.425e-3
-1.169, 2.439e-3
-1.170, 2.474e-3
-1.171, 2.515e-3
-1.172, 2.540e-3
-1.173, 2.547e-3
-1.174, 2.563e-3
-1.175, 2.598e-3
-1.176, 2.636e-3
-1.177, 2.652e-3
-1.178, 2.657e-3
-1.179, 2.670e-3
-1.180, 2.704e-3
-1.181, 2.743e-3
-1.182, 2.762e-3
-1.183, 2.764e-3
-1.184, 2.777e-3
-1.185, 2.812e-3
-1.186, 2.851e-3
-1.187, 2.870e-3
-1.188, 2.875e-3
-1.189, 2.887e-3
-1.190, 2.920e-3
-1.191, 2.958e-3
-1.192, 2.977e-3
-1.193, 2.980e-3
-1.194, 2.989e-3
-1.195, 3.022e-3
-1.196, 3.059e-3
-1.197, 3.075e-3
-1.198, 3.079e-3
-1.199, 3.092e-3
-1.200, 3.125e-3
-1.201, 3.163e-3
-1.202, 3.182e-3
-1.203, 3.184e-3
-1.204, 3.185e-3
-1.205, 3.212e-3
-1.206, 3.252e-3
-1.207, 3.267e-3
-1.208, 3.272e-3
-1.209, 3.279e-3
-1.210, 3.305e-3
-1.211, 3.338e-3
-1.212, 3.353e-3
-1.213, 3.354e-3
-1.214, 3.362e-3
-1.215, 3.386e-3
-1.216, 3.419e-3
-1.217, 3.433e-3
-1.218, 3.431e-3
-1.219, 3.437e-3
-1.220, 3.467e-3
-1.221, 3.503e-3
-1.222, 3.512e-3
-1.223, 3.508e-3
-1.224, 3.506e-3
-1.225, 3.526e-3
-1.226, 3.561e-3
-1.227, 3.578e-3
-1.228, 3.576e-3
-1.229, 3.580e-3
-1.230, 3.599e-3
-1.231, 3.628e-3
-1.232, 3.640e-3
-1.233, 3.631e-3
-1.234, 3.630e-3
-1.235, 3.652e-3
-1.236, 3.682e-3
-1.237, 3.693e-3
-1.238, 3.686e-3
-1.239, 3.683e-3
-1.240, 3.702e-3
-1.241, 3.732e-3
-1.242, 3.739e-3
-1.243, 3.729e-3
-1.244, 3.726e-3
-1.245, 3.743e-3
-1.246, 3.770e-3
-1.247, 3.774e-3
-1.248, 3.762e-3
-1.249, 3.762e-3
-1.250, 3.778e-3
-1.251, 3.798e-3
-1.252, 3.807e-3
-1.253, 3.796e-3
-1.254, 3.788e-3
-1.255, 3.805e-3
-1.256, 3.832e-3
-1.257, 3.838e-3
-1.258, 3.828e-3
-1.259, 3.818e-3
-1.260, 3.829e-3
-1.261, 3.847e-3
-1.262, 3.856e-3
-1.263, 3.838e-3
-1.264, 3.825e-3
-1.265, 3.847e-3
-1.266, 3.879e-3
-1.267, 3.883e-3
-1.268, 3.869e-3
-1.269, 3.866e-3
-1.270, 3.877e-3
-1.271, 3.892e-3
-1.272, 3.889e-3
-1.273, 3.886e-3
-1.274, 3.879e-3
-1.275, 3.861e-3
-1.276, 3.852e-3
-1.277, 3.857e-3
-1.278, 3.848e-3
-1.279, 3.835e-3
-1.280, 3.848e-3
-1.281, 3.880e-3
-1.282, 3.894e-3
-1.283, 3.883e-3
-1.284, 3.872e-3
-1.285, 3.885e-3
-1.286, 3.911e-3
-1.287, 3.925e-3
-1.288, 3.911e-3
-1.289, 3.907e-3
-1.290, 3.923e-3
-1.291, 3.946e-3
-1.292, 3.946e-3
-1.293, 3.936e-3
-1.294, 3.934e-3
-1.295, 3.952e-3
-1.296, 3.978e-3
-1.297, 3.990e-3
-1.298, 3.983e-3
-1.299, 3.978e-3
-1.300, 3.994e-3
-1.301, 4.020e-3
-1.302, 4.030e-3
-1.303, 4.023e-3
-1.304, 4.022e-3
-1.305, 4.044e-3
-1.306, 4.075e-3
-1.307, 4.091e-3
-1.308, 4.086e-3
-1.309, 4.088e-3
-1.310, 4.107e-3
-1.311, 4.136e-3
-1.312, 4.150e-3
-1.313, 4.152e-3
-1.314, 4.148e-3
-1.315, 4.162e-3
-1.316, 4.200e-3
-1.317, 4.225e-3
-1.318, 4.223e-3
-1.319, 4.219e-3
-1.320, 4.246e-3
-1.321, 4.284e-3
-1.322, 4.304e-3
-1.323, 4.300e-3
-1.324, 4.300e-3
-1.325, 4.325e-3
-1.326, 4.352e-3
-1.327, 4.372e-3
-1.328, 4.373e-3
-1.329, 4.381e-3
-1.330, 4.401e-3
-1.331, 4.431e-3
-1.332, 4.451e-3
-1.333, 4.455e-3
-1.334, 4.460e-3
-1.335, 4.481e-3
-1.336, 4.524e-3
-1.337, 4.555e-3
-1.338, 4.555e-3
-1.339, 4.558e-3
-1.340, 4.591e-3
-1.341, 4.631e-3
-1.342, 4.642e-3
-1.343, 4.635e-3
-1.344, 4.643e-3
-1.345, 4.663e-3
-1.346, 4.715e-3
-1.347, 4.728e-3
-1.348, 4.726e-3
-1.349, 4.740e-3
-1.350, 4.757e-3
-1.351, 4.791e-3
-1.352, 4.817e-3
-1.353, 4.818e-3
-1.354, 4.819e-3
-1.355, 4.831e-3
-1.356, 4.868e-3
-1.357, 4.891e-3
-1.358, 4.881e-3
-1.359, 4.877e-3
-1.360, 4.902e-3
-1.361, 4.936e-3
-1.362, 4.954e-3
-1.363, 4.961e-3
-1.364, 4.972e-3
-1.365, 4.998e-3
-1.366, 5.028e-3
-1.367, 5.050e-3
-1.368, 5.047e-3
-1.369, 5.043e-3
-1.370, 5.067e-3
-1.371, 5.103e-3
-1.372, 5.124e-3
-1.373, 5.112e-3
-1.374, 5.130e-3
-1.375, 5.161e-3
-1.376, 5.177e-3
-1.377, 5.197e-3
-1.378, 5.204e-3
-1.379, 5.203e-3
-1.380, 5.222e-3
-1.381, 5.258e-3
-1.382, 5.285e-3
-1.383, 5.291e-3
-1.384, 5.299e-3
-1.385, 5.323e-3
-1.386, 5.356e-3
-1.387, 5.382e-3
-1.388, 5.392e-3
-1.389, 5.398e-3
-1.390, 5.434e-3
-1.391, 5.489e-3
-1.392, 5.522e-3
-1.393, 5.536e-3
-1.394, 5.555e-3
-1.395, 5.588e-3
-1.396, 5.646e-3
-1.397, 5.695e-3
-1.398, 5.736e-3
-1.399, 5.779e-3
-1.400, 5.736e-3
-1.399, 5.622e-3
-1.398, 5.531e-3
-1.397, 5.441e-3
-1.396, 5.355e-3
-1.395, 5.298e-3
-1.394, 5.265e-3
-1.393, 5.228e-3
-1.392, 5.176e-3
-1.391, 5.126e-3
-1.390, 5.101e-3
-1.389, 5.086e-3
-1.388, 5.062e-3
-1.387, 5.017e-3
-1.386, 4.976e-3
-1.385, 4.959e-3
-1.384, 4.953e-3
-1.383, 4.939e-3
-1.382, 4.893e-3
-1.381, 4.853e-3
-1.380, 4.834e-3
-1.379, 4.825e-3
-1.378, 4.805e-3
-1.377, 4.757e-3
-1.376, 4.713e-3
-1.375, 4.683e-3
-1.374, 4.667e-3
-1.373, 4.641e-3
-1.372, 4.590e-3
-1.371, 4.538e-3
-1.370, 4.500e-3
-1.369, 4.473e-3
-1.368, 4.438e-3
-1.367, 4.378e-3
-1.366, 4.313e-3
-1.365, 4.273e-3
-1.364, 4.243e-3
-1.363, 4.203e-3
-1.362, 4.138e-3
-1.361, 4.067e-3
-1.360, 4.015e-3
-1.359, 3.983e-3
-1.358, 3.938e-3
-1.357, 3.867e-3
-1.356, 3.797e-3
-1.355, 3.741e-3
-1.354, 3.700e-3
-1.353, 3.651e-3
-1.352, 3.582e-3
-1.351, 3.510e-3
-1.350, 3.456e-3
-1.349, 3.414e-3
-1.348, 3.367e-3
-1.347, 3.292e-3
-1.346, 3.218e-3
-1.345, 3.161e-3
-1.344, 3.119e-3
-1.343, 3.072e-3
-1.342, 3.004e-3
-1.341, 2.935e-3
-1.340, 2.881e-3
-1.339, 2.840e-3
-1.338, 2.792e-3
-1.337, 2.722e-3
-1.336, 2.651e-3
-1.335, 2.597e-3
-1.334, 2.557e-3
-1.333, 2.510e-3
-1.332, 2.443e-3
-1.331, 2.374e-3
-1.330, 2.326e-3
-1.329, 2.297e-3
-1.328, 2.251e-3
-1.327, 2.181e-3
-1.326, 2.113e-3
-1.325, 2.062e-3
-1.324, 2.028e-3
-1.323, 1.987e-3
-1.322, 1.924e-3
-1.321, 1.858e-3
-1.320, 1.818e-3
-1.319, 1.779e-3
-1.318, 1.739e-3
-1.317, 1.680e-3
-1.316, 1.614e-3
-1.315, 1.571e-3
-1.314, 1.540e-3
-1.313, 1.503e-3
-1.312, 1.451e-3
-1.311, 1.386e-3
-1.310, 1.344e-3
-1.309, 1.317e-3
-1.308, 1.284e-3
-1.307, 1.231e-3
-1.306, 1.172e-3
-1.305, 1.132e-3
-1.304, 1.108e-3
-1.303, 1.078e-3
-1.302, 1.026e-3
-1.301, 9.690e-4
-1.300, 9.317e-4
-1.299, 9.112e-4
-1.298, 8.838e-4
-1.297, 8.353e-4
-1.296, 7.806e-4
-1.295, 7.452e-4
-1.294, 7.243e-4
-1.293, 6.986e-4
-1.292, 6.530e-4
-1.291, 6.013e-4
-1.290, 5.707e-4
-1.289, 5.533e-4
-1.288, 5.310e-4
-1.287, 4.866e-4
-1.286, 4.364e-4
-1.285, 4.071e-4
-1.284, 3.914e-4
-1.283, 3.708e-4
-1.282, 3.295e-4
-1.281, 2.817e-4
-1.280, 2.536e-4
-1.279, 2.406e-4
-1.278, 2.219e-4
-1.277, 1.838e-4
-1.276, 1.375e-4
-1.275, 1.117e-4
-1.274, 1.017e-4
-1.273, 8.664e-5
-1.272, 5.017e-5
-1.271, 4.890e-6
-1.270, -2.007e-5
-1.269, -2.832e-5
-1.268, -4.171e-5
-1.267, -7.535e-5
-1.266, -1.175e-4
-1.265, -1.415e-4
-1.264, -1.488e-4
-1.263, -1.615e-4
-1.262, -1.950e-4
-1.261, -2.362e-4
-1.260, -2.586e-4
-1.259, -2.638e-4
-1.258, -2.764e-4
-1.257, -3.098e-4
-1.256, -3.496e-4
-1.255, -3.710e-4
-1.254, -3.745e-4
-1.253, -3.811e-4
-1.252, -4.105e-4
-1.251, -4.499e-4
-1.250, -4.718e-4
-1.249, -4.773e-4
-1.248, -4.854e-4
-1.247, -5.140e-4
-1.246, -5.506e-4
-1.245, -5.693e-4
-1.244, -5.725e-4
-1.243, -5.801e-4
-1.242, -6.090e-4
-1.241, -6.475e-4
-1.240, -6.667e-4
-1.239, -6.697e-4
-1.238, -6.751e-4
-1.237, -7.006e-4
-1.236, -7.362e-4
-1.235, -7.552e-4
-1.234, -7.572e-4
-1.233, -7.657e-4
-1.232, -7.934e-4
-1.231, -8.284e-4
-1.230, -8.456e-4
-1.229, -8.489e-4
-1.228, -8.529e-4
-1.227, -8.767e-4
-1.226, -9.118e-4
-1.225, -9.314e-4
-1.224, -9.335e-4
-1.223, -9.390e-4
-1.222, -9.653e-4
-1.221, -9.982e-4
-1.220, -1.016e-3
-1.219, -1.015e-3
-1.218, -1.020e-3
-1.217, -1.045e-3
-1.216, -1.078e-3
-1.215, -1.097e-3
-1.214, -1.098e-3
-1.213, -1.103e-3
-1.212, -1.127e-3
-1.211, -1.161e-3
-1.210, -1.179e-3
-1.209, -1.179e-3
-1.208, -1.182e-3
-1.207, -1.206e-3
-1.206, -1.241e-3
-1.205, -1.261e-3
-1.204, -1.262e-3
-1.203, -1.266e-3
-1.202, -1.289e-3
-1.201, -1.322e-3
-1.200, -1.340e-3
-1.199, -1.341e-3
-1.198, -1.344e-3
-1.197, -1.367e-3
-1.196, -1.403e-3
-1.195, -1.424e-3
-1.194, -1.422e-3
-1.193, -1.427e-3
-1.192, -1.450e-3
-1.191, -1.483e-3
-1.190, -1.503e-3
-1.189, -1.504e-3
-1.188, -1.508e-3
-1.187, -1.533e-3
-1.186, -1.566e-3
-1.185, -1.589e-3
-1.184, -1.593e-3
-1.183, -1.598e-3
-1.182, -1.620e-3
-1.181, -1.652e-3
-1.180, -1.675e-3
-1.179, -1.673e-3
-1.178, -1.677e-3
-1.177, -1.702e-3
-1.176, -1.738e-3
-1.175, -1.760e-3
-1.174, -1.761e-3
-1.173, -1.764e-3
-1.172, -1.789e-3
-1.171, -1.823e-3
-1.170, -1.852e-3
-1.169, -1.861e-3
-1.168, -1.865e-3
-1.167, -1.892e-3
-1.166, -1.929e-3
-1.165, -1.947e-3
-1.164, -1.950e-3
-1.163, -1.953e-3
-1.162, -1.979e-3
-1.161, -2.020e-3
-1.160, -2.046e-3
-1.159, -2.052e-3
-1.158, -2.055e-3
-1.157, -2.072e-3
-1.156, -2.106e-3
-1.155, -2.129e-3
-1.154, -2.134e-3
-1.153, -2.140e-3
-1.152, -2.167e-3
-1.151, -2.206e-3
-1.150, -2.233e-3
-1.149, -2.234e-3
-1.148, -2.239e-3
-1.147, -2.260e-3
-1.146, -2.299e-3
-1.145, -2.331e-3
-1.144, -2.341e-3
-1.143, -2.349e-3
-1.142, -2.378e-3
-1.141, -2.421e-3
-1.140, -2.444e-3
-1.139, -2.440e-3
-1.138, -2.437e-3
-1.137, -2.459e-3
-1.136, -2.500e-3
-1.135, -2.529e-3
-1.134, -2.534e-3
-1.133, -2.539e-3
-1.132, -2.561e-3
-1.131, -2.596e-3
-1.130, -2.619e-3
-1.129, -2.626e-3
-1.128, -2.631e-3
-1.127, -2.655e-3
-1.126, -2.691e-3
-1.125, -2.721e-3
-1.124, -2.725e-3
-1.123, -2.729e-3
-1.122, -2.744e-3
-1.121, -2.783e-3
-1.120, -2.810e-3
-1.119, -2.811e-3
-1.118, -2.814e-3
-1.117, -2.840e-3
-1.116, -2.871e-3
-1.115, -2.903e-3
-1.114, -2.907e-3
-1.113, -2.906e-3
-1.112, -2.936e-3
-1.111, -2.954e-3
-1.110, -2.970e-3
-1.109, -2.976e-3
-1.108, -2.980e-3
-1.107, -2.999e-3
-1.106, -3.036e-3
-1.105, -3.066e-3
-1.104, -3.076e-3
-1.103, -3.081e-3
-1.102, -3.100e-3
-1.101, -3.139e-3
-1.100, -3.166e-3
-1.099, -3.167e-3
-1.098, -3.165e-3
-1.097, -3.186e-3
-1.096, -3.217e-3
-1.095, -3.241e-3
-1.094, -3.245e-3
-1.093, -3.249e-3
-1.092, -3.268e-3
-1.091, -3.300e-3
-1.090, -3.323e-3
-1.089, -3.328e-3
-1.088, -3.335e-3
-1.087, -3.356e-3
-1.086, -3.385e-3
-1.085, -3.420e-3
-1.084, -3.424e-3
-1.083, -3.418e-3
-1.082, -3.428e-3
-1.081, -3.447e-3
-1.080, -3.471e-3
-1.079, -3.473e-3
-1.078, -3.477e-3
-1.077, -3.499e-3
-1.076, -3.536e-3
-1.075, -3.558e-3
-1.074, -3.552e-3
-1.073, -3.548e-3
-1.072, -3.564e-3
-1.071, -3.598e-3
-1.070, -3.624e-3
-1.069, -3.625e-3
-1.068, -3.623e-3
-1.067, -3.637e-3
-1.066, -3.665e-3
-1.065, -3.686e-3
-1.064, -3.691e-3
-1.063, -3.689e-3
-1.062, -3.707e-3
-1.061, -3.737e-3
-1.060, -3.755e-3
-1.059, -3.753e-3
-1.058, -3.750e-3
-1.057, -3.765e-3
-1.056, -3.793e-3
-1.055, -3.814e-3
-1.054, -3.818e-3
-1.053, -3.816e-3
-1.052, -3.826e-3
-1.051, -3.848e-3
-1.050, -3.871e-3
-1.049, -3.877e-3
-1.048, -3.873e-3
-1.047, -3.886e-3
-1.046, -3.911e-3
-1.045, -3.927e-3
-1.044, -3.928e-3
-1.043, -3.922e-3
-1.042, -3.935e-3
-1.041, -3.962e-3
-1.040, -3.981e-3
-1.039, -3.980e-3
-1.038, -3.983e-3
-1.037, -4.002e-3
-1.036, -4.028e-3
-1.035, -4.048e-3
-1.034, -4.051e-3
-1.033, -4.054e-3
-1.032, -4.078e-3
-1.031, -4.108e-3
-1.030, -4.122e-3
-1.029, -4.115e-3
-1.028, -4.110e-3
-1.027, -4.123e-3
-1.026, -4.152e-3
-1.025, -4.166e-3
-1.024, -4.158e-3
-1.023, -4.156e-3
-1.022, -4.166e-3
-1.021, -4.185e-3
-1.020, -4.200e-3
-1.019, -4.204e-3
-1.018, -4.195e-3
-1.017, -4.218e-3
-1.016, -4.248e-3
-1.015, -4.274e-3
-1.014, -4.289e-3
-1.013, -4.277e-3
-1.012, -4.280e-3
-1.011, -4.297e-3
-1.010, -4.300e-3
-1.009, -4.306e-3
-1.008, -4.297e-3
-1.007, -4.308e-3
-1.006, -4.336e-3
-1.005, -4.356e-3
-1.004, -4.355e-3
-1.003, -4.342e-3
-1.002, -4.345e-3
-1.001, -4.366e-3
-1.000, -4.286e-3
-1.001, -4.096e-3
-1.002, -3.915e-3
-1.003, -3.771e-3
-1.004, -3.648e-3
-1.005, -3.528e-3
-1.006, -3.393e-3
-1.007, -3.254e-3
-1.008, -3.141e-3
-1.009, -3.040e-3
-1.010, -2.939e-3
-1.011, -2.827e-3
-1.012, -2.714e-3
-1.013, -2.621e-3
-1.014, -2.544e-3
-1.015, -2.466e-3
-1.016, -2.367e-3
-1.017, -2.263e-3
-1.018, -2.180e-3
-1.019, -2.117e-3
-1.020, -2.050e-3
-1.021, -1.967e-3
-1.022, -1.880e-3
-1.023, -1.812e-3
-1.024, -1.758e-3
-1.025, -1.703e-3
-1.026, -1.630e-3
-1.027, -1.555e-3
-1.028, -1.494e-3
-1.029, -1.450e-3
-1.030, -1.403e-3
-1.031, -1.341e-3
-1.032, -1.267e-3
-1.033, -1.216e-3
-1.034, -1.179e-3
-1.035, -1.137e-3
-1.036, -1.083e-3
-1.037, -1.019e-3
-1.038, -9.782e-4
-1.039, -9.513e-4
-1.040, -9.185e-4
-1.041, -8.671e-4
-1.042, -8.087e-4
-1.043, -7.669e-4
-1.044, -7.421e-4
-1.045, -7.140e-4
-1.046, -6.691e-4
-1.047, -6.155e-4
-1.048, -5.780e-4
-1.049, -5.574e-4
-1.050, -5.339e-4
-1.051, -4.930e-4
-1.052, -4.436e-4
-1.053, -4.105e-4
-1.054, -3.927e-4
-1.055, -3.718e-4
-1.056, -3.333e-4
-1.057, -2.855e-4
-1.058, -2.536e-4
-1.059, -2.388e-4
-1.060, -2.213e-4
-1.061, -1.863e-4
-1.062, -1.418e-4
-1.063, -1.122e-4
-1.064, -9.948e-5
-1.065, -8.417e-5
-1.066, -5.051e-5
-1.067, -8.022e-6
-1.068, 2.028e-5
-1.069, 3.097e-5
-1.070, 4.452e-5
-1.071, 7.645e-5
-1.072, 1.172e-4
-1.073, 1.445e-4
-1.074, 1.544e-4
-1.075, 1.671e-4
-1.076, 1.981e-4
-1.077, 2.369e-4
-1.078, 2.635e-4
-1.079, 2.731e-4
-1.080, 2.837e-4
-1.081, 3.140e-4
-1.082, 3.537e-4
-1.083, 3.795e-4
-1.084, 3.878e-4
-1.085, 3.973e-4
-1.086, 4.262e-4
-1.087, 4.647e-4
-1.088, 4.899e-4
-1.089, 4.984e-4
-1.090, 5.084e-4
-1.091, 5.366e-4
-1.092, 5.754e-4
-1.093, 6.022e-4
-1.094, 6.110e-4
-1.095, 6.200e-4
-1.096, 6.467e-4
-1.097, 6.844e-4
-1.098, 7.112e-4
-1.099, 7.183e-4
-1.100, 7.271e-4
-1.101, 7.545e-4
-1.102, 7.923e-4
-1.103, 8.192e-4
-1.104, 8.281e-4
-1.105, 8.367e-4
-1.106, 8.627e-4
-1.107, 9.038e-4
-1.108, 9.346e-4
-1.109, 9.400e-4
-1.110, 9.469e-4
-1.111, 9.708e-4
-1.112, 1.008e-3
-1.113, 1.035e-3
-1.114, 1.044e-3
-1.115, 1.054e-3
-1.116, 1.081e-3
-1.117, 1.118e-3
-1.118, 1.144e-3
-1.119, 1.152e-3
-1.120, 1.160e-3
-1.121, 1.187e-3
-1.122, 1.226e-3
-1.123, 1.252e-3
-1.124, 1.260e-3
-1.125, 1.269e-3
-1.126, 1.294e-3
-1.127, 1.332e-3
-1.128, 1.358e-3
-1.129, 1.368e-3
-1.130, 1.373e-3
-1.131, 1.397e-3
-1.132, 1.441e-3
-1.133, 1.469e-3
-1.134, 1.472e-3
-1.135, 1.481e-3
-1.136, 1.504e-3
-1.137, 1.539e-3
-1.138, 1.567e-3
-1.139, 1.577e-3
-1.140, 1.584e-3
-1.141, 1.609e-3
-1.142, 1.647e-3
-1.143, 1.676e-3
-1.144, 1.682e-3
-1.145, 1.686e-3
-1.146, 1.710e-3
-1.147, 1.748e-3
-1.148, 1.775e-3
-1.149, 1.783e-3
-1.150, 1.792e-3
-1.151, 1.817e-3
-1.152, 1.856e-3
-1.153, 1.886e-3
-1.154, 1.889e-3
-1.155, 1.893e-3
-1.156, 1.918e-3
-1.157, 1.955e-3
-1.158, 1.978e-3
-1.159, 1.986e-3
-1.160, 1.994e-3
-1.161, 2.017e-3
-1.162, 2.057e-3
-1.163, 2.084e-3
-1.164, 2.090e-3
-1.165, 2.098e-3
-1.166, 2.124e-3
-1.167, 2.157e-3
-1.168, 2.186e-3
-1.169, 2.192e-3
-1.170, 2.194e-3
-1.171, 2.218e-3
-1.172, 2.255e-3
-1.173, 2.281e-3
-1.174, 2.289e-3
-1.175, 2.292e-3
-1.176, 2.314e-3
-1.177, 2.351e-3
-1.178, 2.379e-3
-1.179, 2.386e-3
-1.180, 2.389e-3
-1.181, 2.410e-3
-1.182, 2.445e-3
-1.183, 2.473e-3
-1.184, 2.478e-3
-1.185, 2.482e-3
-1.186, 2.503e-3
-1.187, 2.530e-3
-1.188, 2.556e-3
-1.189, 2.559e-3
-1.190, 2.565e-3
-1.191, 2.585e-3
-1.192, 2.618e-3
-1.193, 2.647e-3
-1.194, 2.653e-3
-1.195, 2.654e-3
-1.196, 2.673e-3
-1.197, 2.706e-3
-1.198, 2.730e-3
-1.199, 2.732e-3
-1.200, 2.732e-3
-1.201, 2.756e-3
-1.202, 2.789e-3
-1.203, 2.816e-3
-1.204, 2.823e-3
-1.205, 2.820e-3
-1.206, 2.834e-3
-1.207, 2.862e-3
-1.208, 2.884e-3
-1.209, 2.887e-3
-1.210, 2.885e-3
-1.211, 2.903e-3
-1.212, 2.935e-3
-1.213, 2.958e-3
-1.214, 2.962e-3
-1.215, 2.956e-3
-1.216, 2.965e-3
-1.217, 2.992e-3
-1.218, 3.012e-3
-1.219, 3.014e-3
-1.220, 3.010e-3
-1.221, 3.022e-3
-1.222, 3.050e-3
-1.223, 3.073e-3
-1.224, 3.073e-3
-1.225, 3.066e-3
-1.226, 3.079e-3
-1.227, 3.105e-3
-1.228, 3.128e-3
-1.229, 3.130e-3
-1.230, 3.125e-3
-1.231, 3.132e-3
-1.232, 3.152e-3
-1.233, 3.167e-3
-1.234, 3.154e-3
-1.235, 3.140e-3
-1.236, 3.177e-3
-1.237, 3.206e-3
-1.238, 3.226e-3
-1.239, 3.229e-3
-1.240, 3.223e-3
-1.241, 3.233e-3
-1.242, 3.255e-3
-1.243, 3.270e-3
-1.244, 3.262e-3
-1.245, 3.239e-3
-1.246, 3.242e-3
-1.247, 3.267e-3
-1.248, 3.282e-3
-1.249, 3.274e-3
-1.250, 3.266e-3
-1.251, 3.268e-3
-1.252, 3.292e-3
-1.253, 3.302e-3
-1.254, 3.294e-3
-1.255, 3.279e-3
-1.256, 3.279e-3
-1.257, 3.297e-3
-1.258, 3.312e-3
-1.259, 3.303e-3
-1.260, 3.287e-3
-1.261, 3.296e-3
-1.262, 3.319e-3
-1.263, 3.343e-3
-1.264, 3.330e-3
-1.265, 3.313e-3
-1.266, 3.307e-3
-1.267, 3.321e-3
-1.268, 3.335e-3
-1.269, 3.326e-3
-1.270, 3.312e-3
-1.271, 3.312e-3
-1.272, 3.328e-3
-1.273, 3.344e-3
-1.274, 3.338e-3
-1.275, 3.320e-3
-1.276, 3.323e-3
-1.277, 3.337e-3
-1.278, 3.352e-3
-1.279, 3.346e-3
-1.280, 3.327e-3
-1.281, 3.330e-3
-1.282, 3.352e-3
-1.283, 3.368e-3
-1.284, 3.366e-3
-1.285, 3.348e-3
-1.286, 3.363e-3
-1.287, 3.379e-3
-1.288, 3.397e-3
-1.289, 3.392e-3
-1.290, 3.376e-3
-1.291, 3.376e-3
-1.292, 3.395e-3
-1.293, 3.416e-3
-1.294, 3.419e-3
-1.295, 3.408e-3
-1.296, 3.411e-3
-1.297, 3.434e-3
-1.298, 3.451e-3
-1.299, 3.442e-3
-1.300, 3.432e-3
-1.301, 3.439e-3
-1.302, 3.461e-3
-1.303, 3.488e-3
-1.304, 3.485e-3
-1.305, 3.475e-3
-1.306, 3.472e-3
-1.307, 3.491e-3
-1.308, 3.514e-3
-1.309, 3.517e-3
-1.310, 3.510e-3
-1.311, 3.522e-3
-1.312, 3.553e-3
-1.313, 3.575e-3
-1.314, 3.581e-3
-1.315, 3.574e-3
-1.316, 3.577e-3
-1.317, 3.599e-3
-1.318, 3.622e-3
-1.319, 3.625e-3
-1.320, 3.622e-3
-1.321, 3.639e-3
-1.322, 3.708e-3
-1.323, 3.732e-3
-1.324, 3.730e-3
-1.325, 3.721e-3
-1.326, 3.726e-3
-1.327, 3.747e-3
-1.328, 3.772e-3
-1.329, 3.781e-3
-1.330, 3.772e-3
-1.331, 3.780e-3
-1.332, 3.810e-3
-1.333, 3.835e-3
-1.334, 3.843e-3
-1.335, 3.844e-3
-1.336, 3.848e-3
-1.337, 3.875e-3
-1.338, 3.901e-3
-1.339, 3.908e-3
-1.340, 3.910e-3
-1.341, 3.919e-3
-1.342, 3.943e-3
-1.343, 3.964e-3
-1.344, 3.975e-3
-1.345, 3.974e-3
-1.346, 3.984e-3
-1.347, 4.019e-3
-1.348, 4.040e-3
-1.349, 4.039e-3
-1.350, 4.033e-3
-1.351, 4.048e-3
-1.352, 4.077e-3
-1.353, 4.097e-3
-1.354, 4.103e-3
-1.355, 4.097e-3
-1.356, 4.102e-3
-1.357, 4.152e-3
-1.358, 4.193e-3
-1.359, 4.194e-3
-1.360, 4.171e-3
-1.361, 4.169e-3
-1.362, 4.196e-3
-1.363, 4.220e-3
-1.364, 4.228e-3
-1.365, 4.224e-3
-1.366, 4.236e-3
-1.367, 4.258e-3
-1.368, 4.292e-3
-1.369, 4.301e-3
-1.370, 4.296e-3
-1.371, 4.296e-3
-1.372, 4.318e-3
-1.373, 4.341e-3
-1.374, 4.351e-3
-1.375, 4.358e-3
-1.376, 4.362e-3
-1.377, 4.396e-3
-1.378, 4.434e-3
-1.379, 4.438e-3
-1.380, 4.432e-3
-1.381, 4.434e-3
-1.382, 4.463e-3
-1.383, 4.491e-3
-1.384, 4.509e-3
-1.385, 4.525e-3
-1.386, 4.525e-3
-1.387, 4.556e-3
-1.388, 4.588e-3
-1.389, 4.609e-3
-1.390, 4.619e-3
-1.391, 4.645e-3
-1.392, 4.700e-3
-1.393, 4.754e-3
-1.394, 4.794e-3
-1.395, 4.820e-3
-1.396, 4.859e-3
-1.397, 4.927e-3
-1.398, 5.004e-3
-1.399, 5.072e-3
-1.400, 5.032e-3
-1.399, 4.911e-3
-1.398, 4.854e-3
-1.397, 4.817e-3
-1.396, 4.770e-3
-1.395, 4.723e-3
-1.394, 4.687e-3
-1.393, 4.672e-3
-1.392, 4.669e-3
-1.391, 4.651e-3
-1.390, 4.626e-3
-1.389, 4.600e-3
-1.388, 4.590e-3
-1.387, 4.617e-3
-1.386, 4.604e-3
-1.385, 4.573e-3
-1.384, 4.562e-3
-1.383, 4.558e-3
-1.382, 4.563e-3
-1.381, 4.548e-3
-1.380, 4.517e-3
-1.379, 4.491e-3
-1.378, 4.471e-3
-1.377, 4.451e-3
-1.376, 4.417e-3
-1.375, 4.370e-3
-1.374, 4.336e-3
-1.373, 4.319e-3
-1.372, 4.299e-3
-1.371, 4.265e-3
-1.370, 4.209e-3
-1.369, 4.155e-3
-1.368, 4.120e-3
-1.367, 4.091e-3
-1.366, 4.044e-3
-1.365, 3.982e-3
-1.364, 3.927e-3
-1.363, 3.889e-3
-1.362, 3.858e-3
-1.361, 3.806e-3
-1.360, 3.735e-3
-1.359, 3.672e-3
-1.358, 3.629e-3
-1.357, 3.593e-3
-1.356, 3.539e-3
-1.355, 3.468e-3
-1.354, 3.404e-3
-1.353, 3.364e-3
-1.352, 3.335e-3
-1.351, 3.275e-3
-1.350, 3.199e-3
-1.349, 3.138e-3
-1.348, 3.096e-3
-1.347, 3.060e-3
-1.346, 3.001e-3
-1.345, 2.928e-3
-1.344, 2.866e-3
-1.343, 2.824e-3
-1.342, 2.790e-3
-1.341, 2.733e-3
-1.340, 2.666e-3
-1.339, 2.602e-3
-1.338, 2.552e-3
-1.337, 2.517e-3
-1.336, 2.466e-3
-1.335, 2.393e-3
-1.334, 2.335e-3
-1.333, 2.295e-3
-1.332, 2.261e-3
-1.331, 2.205e-3
-1.330, 2.142e-3
-1.329, 2.080e-3
-1.328, 2.037e-3
-1.327, 2.007e-3
-1.326, 1.958e-3
-1.325, 1.892e-3
-1.324, 1.831e-3
-1.323, 1.797e-3
-1.322, 1.766e-3
-1.321, 1.718e-3
-1.320, 1.659e-3
-1.319, 1.600e-3
-1.318, 1.562e-3
-1.317, 1.537e-3
-1.316, 1.495e-3
-1.315, 1.435e-3
-1.314, 1.379e-3
-1.313, 1.345e-3
-1.312, 1.321e-3
-1.311, 1.281e-3
-1.310, 1.223e-3
-1.309, 1.170e-3
-1.308, 1.138e-3
-1.307, 1.116e-3
-1.306, 1.077e-3
-1.305, 1.024e-3
-1.304, 9.749e-4
-1.303, 9.440e-4
-1.302, 9.205e-4
-1.301, 8.850e-4
-1.300, 8.328e-4
-1.299, 7.874e-4
-1.298, 7.619e-4
-1.297, 7.415e-4
-1.296, 7.113e-4
-1.295, 6.629e-4
-1.294, 6.170e-4
-1.293, 5.909e-4
-1.292, 5.741e-4
-1.291, 5.450e-4
-1.290, 4.987e-4
-1.289, 4.544e-4
-1.288, 4.315e-4
-1.287, 4.182e-4
-1.286, 3.917e-4
-1.285, 3.475e-4
-1.284, 3.046e-4
-1.283, 2.820e-4
-1.282, 2.700e-4
-1.281, 2.465e-4
-1.280, 2.049e-4
-1.279, 1.658e-4
-1.278, 1.454e-4
-1.277, 1.367e-4
-1.276, 1.139e-4
-1.275, 7.313e-5
-1.274, 3.445e-5
-1.273, 1.536e-5
-1.272, 8.590e-6
-1.271, -9.787e-6
-1.270, -4.706e-5
-1.269, -8.245e-5
-1.268, -1.005e-4
-1.267, -1.075e-4
-1.266, -1.258e-4
-1.265, -1.627e-4
-1.264, -1.979e-4
-1.263, -2.154e-4
-1.262, -2.199e-4
-1.261, -2.356e-4
-1.260, -2.714e-4
-1.259, -3.056e-4
-1.258, -3.215e-4
-1.257, -3.243e-4
-1.256, -3.384e-4
-1.255, -3.716e-4
-1.254, -4.042e-4
-1.253, -4.190e-4
-1.252, -4.209e-4
-1.251, -4.332e-4
-1.250, -4.653e-4
-1.249, -4.982e-4
-1.248, -5.142e-4
-1.247, -5.180e-4
-1.246, -5.312e-4
-1.245, -5.622e-4
-1.244, -5.949e-4
-1.243, -6.079e-4
-1.242, -6.067e-4
-1.241, -6.171e-4
-1.240, -6.470e-4
-1.239, -6.787e-4
-1.238, -6.934e-4
-1.237, -6.927e-4
-1.236, -7.028e-4
-1.235, -7.322e-4
-1.234, -7.607e-4
-1.233, -7.733e-4
-1.232, -7.727e-4
-1.231, -7.812e-4
-1.230, -8.097e-4
-1.229, -8.431e-4
-1.228, -8.580e-4
-1.227, -8.591e-4
-1.226, -8.685e-4
-1.225, -8.973e-4
-1.224, -9.252e-4
-1.223, -9.374e-4
-1.222, -9.376e-4
-1.221, -9.452e-4
-1.220, -9.725e-4
-1.219, -1.004e-3
-1.218, -1.017e-3
-1.217, -1.017e-3
-1.216, -1.025e-3
-1.215, -1.053e-3
-1.214, -1.083e-3
-1.213, -1.097e-3
-1.212, -1.096e-3
-1.211, -1.102e-3
-1.210, -1.127e-3
-1.209, -1.156e-3
-1.208, -1.168e-3
-1.207, -1.169e-3
-1.206, -1.175e-3
-1.205, -1.204e-3
-1.204, -1.235e-3
-1.203, -1.247e-3
-1.202, -1.252e-3
-1.201, -1.256e-3
-1.200, -1.280e-3
-1.199, -1.312e-3
-1.198, -1.328e-3
-1.197, -1.329e-3
-1.196, -1.334e-3
-1.195, -1.358e-3
-1.194, -1.392e-3
-1.193, -1.403e-3
-1.192, -1.400e-3
-1.191, -1.409e-3
-1.190, -1.433e-3
-1.189, -1.464e-3
-1.188, -1.480e-3
-1.187, -1.482e-3
-1.186, -1.490e-3
-1.185, -1.519e-3
-1.184, -1.550e-3
-1.183, -1.560e-3
-1.182, -1.561e-3
-1.181, -1.565e-3
-1.180, -1.591e-3
-1.179, -1.626e-3
-1.178, -1.645e-3
-1.177, -1.646e-3
-1.176, -1.650e-3
-1.175, -1.678e-3
-1.174, -1.712e-3
-1.173, -1.727e-3
-1.172, -1.730e-3
-1.171, -1.737e-3
-1.170, -1.764e-3
-1.169, -1.798e-3
-1.168, -1.812e-3
-1.167, -1.815e-3
-1.166, -1.824e-3
-1.165, -1.857e-3
-1.164, -1.890e-3
-1.163, -1.909e-3
-1.162, -1.909e-3
-1.161, -1.914e-3
-1.160, -1.941e-3
-1.159, -1.977e-3
-1.158, -1.992e-3
-1.157, -1.995e-3
-1.156, -2.001e-3
-1.155, -2.024e-3
-1.154, -2.063e-3
-1.153, -2.079e-3
-1.152, -2.084e-3
-1.151, -2.094e-3
-1.150, -2.118e-3
-1.149, -2.151e-3
-1.148, -2.169e-3
-1.147, -2.173e-3
-1.146, -2.179e-3
-1.145, -2.204e-3
-1.144, -2.241e-3
-1.143, -2.265e-3
-1.142, -2.272e-3
-1.141, -2.281e-3
-1.140, -2.299e-3
-1.139, -2.332e-3
-1.138, -2.351e-3
-1.137, -2.355e-3
-1.136, -2.363e-3
-1.135, -2.386e-3
-1.134, -2.416e-3
-1.133, -2.437e-3
-1.132, -2.442e-3
-1.131, -2.445e-3
-1.130, -2.475e-3
-1.129, -2.524e-3
-1.128, -2.562e-3
-1.127, -2.559e-3
-1.126, -2.558e-3
-1.125, -2.568e-3
-1.124, -2.623e-3
-1.123, -2.642e-3
-1.122, -2.639e-3
-1.121, -2.645e-3
-1.120, -2.674e-3
-1.119, -2.702e-3
-1.118, -2.723e-3
-1.117, -2.723e-3
-1.116, -2.729e-3
-1.115, -2.747e-3
-1.114, -2.781e-3
-1.113, -2.804e-3
-1.112, -2.798e-3
-1.111, -2.798e-3
-1.110, -2.813e-3
-1.109, -2.875e-3
-1.108, -2.926e-3
-1.107, -2.922e-3
-1.106, -2.899e-3
-1.105, -2.903e-3
-1.104, -2.939e-3
-1.103, -2.954e-3
-1.102, -2.962e-3
-1.101, -2.980e-3
-1.100, -3.009e-3
-1.099, -3.039e-3
-1.098, -3.047e-3
-1.097, -3.038e-3
-1.096, -3.034e-3
-1.095, -3.052e-3
-1.094, -3.080e-3
-1.093, -3.102e-3
-1.092, -3.107e-3
-1.091, -3.114e-3
-1.090, -3.134e-3
-1.089, -3.164e-3
-1.088, -3.180e-3
-1.087, -3.178e-3
-1.086, -3.182e-3
-1.085, -3.193e-3
-1.084, -3.219e-3
-1.083, -3.238e-3
-1.082, -3.243e-3
-1.081, -3.242e-3
-1.080, -3.259e-3
-1.079, -3.292e-3
-1.078, -3.311e-3
-1.077, -3.312e-3
-1.076, -3.313e-3
-1.075, -3.324e-3
-1.074, -3.350e-3
-1.073, -3.369e-3
-1.072, -3.369e-3
-1.071, -3.363e-3
-1.070, -3.382e-3
-1.069, -3.418e-3
-1.068, -3.445e-3
-1.067, -3.449e-3
-1.066, -3.446e-3
-1.065, -3.459e-3
-1.064, -3.485e-3
-1.063, -3.495e-3
-1.062, -3.492e-3
-1.061, -3.498e-3
-1.060, -3.522e-3
-1.059, -3.542e-3
-1.058, -3.556e-3
-1.057, -3.552e-3
-1.056, -3.543e-3
-1.055, -3.552e-3
-1.054, -3.582e-3
-1.053, -3.600e-3
-1.052, -3.611e-3
-1.051, -3.648e-3
-1.050, -3.653e-3
-1.049, -3.668e-3
-1.048, -3.687e-3
-1.047, -3.690e-3
-1.046, -3.678e-3
-1.045, -3.690e-3
-1.044, -3.715e-3
-1.043, -3.738e-3
-1.042, -3.726e-3
-1.041, -3.721e-3
-1.040, -3.736e-3
-1.039, -3.764e-3
-1.038, -3.779e-3
-1.037, -3.774e-3
-1.036, -3.768e-3
-1.035, -3.781e-3
-1.034, -3.803e-3
-1.033, -3.820e-3
-1.032, -3.816e-3
-1.031, -3.809e-3
-1.030, -3.821e-3
-1.029, -3.843e-3
-1.028, -3.858e-3
-1.027, -3.861e-3
-1.026, -3.861e-3
-1.025, -3.874e-3
-1.024, -3.902e-3
-1.023, -3.919e-3
-1.022, -3.912e-3
-1.021, -3.902e-3
-1.020, -3.911e-3
-1.019, -3.941e-3
-1.018, -3.961e-3
-1.017, -3.996e-3
-1.016, -3.989e-3
-1.015, -3.997e-3
-1.014, -4.020e-3
-1.013, -4.038e-3
-1.012, -4.038e-3
-1.011, -4.027e-3
-1.010, -4.032e-3
-1.009, -4.053e-3
-1.008, -4.075e-3
-1.007, -4.075e-3
-1.006, -4.070e-3
-1.005, -4.088e-3
-1.004, -4.109e-3
-1.003, -4.126e-3
-1.002, -4.120e-3
-1.001, -4.104e-3
