Potential V vs RHE, Current mA cm-2
0.4132999999999999,0.0005711189517555152
0.4122999999999999,-0.0010549502163093578
0.4112999999999999,-0.0015236440699546447
0.4102999999999999,-0.0018009274847281917
0.4092999999999999,-0.002004645911908757
0.4082999999999999,-0.002199876071290132
0.4072999999999999,-0.002389447385472047
0.4062999999999999,-0.0025535538962563912
0.4052999999999999,-0.0026893661810434345
0.4042999999999999,-0.0028534726918277792
0.4032999999999999,-0.002996358533114148
0.4022999999999999,-0.0031392443744005165
0.4012999999999999,-0.003287789060886345
0.4002999999999999,-0.0033995512535756832
0.3992999999999999,-0.003546681228761647
0.3982999999999999,-0.0036966406265473407
0.3972999999999999,-0.0038140616644361386
0.3962999999999999,-0.003952703371822912
0.3952999999999999,-0.004054562585413195
0.3942999999999999,-0.004171983623301993
0.39329999999999987,-0.004292234083790521
0.39229999999999987,-0.004399752142580264
0.39129999999999987,-0.004539808561266903
0.39029999999999987,-0.0046317647957581295
0.38929999999999987,-0.004740697565847737
0.38829999999999987,-0.004855289181136806
0.38729999999999987,-0.004945830704328168
0.38629999999999987,-0.005061837030917102
0.38529999999999986,-0.005166525667107114
0.38429999999999986,-0.005264140746797801
0.38329999999999986,-0.005361755826488489
0.38229999999999986,-0.005457956194879311
0.38129999999999986,-0.005569718387568649
0.38029999999999986,-0.005687139425457448
0.37929999999999986,-0.005756460279150835
0.37829999999999986,-0.005866807760540307
0.37729999999999986,-0.005972911108030185
0.37629999999999986,-0.006059208497321953
0.37529999999999986,-0.006156823577012639
0.37429999999999986,-0.006248779811503867
0.37329999999999985,-0.0063534684476938795
0.37229999999999985,-0.0064524982386844325
0.37129999999999985,-0.006543039761875796
0.37029999999999985,-0.006627922439867697
0.36929999999999985,-0.006715634540459329
0.36829999999999985,-0.006804761352350827
0.36729999999999985,-0.006891058741642593
0.36629999999999985,-0.006970282574435035
0.36529999999999985,-0.007067897654125722
0.36429999999999985,-0.00714004793041884
0.36329999999999985,-0.007240492432709258
0.36229999999999984,-0.00733386337850035
0.36129999999999984,-0.007435722592090633
0.36029999999999984,-0.00751070229098348
0.35929999999999984,-0.007604073236774573
0.35829999999999984,-0.007686126492166745
0.35729999999999984,-0.007766765036259051
0.35629999999999984,-0.00786438011594974
0.35529999999999984,-0.007916724434044745
0.35429999999999984,-0.008014339513735431
0.35329999999999984,-0.008133175262924095
0.35229999999999984,-0.008184104869719239
0.35129999999999983,-0.00827747581551033
0.35029999999999983,-0.00835387022570304
0.34929999999999983,-0.008416117522897103
0.34829999999999983,-0.008519391447787251
0.34729999999999983,-0.008609932970978612
0.34629999999999983,-0.008686327381171326
0.34529999999999983,-0.008742915833165926
0.34429999999999983,-0.008806577841659852
0.3432999999999998,-0.008911266477849865
0.3422999999999998,-0.008990490310642309
0.3412999999999998,-0.00907254356603448
0.3402999999999998,-0.009134790863228543
0.3392999999999998,-0.009204111716921927
0.3382999999999998,-0.009304556219212345
0.3372999999999998,-0.009382365340704923
0.3362999999999998,-0.009451686194398309
0.3352999999999998,-0.009553545407988593
0.3342999999999998,-0.009597401458284409
0.3332999999999998,-0.009685113558876041
0.3322999999999998,-0.009750190278669833
0.3312999999999998,-0.009826584688862544
0.3302999999999998,-0.009886002563456876
0.3292999999999998,-0.009977958797948105
0.3282999999999998,-0.010045864940341626
0.3272999999999998,-0.010132162329633394
0.3262999999999998,-0.010205727317226375
0.3252999999999999,-0.010279292304819356
0.3242999999999999,-0.010342954313313283
0.3232999999999999,-0.010412275167006671
0.3222999999999999,-0.010495743133698707
0.3212999999999999,-0.01057779638909088
0.3202999999999999,-0.010634384841085481
0.3192999999999999,-0.010710779251278195
0.3182999999999999,-0.010788588372770769
0.3172999999999999,-0.010852250381264698
0.3162999999999999,-0.010937133059256598
0.3152999999999999,-0.010995136222551065
0.3142999999999999,-0.011074360055343508
0.3132999999999999,-0.011146510331636625
0.3122999999999999,-0.011215831185330009
0.3112999999999999,-0.011293640306822589
0.3102999999999999,-0.011358717026616378
0.3092999999999999,-0.011432282014209361
0.3082999999999999,-0.011524238248700589
0.3072999999999999,-0.01158365612329492
0.3062999999999999,-0.011650147554388578
0.3052999999999999,-0.011739274366280073
0.3042999999999999,-0.01180010695217427
0.3032999999999999,-0.011876501362366983
0.3022999999999999,-0.01192884568046199
0.3012999999999999,-0.011996751822855511
0.3002999999999999,-0.01208587863474701
0.2992999999999999,-0.012129734685042826
0.2982999999999999,-0.012224520342133782
0.2972999999999999,-0.012305158886226089
0.2962999999999999,-0.012377309162519206
0.2952999999999999,-0.012438141748413402
0.2942999999999999,-0.0124989743343076
0.2932999999999999,-0.012568295188000986
0.2922999999999999,-0.012631957196494913
0.2912999999999999,-0.012698448627588569
0.2902999999999999,-0.012786160728180201
0.2892999999999999,-0.012827187355876287
0.2882999999999999,-0.012896508209569675
0.2872999999999999,-0.012970073197162656
0.2862999999999999,-0.013047882318655234
0.2852999999999999,-0.01310871490454943
0.2842999999999999,-0.013186524026042009
0.2832999999999999,-0.01327706554923337
0.2822999999999999,-0.013320921599529186
0.2812999999999999,-0.013388827741922706
0.2802999999999999,-0.013446830905217174
0.2792999999999999,-0.013523225315409887
0.2782999999999999,-0.013579813767404485
0.2772999999999999,-0.013668940579295984
0.2762999999999999,-0.013742505566888965
0.2752999999999999,-0.013787776328484647
0.2742999999999999,-0.013834461801380194
0.2732999999999999,-0.013913685634172635
0.2722999999999999,-0.013973103508766968
0.2712999999999999,-0.01405515676415914
0.2702999999999999,-0.014125892329152392
0.2692999999999999,-0.014161260111649017
0.26829999999999987,-0.01426028990263957
0.26729999999999987,-0.014316878354634173
0.26629999999999987,-0.014373466806628774
0.26529999999999987,-0.014444202371622025
0.26429999999999987,-0.014486643710617976
0.26329999999999987,-0.014571526388609878
0.26229999999999987,-0.014628114840604478
0.26129999999999987,-0.01469885040559773
0.26029999999999986,-0.014769585970590984
0.25929999999999986,-0.014826174422585584
0.25829999999999986,-0.014896909987578835
0.25729999999999986,-0.014967645552572089
0.25629999999999986,-0.015024234004566688
0.25529999999999986,-0.01509496956955994
0.25429999999999986,-0.015137410908555892
0.25329999999999986,-0.015236440699546445
0.25229999999999986,-0.015293029151541045
0.25129999999999986,-0.015349617603535646
0.25029999999999986,-0.015406206055530251
0.24929999999999986,-0.015448647394526203
0.24829999999999985,-0.015519382959519455
0.24729999999999985,-0.015590118524512706
0.24629999999999985,-0.015660854089505957
0.24529999999999985,-0.01573158965449921
0.24429999999999985,-0.01578817810649381
0.24329999999999985,-0.01583061944548976
0.24229999999999985,-0.015901355010483013
0.24129999999999985,-0.015957943462477614
0.24029999999999985,-0.016014531914472215
0.23929999999999985,-0.01608526747946547
0.23829999999999985,-0.01615600304445872
0.23729999999999984,-0.01619844438345467
0.23629999999999984,-0.016269179948447923
0.23529999999999984,-0.016325768400442524
0.23429999999999984,-0.016368209739438477
0.23329999999999984,-0.016438945304431726
0.23229999999999984,-0.01650968086942498
0.23129999999999984,-0.01659456354741688
0.23029999999999984,-0.01665115199941148
0.22929999999999984,-0.016693593338407434
0.22829999999999984,-0.016778476016399334
0.22729999999999984,-0.016820917355395284
0.22629999999999983,-0.016891652920388536
0.22529999999999983,-0.016962388485381792
0.22429999999999983,-0.01699068271137909
0.22329999999999983,-0.017075565389370995
0.22229999999999983,-0.017132153841365592
0.22129999999999983,-0.017188742293360197
0.22029999999999983,-0.017259477858353446
0.21929999999999983,-0.01731606631034805
0.21829999999999983,-0.017372654762342652
0.21729999999999983,-0.017443390327335904
0.21629999999999983,-0.017514125892329157
0.21529999999999982,-0.017570714344323755
0.21429999999999982,-0.017599008570321057
0.21329999999999982,-0.01768389124831296
0.21229999999999982,-0.01772633258730891
0.21129999999999982,-0.017797068152302163
0.21029999999999982,-0.017867803717295416
0.20929999999999982,-0.017924392169290013
0.20829999999999982,-0.017980980621284618
0.20729999999999982,-0.01803756907327922
0.20629999999999982,-0.018108304638272472
0.20529999999999982,-0.018150745977268422
0.20429999999999982,-0.01820733442926302
0.20329999999999981,-0.018278069994256275
0.2022999999999998,-0.018334658446250877
0.2012999999999998,-0.018405394011244126
0.20029999999999992,-0.018447835350240076
0.19929999999999992,-0.01853271802823198
0.19829999999999992,-0.018575159367227933
0.19729999999999992,-0.018631747819222534
0.19629999999999992,-0.018702483384215783
0.19529999999999992,-0.018773218949209036
0.19429999999999992,-0.01887224874019959
0.19329999999999992,-0.018957131418191494
0.19229999999999992,-0.018957131418191494
0.19129999999999991,-0.019027866983184743
0.1902999999999999,-0.019084455435179344
0.1892999999999999,-0.019141043887173945
0.1882999999999999,-0.01922592656516585
0.1872999999999999,-0.01928251501716045
0.1862999999999999,-0.019367397695152354
0.1852999999999999,-0.0194098390341483
0.1842999999999999,-0.019438133260145606
0.1832999999999999,-0.01950886882513886
0.1822999999999999,-0.019551310164134805
0.1812999999999999,-0.019622045729128058
0.1802999999999999,-0.01969278129412131
0.1792999999999999,-0.019749369746115915
0.1782999999999999,-0.019820105311109164
0.1772999999999999,-0.019876693763103765
0.1762999999999999,-0.019904987989101064
0.1752999999999999,-0.01997572355409432
0.1742999999999999,-0.02004645911908757
0.1732999999999999,-0.02007475334508487
0.1722999999999999,-0.020131341797079472
0.1712999999999999,-0.020187930249074077
0.1702999999999999,-0.020272812927065977
0.1692999999999999,-0.02032940137906058
0.1682999999999999,-0.020400136944053827
0.1672999999999999,-0.02045672539604843
0.1662999999999999,-0.020499166735044382
0.1652999999999999,-0.020584049413036282
0.1642999999999999,-0.020640637865030884
0.1632999999999999,-0.020668932091028186
0.1622999999999999,-0.02073966765602144
0.1612999999999999,-0.02079625610801604
0.1602999999999999,-0.02086699167300929
0.1592999999999999,-0.020923580125003893
0.15829999999999989,-0.020980168576998495
0.15729999999999988,-0.021036757028993096
0.15629999999999988,-0.021107492593986348
0.15529999999999988,-0.021164081045980946
0.15429999999999988,-0.0212065223849769
0.15329999999999988,-0.021291405062968803
0.15229999999999988,-0.021319699288966102
0.15129999999999988,-0.021390434853959358
0.15029999999999988,-0.021475317531951258
0.14929999999999988,-0.021517758870947205
0.14829999999999988,-0.02158849443594046
0.14729999999999988,-0.02163093577493641
0.14629999999999987,-0.021687524226931015
0.14529999999999987,-0.021772406904922915
0.14429999999999987,-0.021786554017921567
0.14329999999999987,-0.021885583808912118
0.14229999999999987,-0.02197046648690402
0.14129999999999987,-0.022012907825899968
0.14029999999999987,-0.02208364339089322
0.13929999999999987,-0.022111937616890523
0.13829999999999987,-0.02218267318188378
0.13729999999999987,-0.022239261633878377
0.13629999999999987,-0.022295850085872978
0.13529999999999986,-0.022366585650866227
0.13429999999999986,-0.02240902698986218
0.13329999999999986,-0.022465615441856785
0.13229999999999986,-0.022536351006850038
0.13129999999999986,-0.022578792345845984
0.13029999999999986,-0.022663675023837888
0.12929999999999986,-0.022691969249835187
0.12829999999999986,-0.02277685192782709
0.12729999999999986,-0.022819293266823044
0.12629999999999986,-0.022890028831816296
0.12529999999999986,-0.022946617283810897
0.12429999999999986,-0.0230032057358055
0.12329999999999985,-0.0230597941878001
0.12229999999999985,-0.023116382639794698
0.12129999999999985,-0.023172971091789302
0.12029999999999985,-0.02324370665678255
0.11929999999999985,-0.023300295108777156
0.11829999999999985,-0.023342736447773106
0.11729999999999985,-0.02341347201276636
0.11629999999999985,-0.023484207577759608
0.11529999999999985,-0.023512501803756906
0.11429999999999985,-0.02356909025575151
0.11329999999999985,-0.02365397293374341
0.11229999999999984,-0.023710561385738016
0.11129999999999984,-0.02378129695073127
0.11029999999999984,-0.023837885402725866
0.10929999999999984,-0.02389447385472047
0.10829999999999984,-0.02395106230671507
0.10729999999999984,-0.02397935653271237
0.10629999999999984,-0.024064239210704275
0.10529999999999984,-0.024120827662698876
0.10429999999999984,-0.024163269001694826
0.10329999999999984,-0.02423400456668808
0.10229999999999984,-0.024304740131681327
0.10129999999999983,-0.02434718147067728
0.10029999999999983,-0.024417917035670533
0.09929999999999983,-0.024460358374666487
0.09829999999999983,-0.024516946826661085
0.09729999999999983,-0.024587682391654337
0.09629999999999983,-0.024630123730650287
0.09529999999999983,-0.024700859295643543
0.09429999999999983,-0.02474330063463949
0.09329999999999983,-0.024814036199632745
0.09229999999999983,-0.024870624651627343
0.09129999999999983,-0.0249413602166206
0.09029999999999982,-0.025012095781613848
0.08929999999999982,-0.02506868423360845
0.08829999999999982,-0.0251111255726044
0.08729999999999982,-0.025181861137597652
0.08629999999999982,-0.025224302476593602
0.08529999999999982,-0.025309185154585506
0.08429999999999982,-0.02535162649358146
0.08329999999999982,-0.02540821494557606
0.08229999999999982,-0.02547895051056931
0.08129999999999982,-0.02553553896256391
0.08029999999999982,-0.025606274527557166
0.07929999999999982,-0.025662862979551764
0.07829999999999981,-0.025705304318547718
0.07729999999999981,-0.025790186996539618
0.07629999999999981,-0.02587506967453152
0.07529999999999992,-0.025931658126526123
0.07429999999999992,-0.02600239369151937
0.07329999999999992,-0.026058982143513973
0.07229999999999992,-0.02612971770850723
0.07129999999999992,-0.026186306160501827
0.07029999999999992,-0.026257041725495082
0.06929999999999992,-0.02629948306449103
0.06829999999999992,-0.026384365742482933
0.06729999999999992,-0.026440954194477534
0.06629999999999991,-0.026511689759470786
0.06529999999999991,-0.02659657243746269
0.06429999999999991,-0.026639013776458643
0.06329999999999991,-0.02673804356744919
0.06229999999999991,-0.026794632019443793
0.06129999999999991,-0.026851220471438397
0.06029999999999991,-0.026936103149430297
0.05929999999999991,-0.026978544488426247
0.05829999999999991,-0.027049280053419503
0.05729999999999991,-0.027134162731411407
0.056299999999999906,-0.027190751183406005
0.055299999999999905,-0.02727563386139791
0.054299999999999904,-0.027332222313392506
0.0532999999999999,-0.02741710499138441
0.0522999999999999,-0.027487840556377662
0.0512999999999999,-0.027544429008372267
0.0502999999999999,-0.027615164573365516
0.0492999999999999,-0.027671753025360117
0.0482999999999999,-0.02772834147735472
0.0472999999999999,-0.027813224155346622
0.0462999999999999,-0.02788395972033987
0.045299999999999896,-0.027954695285333123
0.044299999999999895,-0.028011283737327728
0.043299999999999894,-0.028082019302320977
0.04229999999999989,-0.028166901980312884
0.04129999999999989,-0.028237637545306133
0.04029999999999989,-0.028350814449295336
0.03929999999999989,-0.028393255788291286
0.03829999999999989,-0.028449844240285887
0.03729999999999989,-0.02852057980527914
0.03629999999999989,-0.028591315370272388
0.03529999999999989,-0.028676198048264292
0.034299999999999886,-0.028761080726256192
0.033299999999999885,-0.028817669178250797
0.032299999999999884,-0.0289025518562427
0.031299999999999883,-0.028987434534234607
0.030299999999999883,-0.029044022986229205
0.02929999999999988,-0.029114758551222454
0.02829999999999988,-0.029185494116215707
0.02729999999999988,-0.029256229681208955
0.02629999999999988,-0.029326965246202208
0.025299999999999878,-0.029440142150191414
0.024299999999999877,-0.02949673060218601
0.023299999999999876,-0.029581613280177915
0.022299999999999875,-0.029652348845171168
0.021299999999999875,-0.02972308441016442
0.020299999999999874,-0.02979381997515767
0.019299999999999873,-0.029850408427152274
0.018299999999999872,-0.029906996879146875
0.01729999999999987,-0.029991879557138775
0.01629999999999987,-0.03006261512213203
0.01529999999999987,-0.03014749780012393
0.014299999999999868,-0.030232380478115835
0.013299999999999867,-0.030288968930110433
0.012299999999999978,-0.030387998721100987
0.011299999999999866,-0.030430440060096934
0.010299999999999976,-0.03051532273808884
0.009299999999999864,-0.03058605830308209
0.008299999999999974,-0.030628499642078044
0.007299999999999862,-0.030713382320069947
0.006299999999999972,-0.030784117885063196
0.00529999999999986,-0.03085485345005645
0.0042999999999999705,-0.0309255890150497
0.0032999999999998586,-0.030982177467044306
0.0022999999999999687,-0.031081207258034853
0.0012999999999998568,-0.031166089936026757
0.00029999999999996696,-0.031222678388021355
-0.000700000000000145,-0.03130756106601326
-0.0017000000000000348,-0.031350002405009215
-0.0027000000000001467,-0.031434885083001116
-0.0037000000000000366,-0.03149147353499571
-0.0047000000000001485,-0.03157635621298762
-0.005700000000000038,-0.03163294466498222
-0.00670000000000015,-0.03168953311697682
-0.00770000000000004,-0.031802710020966025
-0.008700000000000152,-0.031887592698957926
-0.009700000000000042,-0.03194418115095252
-0.010700000000000154,-0.03202906382894443
-0.011700000000000044,-0.032085652280939035
-0.012700000000000156,-0.03214224073293363
-0.013700000000000045,-0.03221297629792688
-0.014700000000000157,-0.03229785897591879
-0.015700000000000047,-0.03235444742791339
-0.01670000000000016,-0.032425182992906636
-0.01770000000000005,-0.03251006567089854
-0.01870000000000016,-0.03258080123589179
-0.01970000000000005,-0.03265153680088505
-0.020700000000000163,-0.032693978139880994
-0.021700000000000053,-0.0327505665918756
-0.022700000000000164,-0.03284959638286615
-0.023700000000000054,-0.03293447906085806
-0.024700000000000166,-0.03301936173884996
-0.025700000000000056,-0.033075950190844555
-0.026700000000000168,-0.03313253864283916
-0.027700000000000058,-0.03320327420783241
-0.02870000000000017,-0.033274009772825665
-0.02970000000000006,-0.033344745337818914
-0.03070000000000017,-0.03341548090281216
-0.03170000000000006,-0.03347206935480676
-0.03270000000000017,-0.03355695203279867
-0.03370000000000006,-0.033627687597791917
-0.034700000000000175,-0.033712570275783824
-0.035700000000000065,-0.03378330584077707
-0.03670000000000018,-0.03385404140577032
-0.03770000000000007,-0.03393892408376223
-0.03870000000000018,-0.03398136542275818
-0.03970000000000007,-0.03405210098775143
-0.04070000000000018,-0.034108689439746036
-0.04170000000000007,-0.03416527789174064
-0.04270000000000018,-0.03423601345673389
-0.04370000000000007,-0.03432089613472579
-0.044700000000000184,-0.034391631699719045
-0.045700000000000074,-0.03444822015171364
-0.046700000000000186,-0.03451895571670689
-0.047700000000000076,-0.03458969128170015
-0.04870000000000019,-0.03467457395969205
-0.04970000000000008,-0.03475945663768395
-0.05070000000000019,-0.03480189797667991
-0.05170000000000008,-0.03485848642867451
-0.05270000000000019,-0.034915074880669104
-0.05370000000000008,-0.0349716633326637
-0.05470000000000019,-0.035028251784658314
-0.05570000000000008,-0.03508484023665291
-0.056700000000000195,-0.03515557580164616
-0.057700000000000085,-0.03524045847963807
-0.058700000000000196,-0.03531119404463132
-0.059700000000000086,-0.035381929609624566
-0.0607000000000002,-0.03542437094862052
-0.06170000000000009,-0.035509253626612426
-0.0627000000000002,-0.035594136304604326
-0.06370000000000009,-0.03562243053060162
