Potential V vs RHE, Current mA cm-2
0.013299999999999867,-0.5255652478998613
0.012299999999999978,-1.9650339955125358
0.011299999999999866,-3.1859298472960624
0.010299999999999976,-4.406825699079589
0.009299999999999864,-5.453712060979717
0.008299999999999974,-6.54445447317566
0.007299999999999862,-7.591340835075788
0.006299999999999972,-8.68208324727173
0.00529999999999986,-9.772825659467674
0.0042999999999999705,-10.863568071663616
0.0032999999999998586,-11.996751822855511
0.0022999999999999687,-12.99978213445982
0.0012999999999998568,-13.960371107068182
0.00029999999999996696,-14.741291744593681
-0.000700000000000145,-15.533530072518102
-0.0017000000000000348,-16.184297270456018
-0.0027000000000001467,-16.792623129397985
-0.0037000000000000366,-17.4433903273359
-0.0047000000000001485,-18.10830463827247
-0.005700000000000038,-18.80151317520634
-0.00670000000000015,-19.537163051136158
-0.00770000000000004,-20.286960040064624
-0.008700000000000152,-20.980168576998494
-0.009700000000000042,-21.63093577493641
-0.010700000000000154,-22.253408746877028
-0.011700000000000044,-22.776851927827092
-0.012700000000000156,-23.15882397879065
-0.013700000000000045,-23.51250180375691
-0.014700000000000157,-23.86617962872317
-0.015700000000000047,-24.20571034069078
-0.01670000000000016,-24.64427084364894
-0.01770000000000005,-25.167714024599
-0.01870000000000016,-25.648715866553115
-0.01970000000000005,-26.21460038649913
-0.020700000000000163,-26.738043567449193
-0.021700000000000053,-27.176604070407354
-0.022700000000000164,-27.572723234369565
-0.023700000000000054,-27.827371268345274
-0.024700000000000166,-28.05372507632368
-0.025700000000000056,-28.22349043230748
-0.026700000000000168,-28.478138466283188
-0.027700000000000058,-28.746933613257543
-0.02870000000000017,-29.100611438223805
-0.02970000000000006,-29.525024828183312
-0.03070000000000017,-29.96358533114148
-0.03170000000000006,-30.487028512091538
-0.03270000000000017,-30.8407063370578
-0.03370000000000006,-31.19438416202406
-0.034700000000000175,-31.36414951800786
-0.035700000000000065,-31.49147353499572
-0.03670000000000018,-31.57635621298762
-0.03770000000000007,-31.618797551983565
-0.03870000000000018,-31.76026868197007
-0.03970000000000007,-31.887592698957924
-0.04070000000000018,-32.09979939393769
-0.04170000000000007,-32.41103587990799
-0.04270000000000018,-32.70812525287965
-0.04370000000000007,-33.01936173884996
-0.044700000000000184,-33.231568433829715
-0.045700000000000074,-33.41548090281216
-0.046700000000000186,-33.54280491980002
-0.047700000000000076,-33.54280491980002
-0.04870000000000019,-33.54280491980002
-0.04970000000000008,-33.54280491980002
-0.05070000000000019,-33.50036358080407
-0.05170000000000008,-33.54280491980002
-0.05270000000000019,-33.627687597791926
-0.05370000000000008,-33.755011614779775
-0.05470000000000019,-33.98136542275818
-0.05570000000000008,-34.10868943974604
-0.056700000000000195,-34.278454795729836
-0.057700000000000085,-34.33504324772444
-0.058700000000000196,-34.33504324772444
-0.059700000000000086,-34.33504324772444
-0.0607000000000002,-34.278454795729836
-0.06170000000000009,-34.33504324772444
-0.0627000000000002,-34.377484586720385
-0.06370000000000009,-34.5472499427042
-0.0647000000000002,-34.75945663768395
-0.06570000000000009,-35.02825178465831
-0.0667000000000002,-35.32534115762997
-0.0677000000000001,-35.55169496560837
-0.0687000000000002,-35.721460321592176
-0.0697000000000001,-35.806342999584075
-0.07070000000000021,-35.90537279057463
-0.0717000000000001,-35.94781412957058
-0.07270000000000021,-35.94781412957058
-0.0737000000000001,-36.07513814655844
-0.07470000000000021,-36.20246216354629
-0.0757000000000001,-36.329786180534136
-0.07670000000000021,-36.4288159715247
-0.0777000000000001,-36.55613998851254
-0.07870000000000021,-36.6834640055004
-0.0797000000000001,-36.768346683492304
-0.08070000000000022,-36.725905344496354
-0.0817000000000001,-36.64102266650445
-0.08270000000000022,-36.47125731052064
-0.08370000000000011,-36.28734484153819
-0.08470000000000022,-36.20246216354629
-0.08570000000000011,-36.11757948555439
-0.08670000000000022,-36.11757948555439
-0.08770000000000011,-36.16002082455034
-0.08870000000000022,-36.20246216354629
-0.08970000000000011,-36.28734484153819
-0.09070000000000022,-36.37222751953009
-0.09170000000000011,-36.4288159715247
-0.09270000000000023,-36.329786180534136
-0.09370000000000012,-36.20246216354629
-0.09470000000000023,-36.07513814655844
-0.09570000000000012,-35.94781412957058
-0.09670000000000023,-35.90537279057463
-0.09770000000000012,-35.848784338580025
-0.09870000000000023,-35.99025546856653
-0.09970000000000012,-36.20246216354629
-0.10070000000000023,-36.47125731052064
-0.10170000000000012,-36.768346683492304
-0.10270000000000024,-36.95225915247476
-0.10370000000000013,-37.122024508458566
-0.10470000000000024,-37.249348525446415
-0.10570000000000013,-37.249348525446415
-0.10670000000000024,-37.206907186450465
-0.10770000000000013,-37.07958316946261
-0.10870000000000024,-37.037141830466666
-0.10970000000000013,-36.99470049147071
-0.11070000000000024,-37.037141830466666
-0.11170000000000013,-37.037141830466666
-0.11270000000000002,-37.07958316946261
-0.11370000000000013,-37.122024508458566
-0.11470000000000002,-37.122024508458566
-0.11570000000000014,-37.07958316946261
-0.11670000000000003,-36.95225915247476
-0.11770000000000014,-36.768346683492304
-0.11870000000000003,-36.64102266650445
-0.11970000000000014,-36.47125731052064
-0.12070000000000003,-36.37222751953009
-0.12170000000000014,-36.329786180534136
-0.12270000000000003,-36.37222751953009
-0.12370000000000014,-36.4288159715247
-0.12470000000000003,-36.55613998851254
-0.12570000000000014,-36.6834640055004
-0.12670000000000003,-36.768346683492304
-0.12770000000000015,-36.725905344496354
-0.12870000000000004,-36.64102266650445
-0.12970000000000015,-36.55613998851254
-0.13070000000000004,-36.4288159715247
-0.13170000000000015,-36.329786180534136
-0.13270000000000004,-36.244903502542236
-0.13370000000000015,-36.329786180534136
-0.13470000000000004,-36.47125731052064
-0.13570000000000015,-36.64102266650445
-0.13670000000000004,-36.8532293614842
-0.13770000000000016,-36.99470049147071
-0.13870000000000005,-37.07958316946261
-0.13970000000000016,-37.037141830466666
-0.14070000000000005,-36.95225915247476
-0.14170000000000016,-36.8532293614842
-0.14270000000000005,-36.6834640055004
-0.14370000000000016,-36.5985813275085
-0.14470000000000005,-36.64102266650445
-0.14570000000000016,-36.6834640055004
-0.14670000000000005,-36.89567070048016
-0.14770000000000016,-37.07958316946261
-0.14870000000000005,-37.249348525446415
-0.14970000000000017,-37.41911388143023
-0.15070000000000006,-37.47570233342482
-0.15170000000000017,-37.41911388143023
-0.15270000000000006,-37.376672542434264
-0.15370000000000017,-37.291789864442364
-0.15470000000000006,-37.164465847454515
-0.15570000000000017,-37.07958316946261
-0.15670000000000006,-36.99470049147071
-0.15770000000000017,-36.99470049147071
-0.15870000000000006,-37.037141830466666
-0.15970000000000018,-37.07958316946261
-0.16070000000000007,-37.07958316946261
-0.16170000000000018,-37.07958316946261
-0.16270000000000007,-36.99470049147071
-0.16370000000000018,-36.8532293614842
-0.16470000000000007,-36.725905344496354
-0.16570000000000018,-36.55613998851254
-0.16670000000000007,-36.47125731052064
-0.16770000000000018,-36.329786180534136
-0.16870000000000007,-36.37222751953009
-0.16970000000000018,-36.4288159715247
-0.17070000000000007,-36.5136986495166
-0.17170000000000019,-36.6834640055004
-0.17270000000000008,-36.725905344496354
-0.1737000000000002,-36.81078802248826
-0.17470000000000008,-36.8532293614842
-0.1757000000000002,-36.81078802248826
-0.17670000000000008,-36.768346683492304
-0.1777000000000002,-36.725905344496354
-0.17870000000000008,-36.768346683492304
-0.1797000000000002,-36.8532293614842
-0.18070000000000008,-37.037141830466666
-0.1817000000000002,-37.249348525446415
-0.18270000000000008,-37.56058501141672
-0.1837000000000002,-37.85767438438838
-0.1847000000000001,-38.08402819236679
-0.1857000000000002,-38.253793548350586
-0.1867000000000001,-38.253793548350586
-0.1877000000000002,-38.253793548350586
-0.1887000000000001,-38.16891087035869
-0.1897000000000002,-38.08402819236679
-0.1907000000000001,-37.99914551437489
-0.1917000000000001,-37.99914551437489
-0.19269999999999998,-38.08402819236679
-0.1937000000000001,-38.16891087035869
-0.19469999999999998,-38.29623488734655
-0.1957000000000001,-38.38111756533845
-0.19669999999999999,-38.38111756533845
-0.1977000000000001,-38.33867622634249
-0.1987,-38.16891087035869
-0.1997000000000001,-37.94255706238028
-0.2007,-37.687909028404576
-0.2017000000000001,-37.51814367242077
-0.2027,-37.291789864442364
-0.2037000000000001,-37.249348525446415
-0.2047,-37.249348525446415
-0.2057000000000001,-37.249348525446415
-0.2067,-37.376672542434264
-0.2077000000000001,-37.334231203438314
-0.2087,-37.334231203438314
-0.2097000000000001,-37.249348525446415
-0.2107,-37.122024508458566
-0.2117000000000001,-36.95225915247476
-0.2127,-36.81078802248826
-0.2137000000000001,-36.768346683492304
-0.2147,-36.768346683492304
-0.2157000000000001,-36.8532293614842
-0.2167,-37.037141830466666
-0.21770000000000012,-37.249348525446415
-0.2187,-37.51814367242077
-0.21970000000000012,-37.73035036740053
-0.2207,-37.85767438438838
-0.22170000000000012,-37.94255706238028
-0.2227,-37.99914551437489
-0.22370000000000012,-37.99914551437489
-0.2247,-38.04158685337084
-0.22570000000000012,-38.08402819236679
-0.2267,-38.211352209354644
-0.22770000000000012,-38.38111756533845
-0.22870000000000001,-38.5650300343209
-0.22970000000000013,-38.777236729300654
-0.23070000000000002,-38.94700208528445
-0.23170000000000013,-39.046031876275016
-0.23270000000000002,-39.046031876275016
-0.23370000000000013,-38.94700208528445
-0.23470000000000002,-38.81967806829661
-0.23570000000000013,-38.607471373316855
-0.23670000000000002,-38.522588695324956
-0.2376999999999999,-38.38111756533845
-0.23870000000000002,-38.38111756533845
-0.2396999999999999,-38.46600024333035
-0.24070000000000003,-38.5650300343209
-0.24169999999999991,-38.692354051308754
-0.24270000000000003,-38.777236729300654
-0.24369999999999992,-38.86211940729255
-0.24470000000000003,-38.86211940729255
-0.24569999999999992,-38.81967806829661
-0.24670000000000003,-38.777236729300654
-0.24769999999999992,-38.6499127123128
-0.24870000000000003,-38.607471373316855
-0.24969999999999992,-38.607471373316855
-0.25070000000000003,-38.692354051308754
-0.2516999999999999,-38.86211940729255
-0.25270000000000004,-39.08847321527096
-0.2536999999999999,-39.30067991025072
-0.25470000000000004,-39.47044526623452
-0.2556999999999999,-39.61191639622103
-0.25670000000000004,-39.654357735216976
-0.25769999999999993,-39.654357735216976
-0.25870000000000004,-39.56947505722508
-0.25969999999999993,-39.47044526623452
-0.26070000000000004,-39.38556258824262
-0.26169999999999993,-39.42800392723857
-0.26270000000000004,-39.47044526623452
-0.26369999999999993,-39.56947505722508
-0.26470000000000005,-39.739240413208876
-0.26569999999999994,-39.78168175220483
-0.26670000000000005,-39.90900576919269
-0.26769999999999994,-39.90900576919269
-0.26870000000000005,-39.82412309120078
-0.26969999999999994,-39.739240413208876
-0.27070000000000005,-39.56947505722508
-0.27169999999999994,-39.51288660523048
-0.27270000000000005,-39.47044526623452
-0.27369999999999994,-39.56947505722508
-0.27470000000000006,-39.696799074212926
-0.27569999999999995,-39.82412309120078
-0.27670000000000006,-40.03632978618054
-0.27769999999999995,-40.220242255162994
-0.27870000000000006,-40.3900076111468
-0.27969999999999995,-40.4748902891387
-0.28070000000000006,-40.51733162813464
-0.28169999999999995,-40.4748902891387
-0.28270000000000006,-40.43244895014274
-0.28369999999999995,-40.4748902891387
-0.28470000000000006,-40.559772967130606
-0.28569999999999995,-40.743685436113054
-0.28670000000000007,-40.95589213109281
-0.28769999999999996,-41.22468727806717
-0.28870000000000007,-41.47933531204288
-0.28969999999999996,-41.79057179801318
-0.29070000000000007,-41.96033715399699
-0.29169999999999996,-42.130102509980794
-0.29270000000000007,-42.186690961975394
-0.29369999999999996,-42.130102509980794
-0.2947000000000001,-42.186690961975394
-0.29569999999999996,-42.229132300971344
-0.2967000000000001,-42.3564563179592
-0.29769999999999996,-42.526221673943
-0.2987000000000001,-42.79501682091736
-0.29969999999999997,-43.09210619388902
-0.3007000000000001,-43.31846000186743
-0.30169999999999997,-43.57310803584313
-0.3027000000000001,-43.657990713835034
-0.30369999999999997,-43.75702050482558
-0.3047000000000001,-43.79946184382153
-0.30569999999999997,-43.70043205283099
-0.3067000000000001,-43.657990713835034
-0.3077,-43.657990713835034
-0.3087000000000001,-43.70043205283099
-0.3097,-43.84190318281749
-0.3107000000000001,-44.054109877797245
-0.3117,-44.36534636376755
-0.3127000000000001,-44.577553058747306
-0.3137,-44.88878954471762
-0.3147000000000001,-45.10099623969737
-0.3157,-45.27076159568118
-0.3167000000000001,-45.412232725667685
-0.3177,-45.45467406466363
-0.3187000000000001,-45.624439420647434
-0.3197,-45.79420477663124
-0.3207000000000001,-46.147882601597495
-0.3217,-46.544001765559706
-0.3227000000000001,-46.982562268517874
-0.3237,-47.46356411047198
-0.3247000000000001,-47.84553616143554
-0.3257,-48.156772647405845
-0.3267000000000001,-48.41142068138156
-0.3277,-48.59533315036401
-0.3287000000000001,-48.72265716735186
-0.3297,-48.84998118433972
-0.3307000000000001,-49.03389365332217
-0.3317,-49.28854168729788
-0.3327000000000001,-49.642219512264134
-0.3337,-50.024191563227696
-0.3347000000000001,-50.42031072718991
-0.3357,-50.73154721316022
-0.3367000000000001,-51.127666377122424
-0.3377,-51.33987307210218
-0.3387000000000001,-51.55207976708194
-0.3397,-51.69355089706845
-0.3407000000000001,-51.82087491405629
-0.3417,-51.990640270040096
-0.3427000000000001,-52.2169940780185
-0.3437,-52.471642111994214
-0.3447000000000001,-52.82531993696047
-0.3457,-53.22143910092268
-0.3467000000000001,-53.74488228187274
-0.3477,-54.16929567183226
-0.3487000000000001,-54.56541483579447
-0.3497,-54.876651321764776
-0.3507000000000001,-55.17374069473642
-0.3517,-55.357653163718886
-0.3527000000000001,-55.527418519702685
-0.3537,-55.6971838756865
-0.3547000000000001,-55.9235376836649
-0.3557,-56.30550973462846
-0.35670000000000013,-56.74407023758662
-0.3577,-57.22507207954074
-0.35870000000000013,-57.8333979384827
-0.3597,-58.35684111943277
-0.36070000000000013,-58.83784296138688
-0.3617,-59.23396212534908
-0.3626999999999999,-59.6300812893113
-0.3637,-60.02620045327351
-0.3646999999999999,-60.40817250423707
-0.3657,-60.80429166819927
-0.3666999999999999,-61.28529351015339
-0.3677,-61.80873669110345
-0.3686999999999999,-62.33217987205352
-0.36970000000000003,-62.98294706999144
-0.3706999999999999,-63.54883158993744
-0.37170000000000003,-64.19959878787537
-0.3726999999999999,-64.72304196882543
-0.37370000000000003,-65.20404381077954
-0.3746999999999999,-65.7274869917296
-0.37570000000000003,-66.25093017267966
-0.3766999999999999,-66.87340314462028
-0.37770000000000004,-67.43928766456631
-0.3786999999999999,-68.0900548625042
-0.37970000000000004,-68.78326339943808
-0.3806999999999999,-69.4906190493706
-0.38170000000000004,-70.22626892530042
-0.38269999999999993,-70.87703612323833
-0.38370000000000004,-71.48536198218031
-0.38469999999999993,-72.00880516313036
-0.38570000000000004,-72.44736566608852
-0.38669999999999993,-72.84348483005074
-0.38770000000000004,-73.23960399401295
-0.38869999999999993,-73.62157604497652
-0.38970000000000005,-74.06013654793468
-0.39069999999999994,-74.54113838988879
-0.39170000000000005,-75.14946424883075
-0.39269999999999994,-75.81437855976732
-0.39370000000000005,-76.46514575770523
-0.39469999999999994,-77.11591295564315
-0.39570000000000005,-77.68179747558916
-0.39669999999999994,-78.24768199553519
-0.39770000000000005,-78.8135665154812
-0.39869999999999994,-79.37945103542721
-0.39970000000000006,-80.04436534636378
-0.40069999999999995,-80.73757388329766
-0.40170000000000006,-81.57225355021802
-0.40269999999999995,-82.43522744313569
-0.40370000000000006,-83.39723112704392
-0.40469999999999995,-84.31679347195619
-0.40570000000000006,-85.23635581686847
-0.40669999999999995,-86.05688837079018
-0.40770000000000006,-86.75009690772404
-0.40869999999999995,-87.41501121866061
-0.40970000000000006,-88.06577841659853
-0.41069999999999995,-88.63166293654454
-0.41170000000000007,-89.32487147347842
-0.41269999999999996,-90.03222712341093
-0.41370000000000007,-90.85275967733266
-0.41469999999999996,-91.72988068324898
-0.41570000000000007,-92.6070016891653
-0.41669999999999996,-93.51241692107894
-0.41770000000000007,-94.30465524900335
-0.41869999999999996,-95.04030512493317
-0.4197000000000001,-95.60618964487918
-0.42069999999999996,-96.21451550382113
-0.4217000000000001,-96.87942981475771
-0.42269999999999996,-97.53019701269562
-0.4237000000000001,-98.26584688862545
-0.42469999999999997,-99.10052655554581
-0.4257000000000001,-100.02008890045809
-0.42669999999999997,-100.98209258436633
-0.4277000000000001,-101.88750781627995
-0.42869999999999997,-102.76462882219626
-0.4297000000000001,-103.54272003712204
-0.43069999999999997,-104.16519300906265
-0.4317000000000001,-104.77351886800463
-0.4327,-105.25452070995874
-0.4337000000000001,-105.73552255191284
-0.4347,-106.30140707185885
-0.4357000000000001,-106.95217426979677
-0.4367,-107.68782414572658
-0.4377000000000001,-108.64982782963483
-0.4387,-109.69671419153494
-0.4397000000000001,-110.78604189243102
-0.4407,-111.7904869153352
-0.4417000000000001,-112.87981461623129
-0.4427,-113.79937696114357
-0.4437000000000001,-114.63405662806393
-0.4447,-115.45458918198564
-0.4457000000000001,-116.14779771891952
-0.4467,-116.94003604684394
-0.4477000000000001,-117.71812726176971
-0.4487,-118.68013094567793
-0.4497000000000001,-119.68457596858211
-0.4507,-120.68902099148629
-0.4517000000000001,-121.69346601439047
-0.4527,-122.57058702030677
-0.4537000000000001,-123.43356091322445
-0.4547,-124.14091656315696
-0.4557000000000001,-124.87656643908679
-0.4567,-125.71124610600715
-0.4577000000000001,-126.48933732093293
-0.4587,-127.45134100484115
-0.4597000000000001,-128.45578602774532
-0.4607,-129.58755506763737
-0.4617000000000001,-130.7193241075294
-0.4627,-131.80865180842545
-0.4637000000000001,-132.81309683132966
-0.4647,-133.81754185423384
-0.4657000000000001,-134.69466286015015
-0.4667,-135.5576367530678
-0.4677000000000001,-136.43475775898415
-0.4687,-137.31187876490046
-0.4697000000000001,-138.17485265781812
-0.4707,-139.05197366373446
-0.4717000000000001,-139.97153600864672
-0.4727,-140.89109835355902
-0.4737000000000001,-141.89554337646317
-0.4747,-142.8858412863687
-0.4757000000000001,-143.87613919627424
-0.4767,-144.86643710617977
-0.4777000000000001,-145.85673501608528
-0.4787,-146.7055617960043
-0.4797000000000001,-147.55438857592333
-0.4807,-148.26174422585584
-0.48170000000000013,-149.1105710057749
-0.4827,-149.6764555257209
-0.48370000000000013,-150.66675343562642
-0.4847,-151.65705134553193
-0.48570000000000013,-152.93029151541046
-0.4867,-153.07176264539694
-0.48570000000000013,-151.37410908555893
-0.4847,-149.6764555257209
-0.48370000000000013,-148.12027309586935
-0.4827,-146.5640906660178
-0.48170000000000013,-144.86643710617977
-0.4807,-143.3102546763282
-0.4797000000000001,-141.75407224647665
-0.4787,-140.36765517260895
-0.4777000000000001,-139.1792976807223
-0.4767,-138.04752864083028
-0.4757000000000001,-136.91575960093826
-0.4747,-135.78399056104624
-0.4737000000000001,-134.6097801821582
-0.4727,-133.3365400122797
-0.4717000000000001,-132.07744695539984
-0.4707,-130.76176544652535
-0.4697000000000001,-129.41778971165354
-0.4687,-128.144549541775
-0.4677000000000001,-126.9278978238911
-0.4667,-125.83857012299501
-0.4657000000000001,-124.87656643908679
-0.4647,-123.91456275517855
-0.4637000000000001,-123.00914752326493
-0.4627,-122.00470250036076
