Sept. 29, 2024   01:46:30
Linear Sweep Voltammetry
File: c:/users/guazh/data/20240922_batch_417_500/2024-09-22-exp477\pre-regen-2024-09-29t01_43_28-lsvinphos\pre-regen_lsv_50mvs_efin_-1900mv.bin
Data Source:  Experiment
Instrument Model:  CHI760E
Header: LSV ran at 50 mVs with Efin at -1900mV
Note: 

Init E (V) = -0.6
Final E (V) = -1.9
Scan Rate (V/s) = 0.05
Sample Interval (V) = 0.001
Quiet Time (sec) = 2
Sensitivity (A/V) = 1e-4
Comp R (ohm) = 13.4

Results:

Channel 1:
Ep = -1.771V
ip = 7.501e-4A
Ah = 1.093e-3C

Potential/V, Current/A

-0.600, 5.485e-6
-0.601, 5.617e-6
-0.602, 5.676e-6
-0.603, 5.721e-6
-0.604, 5.764e-6
-0.605, 5.806e-6
-0.606, 5.846e-6
-0.607, 5.882e-6
-0.608, 5.916e-6
-0.609, 5.951e-6
-0.610, 5.985e-6
-0.611, 6.022e-6
-0.612, 6.057e-6
-0.613, 6.089e-6
-0.614, 6.124e-6
-0.615, 6.158e-6
-0.616, 6.190e-6
-0.617, 6.220e-6
-0.618, 6.249e-6
-0.619, 6.282e-6
-0.620, 6.314e-6
-0.621, 6.346e-6
-0.622, 6.378e-6
-0.623, 6.406e-6
-0.624, 6.437e-6
-0.625, 6.467e-6
-0.626, 6.496e-6
-0.627, 6.527e-6
-0.628, 6.554e-6
-0.629, 6.583e-6
-0.630, 6.612e-6
-0.631, 6.640e-6
-0.632, 6.668e-6
-0.633, 6.694e-6
-0.634, 6.722e-6
-0.635, 6.749e-6
-0.636, 6.777e-6
-0.637, 6.803e-6
-0.638, 6.828e-6
-0.639, 6.854e-6
-0.640, 6.880e-6
-0.641, 6.905e-6
-0.642, 6.928e-6
-0.643, 6.952e-6
-0.644, 6.977e-6
-0.645, 7.000e-6
-0.646, 7.024e-6
-0.647, 7.047e-6
-0.648, 7.068e-6
-0.649, 7.092e-6
-0.650, 7.113e-6
-0.651, 7.135e-6
-0.652, 7.156e-6
-0.653, 7.177e-6
-0.654, 7.199e-6
-0.655, 7.218e-6
-0.656, 7.238e-6
-0.657, 7.258e-6
-0.658, 7.276e-6
-0.659, 7.295e-6
-0.660, 7.315e-6
-0.661, 7.332e-6
-0.662, 7.351e-6
-0.663, 7.367e-6
-0.664, 7.384e-6
-0.665, 7.401e-6
-0.666, 7.421e-6
-0.667, 7.437e-6
-0.668, 7.452e-6
-0.669, 7.468e-6
-0.670, 7.483e-6
-0.671, 7.498e-6
-0.672, 7.513e-6
-0.673, 7.526e-6
-0.674, 7.540e-6
-0.675, 7.553e-6
-0.676, 7.568e-6
-0.677, 7.580e-6
-0.678, 7.593e-6
-0.679, 7.604e-6
-0.680, 7.617e-6
-0.681, 7.630e-6
-0.682, 7.640e-6
-0.683, 7.650e-6
-0.684, 7.663e-6
-0.685, 7.671e-6
-0.686, 7.682e-6
-0.687, 7.691e-6
-0.688, 7.700e-6
-0.689, 7.710e-6
-0.690, 7.719e-6
-0.691, 7.727e-6
-0.692, 7.736e-6
-0.693, 7.742e-6
-0.694, 7.750e-6
-0.695, 7.757e-6
-0.696, 7.765e-6
-0.697, 7.772e-6
-0.698, 7.776e-6
-0.699, 7.782e-6
-0.700, 7.789e-6
-0.701, 7.793e-6
-0.702, 7.799e-6
-0.703, 7.803e-6
-0.704, 7.807e-6
-0.705, 7.813e-6
-0.706, 7.817e-6
-0.707, 7.821e-6
-0.708, 7.823e-6
-0.709, 7.825e-6
-0.710, 7.829e-6
-0.711, 7.832e-6
-0.712, 7.835e-6
-0.713, 7.836e-6
-0.714, 7.838e-6
-0.715, 7.841e-6
-0.716, 7.842e-6
-0.717, 7.844e-6
-0.718, 7.844e-6
-0.719, 7.846e-6
-0.720, 7.846e-6
-0.721, 7.847e-6
-0.722, 7.847e-6
-0.723, 7.846e-6
-0.724, 7.846e-6
-0.725, 7.845e-6
-0.726, 7.845e-6
-0.727, 7.844e-6
-0.728, 7.842e-6
-0.729, 7.843e-6
-0.730, 7.841e-6
-0.731, 7.841e-6
-0.732, 7.840e-6
-0.733, 7.835e-6
-0.734, 7.835e-6
-0.735, 7.833e-6
-0.736, 7.831e-6
-0.737, 7.830e-6
-0.738, 7.825e-6
-0.739, 7.823e-6
-0.740, 7.821e-6
-0.741, 7.818e-6
-0.742, 7.817e-6
-0.743, 7.813e-6
-0.744, 7.809e-6
-0.745, 7.807e-6
-0.746, 7.802e-6
-0.747, 7.801e-6
-0.748, 7.796e-6
-0.749, 7.793e-6
-0.750, 7.789e-6
-0.751, 7.786e-6
-0.752, 7.783e-6
-0.753, 7.778e-6
-0.754, 7.774e-6
-0.755, 7.771e-6
-0.756, 7.768e-6
-0.757, 7.764e-6
-0.758, 7.759e-6
-0.759, 7.755e-6
-0.760, 7.751e-6
-0.761, 7.749e-6
-0.762, 7.743e-6
-0.763, 7.738e-6
-0.764, 7.735e-6
-0.765, 7.730e-6
-0.766, 7.726e-6
-0.767, 7.721e-6
-0.768, 7.719e-6
-0.769, 7.715e-6
-0.770, 7.710e-6
-0.771, 7.706e-6
-0.772, 7.702e-6
-0.773, 7.695e-6
-0.774, 7.693e-6
-0.775, 7.688e-6
-0.776, 7.683e-6
-0.777, 7.680e-6
-0.778, 7.673e-6
-0.779, 7.670e-6
-0.780, 7.666e-6
-0.781, 7.663e-6
-0.782, 7.660e-6
-0.783, 7.653e-6
-0.784, 7.649e-6
-0.785, 7.646e-6
-0.786, 7.642e-6
-0.787, 7.638e-6
-0.788, 7.634e-6
-0.789, 7.630e-6
-0.790, 7.627e-6
-0.791, 7.623e-6
-0.792, 7.619e-6
-0.793, 7.615e-6
-0.794, 7.612e-6
-0.795, 7.608e-6
-0.796, 7.605e-6
-0.797, 7.601e-6
-0.798, 7.597e-6
-0.799, 7.592e-6
-0.800, 7.590e-6
-0.801, 7.587e-6
-0.802, 7.583e-6
-0.803, 7.578e-6
-0.804, 7.575e-6
-0.805, 7.572e-6
-0.806, 7.569e-6
-0.807, 7.567e-6
-0.808, 7.562e-6
-0.809, 7.561e-6
-0.810, 7.557e-6
-0.811, 7.555e-6
-0.812, 7.553e-6
-0.813, 7.548e-6
-0.814, 7.547e-6
-0.815, 7.544e-6
-0.816, 7.542e-6
-0.817, 7.540e-6
-0.818, 7.535e-6
-0.819, 7.536e-6
-0.820, 7.537e-6
-0.821, 7.533e-6
-0.822, 7.531e-6
-0.823, 7.528e-6
-0.824, 7.526e-6
-0.825, 7.524e-6
-0.826, 7.522e-6
-0.827, 7.521e-6
-0.828, 7.519e-6
-0.829, 7.516e-6
-0.830, 7.515e-6
-0.831, 7.513e-6
-0.832, 7.514e-6
-0.833, 7.511e-6
-0.834, 7.509e-6
-0.835, 7.508e-6
-0.836, 7.508e-6
-0.837, 7.506e-6
-0.838, 7.505e-6
-0.839, 7.504e-6
-0.840, 7.503e-6
-0.841, 7.503e-6
-0.842, 7.502e-6
-0.843, 7.500e-6
-0.844, 7.500e-6
-0.845, 7.501e-6
-0.846, 7.501e-6
-0.847, 7.500e-6
-0.848, 7.498e-6
-0.849, 7.500e-6
-0.850, 7.499e-6
-0.851, 7.500e-6
-0.852, 7.499e-6
-0.853, 7.499e-6
-0.854, 7.500e-6
-0.855, 7.499e-6
-0.856, 7.500e-6
-0.857, 7.502e-6
-0.858, 7.501e-6
-0.859, 7.503e-6
-0.860, 7.503e-6
-0.861, 7.503e-6
-0.862, 7.506e-6
-0.863, 7.504e-6
-0.864, 7.505e-6
-0.865, 7.507e-6
-0.866, 7.508e-6
-0.867, 7.511e-6
-0.868, 7.511e-6
-0.869, 7.513e-6
-0.870, 7.516e-6
-0.871, 7.518e-6
-0.872, 7.520e-6
-0.873, 7.520e-6
-0.874, 7.520e-6
-0.875, 7.524e-6
-0.876, 7.526e-6
-0.877, 7.529e-6
-0.878, 7.530e-6
-0.879, 7.531e-6
-0.880, 7.535e-6
-0.881, 7.539e-6
-0.882, 7.540e-6
-0.883, 7.543e-6
-0.884, 7.547e-6
-0.885, 7.548e-6
-0.886, 7.552e-6
-0.887, 7.555e-6
-0.888, 7.557e-6
-0.889, 7.562e-6
-0.890, 7.565e-6
-0.891, 7.568e-6
-0.892, 7.573e-6
-0.893, 7.575e-6
-0.894, 7.580e-6
-0.895, 7.582e-6
-0.896, 7.589e-6
-0.897, 7.592e-6
-0.898, 7.596e-6
-0.899, 7.601e-6
-0.900, 7.605e-6
-0.901, 7.609e-6
-0.902, 7.616e-6
-0.903, 7.618e-6
-0.904, 7.624e-6
-0.905, 7.630e-6
-0.906, 7.634e-6
-0.907, 7.640e-6
-0.908, 7.644e-6
-0.909, 7.650e-6
-0.910, 7.656e-6
-0.911, 7.661e-6
-0.912, 7.667e-6
-0.913, 7.672e-6
-0.914, 7.678e-6
-0.915, 7.686e-6
-0.916, 7.692e-6
-0.917, 7.698e-6
-0.918, 7.704e-6
-0.919, 7.711e-6
-0.920, 7.719e-6
-0.921, 7.728e-6
-0.922, 7.736e-6
-0.923, 7.741e-6
-0.924, 7.748e-6
-0.925, 7.756e-6
-0.926, 7.766e-6
-0.927, 7.774e-6
-0.928, 7.781e-6
-0.929, 7.789e-6
-0.930, 7.796e-6
-0.931, 7.806e-6
-0.932, 7.816e-6
-0.933, 7.823e-6
-0.934, 7.835e-6
-0.935, 7.844e-6
-0.936, 7.854e-6
-0.937, 7.865e-6
-0.938, 7.872e-6
-0.939, 7.884e-6
-0.940, 7.896e-6
-0.941, 7.907e-6
-0.942, 7.917e-6
-0.943, 7.928e-6
-0.944, 7.940e-6
-0.945, 7.953e-6
-0.946, 7.965e-6
-0.947, 7.981e-6
-0.948, 7.991e-6
-0.949, 8.004e-6
-0.950, 8.018e-6
-0.951, 8.031e-6
-0.952, 8.045e-6
-0.953, 8.059e-6
-0.954, 8.073e-6
-0.955, 8.088e-6
-0.956, 8.104e-6
-0.957, 8.119e-6
-0.958, 8.134e-6
-0.959, 8.149e-6
-0.960, 8.168e-6
-0.961, 8.187e-6
-0.962, 8.205e-6
-0.963, 8.225e-6
-0.964, 8.244e-6
-0.965, 8.264e-6
-0.966, 8.285e-6
-0.967, 8.306e-6
-0.968, 8.326e-6
-0.969, 8.348e-6
-0.970, 8.369e-6
-0.971, 8.392e-6
-0.972, 8.416e-6
-0.973, 8.441e-6
-0.974, 8.468e-6
-0.975, 8.495e-6
-0.976, 8.522e-6
-0.977, 8.552e-6
-0.978, 8.579e-6
-0.979, 8.609e-6
-0.980, 8.639e-6
-0.981, 8.672e-6
-0.982, 8.709e-6
-0.983, 8.744e-6
-0.984, 8.783e-6
-0.985, 8.823e-6
-0.986, 8.862e-6
-0.987, 8.903e-6
-0.988, 8.946e-6
-0.989, 8.992e-6
-0.990, 9.043e-6
-0.991, 9.092e-6
-0.992, 9.145e-6
-0.993, 9.199e-6
-0.994, 9.257e-6
-0.995, 9.319e-6
-0.996, 9.378e-6
-0.997, 9.441e-6
-0.998, 9.509e-6
-0.999, 9.579e-6
-1.000, 9.649e-6
-1.001, 9.726e-6
-1.002, 9.803e-6
-1.003, 9.881e-6
-1.004, 9.962e-6
-1.005, 1.005e-5
-1.006, 1.013e-5
-1.007, 1.022e-5
-1.008, 1.031e-5
-1.009, 1.040e-5
-1.010, 1.050e-5
-1.011, 1.060e-5
-1.012, 1.070e-5
-1.013, 1.080e-5
-1.014, 1.090e-5
-1.015, 1.101e-5
-1.016, 1.111e-5
-1.017, 1.122e-5
-1.018, 1.133e-5
-1.019, 1.144e-5
-1.020, 1.155e-5
-1.021, 1.166e-5
-1.022, 1.177e-5
-1.023, 1.188e-5
-1.024, 1.199e-5
-1.025, 1.209e-5
-1.026, 1.220e-5
-1.027, 1.231e-5
-1.028, 1.242e-5
-1.029, 1.254e-5
-1.030, 1.265e-5
-1.031, 1.276e-5
-1.032, 1.287e-5
-1.033, 1.298e-5
-1.034, 1.309e-5
-1.035, 1.319e-5
-1.036, 1.330e-5
-1.037, 1.341e-5
-1.038, 1.351e-5
-1.039, 1.361e-5
-1.040, 1.372e-5
-1.041, 1.382e-5
-1.042, 1.391e-5
-1.043, 1.401e-5
-1.044, 1.410e-5
-1.045, 1.419e-5
-1.046, 1.428e-5
-1.047, 1.438e-5
-1.048, 1.446e-5
-1.049, 1.455e-5
-1.050, 1.463e-5
-1.051, 1.471e-5
-1.052, 1.479e-5
-1.053, 1.487e-5
-1.054, 1.495e-5
-1.055, 1.502e-5
-1.056, 1.509e-5
-1.057, 1.516e-5
-1.058, 1.523e-5
-1.059, 1.529e-5
-1.060, 1.535e-5
-1.061, 1.541e-5
-1.062, 1.547e-5
-1.063, 1.553e-5
-1.064, 1.558e-5
-1.065, 1.564e-5
-1.066, 1.568e-5
-1.067, 1.573e-5
-1.068, 1.578e-5
-1.069, 1.582e-5
-1.070, 1.587e-5
-1.071, 1.591e-5
-1.072, 1.595e-5
-1.073, 1.599e-5
-1.074, 1.603e-5
-1.075, 1.607e-5
-1.076, 1.610e-5
-1.077, 1.614e-5
-1.078, 1.617e-5
-1.079, 1.620e-5
-1.080, 1.623e-5
-1.081, 1.626e-5
-1.082, 1.628e-5
-1.083, 1.631e-5
-1.084, 1.633e-5
-1.085, 1.635e-5
-1.086, 1.638e-5
-1.087, 1.640e-5
-1.088, 1.642e-5
-1.089, 1.644e-5
-1.090, 1.646e-5
-1.091, 1.648e-5
-1.092, 1.650e-5
-1.093, 1.651e-5
-1.094, 1.653e-5
-1.095, 1.655e-5
-1.096, 1.656e-5
-1.097, 1.658e-5
-1.098, 1.659e-5
-1.099, 1.661e-5
-1.100, 1.662e-5
-1.101, 1.664e-5
-1.102, 1.665e-5
-1.103, 1.667e-5
-1.104, 1.668e-5
-1.105, 1.670e-5
-1.106, 1.671e-5
-1.107, 1.672e-5
-1.108, 1.674e-5
-1.109, 1.675e-5
-1.110, 1.676e-5
-1.111, 1.678e-5
-1.112, 1.679e-5
-1.113, 1.681e-5
-1.114, 1.682e-5
-1.115, 1.684e-5
-1.116, 1.686e-5
-1.117, 1.687e-5
-1.118, 1.689e-5
-1.119, 1.691e-5
-1.120, 1.692e-5
-1.121, 1.694e-5
-1.122, 1.696e-5
-1.123, 1.698e-5
-1.124, 1.700e-5
-1.125, 1.703e-5
-1.126, 1.705e-5
-1.127, 1.707e-5
-1.128, 1.710e-5
-1.129, 1.712e-5
-1.130, 1.715e-5
-1.131, 1.718e-5
-1.132, 1.721e-5
-1.133, 1.724e-5
-1.134, 1.727e-5
-1.135, 1.730e-5
-1.136, 1.733e-5
-1.137, 1.737e-5
-1.138, 1.740e-5
-1.139, 1.743e-5
-1.140, 1.747e-5
-1.141, 1.751e-5
-1.142, 1.755e-5
-1.143, 1.759e-5
-1.144, 1.763e-5
-1.145, 1.767e-5
-1.146, 1.772e-5
-1.147, 1.776e-5
-1.148, 1.781e-5
-1.149, 1.786e-5
-1.150, 1.790e-5
-1.151, 1.795e-5
-1.152, 1.801e-5
-1.153, 1.806e-5
-1.154, 1.811e-5
-1.155, 1.817e-5
-1.156, 1.822e-5
-1.157, 1.828e-5
-1.158, 1.834e-5
-1.159, 1.840e-5
-1.160, 1.846e-5
-1.161, 1.852e-5
-1.162, 1.859e-5
-1.163, 1.866e-5
-1.164, 1.872e-5
-1.165, 1.879e-5
-1.166, 1.887e-5
-1.167, 1.894e-5
-1.168, 1.901e-5
-1.169, 1.909e-5
-1.170, 1.916e-5
-1.171, 1.924e-5
-1.172, 1.932e-5
-1.173, 1.940e-5
-1.174, 1.948e-5
-1.175, 1.957e-5
-1.176, 1.965e-5
-1.177, 1.974e-5
-1.178, 1.983e-5
-1.179, 1.992e-5
-1.180, 2.001e-5
-1.181, 2.010e-5
-1.182, 2.020e-5
-1.183, 2.029e-5
-1.184, 2.039e-5
-1.185, 2.049e-5
-1.186, 2.060e-5
-1.187, 2.070e-5
-1.188, 2.080e-5
-1.189, 2.091e-5
-1.190, 2.102e-5
-1.191, 2.113e-5
-1.192, 2.124e-5
-1.193, 2.136e-5
-1.194, 2.147e-5
-1.195, 2.159e-5
-1.196, 2.170e-5
-1.197, 2.182e-5
-1.198, 2.195e-5
-1.199, 2.207e-5
-1.200, 2.219e-5
-1.201, 2.232e-5
-1.202, 2.245e-5
-1.203, 2.258e-5
-1.204, 2.271e-5
-1.205, 2.284e-5
-1.206, 2.298e-5
-1.207, 2.311e-5
-1.208, 2.325e-5
-1.209, 2.340e-5
-1.210, 2.354e-5
-1.211, 2.368e-5
-1.212, 2.383e-5
-1.213, 2.398e-5
-1.214, 2.414e-5
-1.215, 2.429e-5
-1.216, 2.444e-5
-1.217, 2.460e-5
-1.218, 2.475e-5
-1.219, 2.491e-5
-1.220, 2.507e-5
-1.221, 2.524e-5
-1.222, 2.540e-5
-1.223, 2.557e-5
-1.224, 2.573e-5
-1.225, 2.590e-5
-1.226, 2.607e-5
-1.227, 2.625e-5
-1.228, 2.642e-5
-1.229, 2.661e-5
-1.230, 2.679e-5
-1.231, 2.697e-5
-1.232, 2.715e-5
-1.233, 2.733e-5
-1.234, 2.752e-5
-1.235, 2.771e-5
-1.236, 2.789e-5
-1.237, 2.808e-5
-1.238, 2.828e-5
-1.239, 2.847e-5
-1.240, 2.867e-5
-1.241, 2.887e-5
-1.242, 2.907e-5
-1.243, 2.928e-5
-1.244, 2.948e-5
-1.245, 2.969e-5
-1.246, 2.990e-5
-1.247, 3.011e-5
-1.248, 3.032e-5
-1.249, 3.054e-5
-1.250, 3.076e-5
-1.251, 3.098e-5
-1.252, 3.120e-5
-1.253, 3.142e-5
-1.254, 3.165e-5
-1.255, 3.188e-5
-1.256, 3.211e-5
-1.257, 3.234e-5
-1.258, 3.258e-5
-1.259, 3.281e-5
-1.260, 3.305e-5
-1.261, 3.329e-5
-1.262, 3.353e-5
-1.263, 3.377e-5
-1.264, 3.402e-5
-1.265, 3.426e-5
-1.266, 3.451e-5
-1.267, 3.477e-5
-1.268, 3.502e-5
-1.269, 3.527e-5
-1.270, 3.553e-5
-1.271, 3.579e-5
-1.272, 3.605e-5
-1.273, 3.632e-5
-1.274, 3.658e-5
-1.275, 3.684e-5
-1.276, 3.711e-5
-1.277, 3.739e-5
-1.278, 3.766e-5
-1.279, 3.793e-5
-1.280, 3.821e-5
-1.281, 3.849e-5
-1.282, 3.877e-5
-1.283, 3.905e-5
-1.284, 3.934e-5
-1.285, 3.963e-5
-1.286, 3.992e-5
-1.287, 4.021e-5
-1.288, 4.051e-5
-1.289, 4.080e-5
-1.290, 4.110e-5
-1.291, 4.140e-5
-1.292, 4.169e-5
-1.293, 4.199e-5
-1.294, 4.230e-5
-1.295, 4.260e-5
-1.296, 4.291e-5
-1.297, 4.323e-5
-1.298, 4.353e-5
-1.299, 4.383e-5
-1.300, 4.415e-5
-1.301, 4.446e-5
-1.302, 4.478e-5
-1.303, 4.510e-5
-1.304, 4.543e-5
-1.305, 4.575e-5
-1.306, 4.608e-5
-1.307, 4.641e-5
-1.308, 4.673e-5
-1.309, 4.706e-5
-1.310, 4.740e-5
-1.311, 4.774e-5
-1.312, 4.808e-5
-1.313, 4.842e-5
-1.314, 4.875e-5
-1.315, 4.910e-5
-1.316, 4.944e-5
-1.317, 4.978e-5
-1.318, 5.012e-5
-1.319, 5.047e-5
-1.320, 5.083e-5
-1.321, 5.118e-5
-1.322, 5.153e-5
-1.323, 5.188e-5
-1.324, 5.223e-5
-1.325, 5.259e-5
-1.326, 5.295e-5
-1.327, 5.331e-5
-1.328, 5.367e-5
-1.329, 5.403e-5
-1.330, 5.440e-5
-1.331, 5.476e-5
-1.332, 5.513e-5
-1.333, 5.550e-5
-1.334, 5.587e-5
-1.335, 5.624e-5
-1.336, 5.661e-5
-1.337, 5.699e-5
-1.338, 5.736e-5
-1.339, 5.773e-5
-1.340, 5.811e-5
-1.341, 5.849e-5
-1.342, 5.887e-5
-1.343, 5.925e-5
-1.344, 5.962e-5
-1.345, 6.000e-5
-1.346, 6.039e-5
-1.347, 6.077e-5
-1.348, 6.116e-5
-1.349, 6.154e-5
-1.350, 6.193e-5
-1.351, 6.232e-5
-1.352, 6.271e-5
-1.353, 6.310e-5
-1.354, 6.350e-5
-1.355, 6.389e-5
-1.356, 6.428e-5
-1.357, 6.468e-5
-1.358, 6.508e-5
-1.359, 6.547e-5
-1.360, 6.586e-5
-1.361, 6.626e-5
-1.362, 6.666e-5
-1.363, 6.705e-5
-1.364, 6.745e-5
-1.365, 6.785e-5
-1.366, 6.825e-5
-1.367, 6.865e-5
-1.368, 6.905e-5
-1.369, 6.944e-5
-1.370, 6.985e-5
-1.371, 7.026e-5
-1.372, 7.065e-5
-1.373, 7.106e-5
-1.374, 7.146e-5
-1.375, 7.186e-5
-1.376, 7.227e-5
-1.377, 7.267e-5
-1.378, 7.307e-5
-1.379, 7.347e-5
-1.380, 7.387e-5
-1.381, 7.428e-5
-1.382, 7.468e-5
-1.383, 7.509e-5
-1.384, 7.548e-5
-1.385, 7.588e-5
-1.386, 7.629e-5
-1.387, 7.669e-5
-1.388, 7.709e-5
-1.389, 7.749e-5
-1.390, 7.790e-5
-1.391, 7.830e-5
-1.392, 7.870e-5
-1.393, 7.910e-5
-1.394, 7.951e-5
-1.395, 7.991e-5
-1.396, 8.031e-5
-1.397, 8.072e-5
-1.398, 8.111e-5
-1.399, 8.151e-5
-1.400, 8.191e-5
-1.401, 8.231e-5
-1.402, 8.271e-5
-1.403, 8.310e-5
-1.404, 8.350e-5
-1.405, 8.389e-5
-1.406, 8.429e-5
-1.407, 8.468e-5
-1.408, 8.507e-5
-1.409, 8.546e-5
-1.410, 8.586e-5
-1.411, 8.625e-5
-1.412, 8.664e-5
-1.413, 8.703e-5
-1.414, 8.742e-5
-1.415, 8.780e-5
-1.416, 8.819e-5
-1.417, 8.858e-5
-1.418, 8.896e-5
-1.419, 8.934e-5
-1.420, 8.972e-5
-1.421, 9.010e-5
-1.422, 9.048e-5
-1.423, 9.085e-5
-1.424, 9.121e-5
-1.425, 9.158e-5
-1.426, 9.196e-5
-1.427, 9.233e-5
-1.428, 9.270e-5
-1.429, 9.306e-5
-1.430, 9.343e-5
-1.431, 9.379e-5
-1.432, 9.416e-5
-1.433, 9.452e-5
-1.434, 9.489e-5
-1.435, 9.525e-5
-1.436, 9.561e-5
-1.437, 9.596e-5
-1.438, 9.631e-5
-1.439, 9.665e-5
-1.440, 9.700e-5
-1.441, 9.734e-5
-1.442, 9.768e-5
-1.443, 9.802e-5
-1.444, 9.836e-5
-1.445, 9.870e-5
-1.446, 9.903e-5
-1.447, 9.936e-5
-1.448, 9.969e-5
-1.449, 1.000e-4
-1.450, 1.003e-4
-1.451, 1.006e-4
-1.452, 1.010e-4
-1.453, 1.013e-4
-1.454, 1.016e-4
-1.455, 1.019e-4
-1.456, 1.022e-4
-1.457, 1.025e-4
-1.458, 1.028e-4
-1.459, 1.031e-4
-1.460, 1.034e-4
-1.461, 1.037e-4
-1.462, 1.040e-4
-1.463, 1.043e-4
-1.464, 1.046e-4
-1.465, 1.049e-4
-1.466, 1.052e-4
-1.467, 1.054e-4
-1.468, 1.057e-4
-1.469, 1.060e-4
-1.470, 1.063e-4
-1.471, 1.065e-4
-1.472, 1.068e-4
-1.473, 1.070e-4
-1.474, 1.073e-4
-1.475, 1.076e-4
-1.476, 1.078e-4
-1.477, 1.081e-4
-1.478, 1.083e-4
-1.479, 1.086e-4
-1.480, 1.088e-4
-1.481, 1.091e-4
-1.482, 1.093e-4
-1.483, 1.096e-4
-1.484, 1.098e-4
-1.485, 1.101e-4
-1.486, 1.103e-4
-1.487, 1.105e-4
-1.488, 1.108e-4
-1.489, 1.110e-4
-1.490, 1.112e-4
-1.491, 1.115e-4
-1.492, 1.117e-4
-1.493, 1.119e-4
-1.494, 1.122e-4
-1.495, 1.124e-4
-1.496, 1.126e-4
-1.497, 1.128e-4
-1.498, 1.131e-4
-1.499, 1.133e-4
-1.500, 1.135e-4
-1.501, 1.138e-4
-1.502, 1.140e-4
-1.503, 1.142e-4
-1.504, 1.145e-4
-1.505, 1.147e-4
-1.506, 1.150e-4
-1.507, 1.152e-4
-1.508, 1.155e-4
-1.509, 1.157e-4
-1.510, 1.160e-4
-1.511, 1.162e-4
-1.512, 1.165e-4
-1.513, 1.168e-4
-1.514, 1.170e-4
-1.515, 1.173e-4
-1.516, 1.176e-4
-1.517, 1.179e-4
-1.518, 1.182e-4
-1.519, 1.185e-4
-1.520, 1.189e-4
-1.521, 1.192e-4
-1.522, 1.195e-4
-1.523, 1.199e-4
-1.524, 1.202e-4
-1.525, 1.206e-4
-1.526, 1.210e-4
-1.527, 1.214e-4
-1.528, 1.217e-4
-1.529, 1.222e-4
-1.530, 1.226e-4
-1.531, 1.230e-4
-1.532, 1.234e-4
-1.533, 1.239e-4
-1.534, 1.244e-4
-1.535, 1.248e-4
-1.536, 1.253e-4
-1.537, 1.258e-4
-1.538, 1.264e-4
-1.539, 1.269e-4
-1.540, 1.275e-4
-1.541, 1.281e-4
-1.542, 1.286e-4
-1.543, 1.292e-4
-1.544, 1.299e-4
-1.545, 1.305e-4
-1.546, 1.312e-4
-1.547, 1.318e-4
-1.548, 1.325e-4
-1.549, 1.332e-4
-1.550, 1.340e-4
-1.551, 1.347e-4
-1.552, 1.355e-4
-1.553, 1.363e-4
-1.554, 1.371e-4
-1.555, 1.379e-4
-1.556, 1.387e-4
-1.557, 1.396e-4
-1.558, 1.405e-4
-1.559, 1.414e-4
-1.560, 1.423e-4
-1.561, 1.433e-4
-1.562, 1.443e-4
-1.563, 1.453e-4
-1.564, 1.463e-4
-1.565, 1.474e-4
-1.566, 1.484e-4
-1.567, 1.495e-4
-1.568, 1.506e-4
-1.569, 1.518e-4
-1.570, 1.529e-4
-1.571, 1.541e-4
-1.572, 1.553e-4
-1.573, 1.565e-4
-1.574, 1.577e-4
-1.575, 1.590e-4
-1.576, 1.603e-4
-1.577, 1.616e-4
-1.578, 1.630e-4
-1.579, 1.644e-4
-1.580, 1.658e-4
-1.581, 1.672e-4
-1.582, 1.687e-4
-1.583, 1.701e-4
-1.584, 1.716e-4
-1.585, 1.732e-4
-1.586, 1.747e-4
-1.587, 1.763e-4
-1.588, 1.779e-4
-1.589, 1.796e-4
-1.590, 1.813e-4
-1.591, 1.829e-4
-1.592, 1.846e-4
-1.593, 1.864e-4
-1.594, 1.881e-4
-1.595, 1.899e-4
-1.596, 1.917e-4
-1.597, 1.935e-4
-1.598, 1.954e-4
-1.599, 1.973e-4
-1.600, 1.992e-4
-1.601, 2.011e-4
-1.602, 2.031e-4
-1.603, 2.051e-4
-1.604, 2.072e-4
-1.605, 2.092e-4
-1.606, 2.113e-4
-1.607, 2.134e-4
-1.608, 2.155e-4
-1.609, 2.177e-4
-1.610, 2.199e-4
-1.611, 2.221e-4
-1.612, 2.243e-4
-1.613, 2.266e-4
-1.614, 2.290e-4
-1.615, 2.313e-4
-1.616, 2.336e-4
-1.617, 2.360e-4
-1.618, 2.384e-4
-1.619, 2.409e-4
-1.620, 2.434e-4
-1.621, 2.460e-4
-1.622, 2.486e-4
-1.623, 2.511e-4
-1.624, 2.538e-4
-1.625, 2.564e-4
-1.626, 2.590e-4
-1.627, 2.618e-4
-1.628, 2.646e-4
-1.629, 2.673e-4
-1.630, 2.701e-4
-1.631, 2.729e-4
-1.632, 2.758e-4
-1.633, 2.788e-4
-1.634, 2.818e-4
-1.635, 2.847e-4
-1.636, 2.877e-4
-1.637, 2.907e-4
-1.638, 2.938e-4
-1.639, 2.969e-4
-1.640, 3.001e-4
-1.641, 3.033e-4
-1.642, 3.065e-4
-1.643, 3.098e-4
-1.644, 3.131e-4
-1.645, 3.164e-4
-1.646, 3.198e-4
-1.647, 3.232e-4
-1.648, 3.266e-4
-1.649, 3.301e-4
-1.650, 3.336e-4
-1.651, 3.371e-4
-1.652, 3.407e-4
-1.653, 3.442e-4
-1.654, 3.479e-4
-1.655, 3.515e-4
-1.656, 3.552e-4
-1.657, 3.589e-4
-1.658, 3.626e-4
-1.659, 3.664e-4
-1.660, 3.702e-4
-1.661, 3.740e-4
-1.662, 3.780e-4
-1.663, 3.820e-4
-1.664, 3.860e-4
-1.665, 3.900e-4
-1.666, 3.940e-4
-1.667, 3.981e-4
-1.668, 4.022e-4
-1.669, 4.063e-4
-1.670, 4.105e-4
-1.671, 4.146e-4
-1.672, 4.188e-4
-1.673, 4.231e-4
-1.674, 4.274e-4
-1.675, 4.318e-4
-1.676, 4.362e-4
-1.677, 4.408e-4
-1.678, 4.454e-4
-1.679, 4.499e-4
-1.680, 4.545e-4
-1.681, 4.591e-4
-1.682, 4.637e-4
-1.683, 4.684e-4
-1.684, 4.731e-4
-1.685, 4.779e-4
-1.686, 4.827e-4
-1.687, 4.875e-4
-1.688, 4.923e-4
-1.689, 4.972e-4
-1.690, 5.022e-4
-1.691, 5.072e-4
-1.692, 5.122e-4
-1.693, 5.173e-4
-1.694, 5.224e-4
-1.695, 5.276e-4
-1.696, 5.329e-4
-1.697, 5.381e-4
-1.698, 5.433e-4
-1.699, 5.486e-4
-1.700, 5.540e-4
-1.701, 5.594e-4
-1.702, 5.648e-4
-1.703, 5.700e-4
-1.704, 5.754e-4
-1.705, 5.809e-4
-1.706, 5.864e-4
-1.707, 5.921e-4
-1.708, 5.977e-4
-1.709, 6.034e-4
-1.710, 6.091e-4
-1.711, 6.148e-4
-1.712, 6.206e-4
-1.713, 6.265e-4
-1.714, 6.324e-4
-1.715, 6.384e-4
-1.716, 6.444e-4
-1.717, 6.504e-4
-1.718, 6.565e-4
-1.719, 6.626e-4
-1.720, 6.687e-4
-1.721, 6.749e-4
-1.722, 6.811e-4
-1.723, 6.873e-4
-1.724, 6.934e-4
-1.725, 6.996e-4
-1.726, 7.060e-4
-1.727, 7.122e-4
-1.728, 7.185e-4
-1.729, 7.248e-4
-1.730, 7.314e-4
-1.731, 7.377e-4
-1.732, 7.440e-4
-1.733, 7.505e-4
-1.734, 7.571e-4
-1.735, 7.638e-4
-1.736, 7.706e-4
-1.737, 7.773e-4
-1.738, 7.839e-4
-1.739, 7.906e-4
-1.740, 7.973e-4
-1.741, 8.041e-4
-1.742, 8.108e-4
-1.743, 8.176e-4
-1.744, 8.246e-4
-1.745, 8.315e-4
-1.746, 8.384e-4
-1.747, 8.453e-4
-1.748, 8.523e-4
-1.749, 8.594e-4
-1.750, 8.665e-4
-1.751, 8.736e-4
-1.752, 8.808e-4
-1.753, 8.880e-4
-1.754, 8.951e-4
-1.755, 9.022e-4
-1.756, 9.093e-4
-1.757, 9.165e-4
-1.758, 9.239e-4
-1.759, 9.312e-4
-1.760, 9.385e-4
-1.761, 9.457e-4
-1.762, 9.530e-4
-1.763, 9.605e-4
-1.764, 9.680e-4
-1.765, 9.757e-4
-1.766, 9.834e-4
-1.767, 9.913e-4
-1.768, 9.990e-4
-1.769, 1.007e-3
-1.770, 1.011e-3
-1.771, 1.011e-3
-1.772, 1.011e-3
-1.773, 1.011e-3
-1.774, 1.011e-3
-1.775, 1.011e-3
-1.776, 1.011e-3
-1.777, 1.011e-3
-1.778, 1.011e-3
-1.779, 1.011e-3
-1.780, 1.011e-3
-1.781, 1.011e-3
-1.782, 1.011e-3
-1.783, 1.011e-3
-1.784, 1.011e-3
-1.785, 1.011e-3
-1.786, 1.011e-3
-1.787, 1.011e-3
-1.788, 1.011e-3
-1.789, 1.011e-3
-1.790, 1.011e-3
-1.791, 1.011e-3
-1.792, 1.011e-3
-1.793, 1.011e-3
-1.794, 1.011e-3
-1.795, 1.011e-3
-1.796, 1.011e-3
-1.797, 1.011e-3
-1.798, 1.011e-3
-1.799, 1.011e-3
-1.800, 1.011e-3
-1.801, 1.011e-3
-1.802, 1.011e-3
-1.803, 1.011e-3
-1.804, 1.011e-3
-1.805, 1.011e-3
-1.806, 1.011e-3
-1.807, 1.011e-3
-1.808, 1.011e-3
-1.809, 1.011e-3
-1.810, 1.011e-3
-1.811, 1.011e-3
-1.812, 1.011e-3
-1.813, 1.011e-3
-1.814, 1.011e-3
-1.815, 1.011e-3
-1.816, 1.011e-3
-1.817, 1.011e-3
-1.818, 1.011e-3
-1.819, 1.011e-3
-1.820, 1.011e-3
-1.821, 1.011e-3
-1.822, 1.011e-3
-1.823, 1.011e-3
-1.824, 1.011e-3
-1.825, 1.011e-3
-1.826, 1.011e-3
-1.827, 1.011e-3
-1.828, 1.011e-3
-1.829, 1.011e-3
-1.830, 1.011e-3
-1.831, 1.011e-3
-1.832, 1.011e-3
-1.833, 1.011e-3
-1.834, 1.011e-3
-1.835, 1.011e-3
-1.836, 1.011e-3
-1.837, 1.011e-3
-1.838, 1.011e-3
-1.839, 1.011e-3
-1.840, 1.011e-3
-1.841, 1.011e-3
-1.842, 1.011e-3
-1.843, 1.011e-3
-1.844, 1.011e-3
-1.845, 1.011e-3
-1.846, 1.011e-3
-1.847, 1.011e-3
-1.848, 1.011e-3
-1.849, 1.011e-3
-1.850, 1.011e-3
-1.851, 1.011e-3
-1.852, 1.011e-3
-1.853, 1.011e-3
-1.854, 1.011e-3
-1.855, 1.011e-3
-1.856, 1.011e-3
-1.857, 1.011e-3
-1.858, 1.011e-3
-1.859, 1.011e-3
-1.860, 1.011e-3
-1.861, 1.011e-3
-1.862, 1.011e-3
-1.863, 1.011e-3
-1.864, 1.011e-3
-1.865, 1.011e-3
-1.866, 1.011e-3
-1.867, 1.011e-3
-1.868, 1.011e-3
-1.869, 1.011e-3
-1.870, 1.011e-3
-1.871, 1.011e-3
-1.872, 1.011e-3
-1.873, 1.011e-3
-1.874, 1.011e-3
-1.875, 1.011e-3
-1.876, 1.011e-3
-1.877, 1.011e-3
-1.878, 1.011e-3
-1.879, 1.011e-3
-1.880, 1.011e-3
-1.881, 1.011e-3
-1.882, 1.011e-3
-1.883, 1.011e-3
-1.884, 1.011e-3
-1.885, 1.011e-3
-1.886, 1.011e-3
-1.887, 1.011e-3
-1.888, 1.011e-3
-1.889, 1.011e-3
-1.890, 1.011e-3
-1.891, 1.011e-3
-1.892, 1.011e-3
-1.893, 1.011e-3
-1.894, 1.011e-3
-1.895, 1.011e-3
-1.896, 1.011e-3
-1.897, 1.011e-3
-1.898, 1.011e-3
-1.899, 1.011e-3
