Potential V vs RHE, Current mA cm-2
0.013299999999999867,-0.26384365742482935
0.012299999999999978,-2.4007650758709675
0.011299999999999866,-4.146518819904423
0.010299999999999976,-5.629136262162981
0.009299999999999864,-6.981600264833956
0.008299999999999974,-8.070927965730034
0.007299999999999862,-9.073958277334345
0.006299999999999972,-9.946835149351072
0.00529999999999986,-10.688143870480351
0.0042999999999999705,-11.343155202317865
0.0032999999999998586,-11.909039722263879
0.0022999999999999687,-12.390041564217992
0.0012999999999998568,-12.869628694872238
0.00029999999999996696,-13.30535977523067
-0.000700000000000145,-13.741090855589102
-0.0017000000000000348,-14.13438059695158
-0.0027000000000001467,-14.486643710617974
-0.0037000000000000366,-14.826174422585586
-0.0047000000000001485,-15.137410908555893
-0.005700000000000038,-15.349617603535648
-0.00670000000000015,-15.533530072518102
-0.00770000000000004,-15.70329542850191
-0.008700000000000152,-15.91550212348166
-0.009700000000000042,-16.099414592464115
-0.010700000000000154,-16.354062626439823
-0.011700000000000044,-16.580416434418233
-0.012700000000000156,-16.750181790402035
-0.013700000000000045,-16.877505807389888
-0.014700000000000157,-17.018976937376394
-0.015700000000000047,-17.146300954364243
-0.01670000000000016,-17.2736249713521
-0.01770000000000005,-17.40094898833995
-0.01870000000000016,-17.48583166633185
-0.01970000000000005,-17.627302796318357
-0.020700000000000163,-17.797068152302163
-0.021700000000000053,-17.924392169290012
-0.022700000000000164,-18.06586329927652
-0.023700000000000054,-18.19318731626437
-0.024700000000000166,-18.27806999425627
-0.025700000000000056,-18.362952672248177
-0.026700000000000168,-18.40539401124413
-0.027700000000000058,-18.44783535024008
-0.02870000000000017,-18.44783535024008
-0.02970000000000006,-18.53271802823198
-0.03070000000000017,-18.674189158218486
-0.03170000000000006,-18.716630497214435
-0.03270000000000017,-18.843954514202288
-0.03370000000000006,-18.97127853119014
-0.034700000000000175,-19.01371987018609
-0.035700000000000065,-19.056161209182044
-0.03670000000000018,-19.112749661176647
-0.03770000000000007,-19.155191000172596
-0.03870000000000018,-19.155191000172596
-0.03970000000000007,-19.2400736781645
-0.04070000000000018,-19.28251501716045
-0.04170000000000007,-19.367397695152352
-0.04270000000000018,-19.452280373144255
-0.04370000000000007,-19.537163051136158
-0.044700000000000184,-19.579604390132108
-0.045700000000000074,-19.636192842126707
-0.046700000000000186,-19.678634181122664
-0.047700000000000076,-19.678634181122664
-0.04870000000000019,-19.721075520118614
-0.04970000000000008,-19.763516859114564
-0.05070000000000019,-19.805958198110513
-0.05170000000000008,-19.848399537106463
-0.05270000000000019,-19.93328221509837
-0.05370000000000008,-20.01816489309027
-0.05470000000000019,-20.10304757108217
-0.05570000000000008,-20.159636023076775
-0.056700000000000195,-20.159636023076775
-0.057700000000000085,-20.10304757108217
-0.058700000000000196,-20.159636023076775
-0.059700000000000086,-20.202077362072725
-0.0607000000000002,-20.244518701068674
-0.06170000000000009,-20.329401379060574
-0.0627000000000002,-20.414284057052477
-0.06370000000000009,-20.456725396048434
-0.0647000000000002,-20.499166735044383
-0.06570000000000009,-20.456725396048434
-0.0667000000000002,-20.456725396048434
-0.0677000000000001,-20.456725396048434
-0.0687000000000002,-20.499166735044383
-0.0697000000000001,-20.541608074040333
-0.07070000000000021,-20.584049413036283
-0.0717000000000001,-20.626490752032236
-0.07270000000000021,-20.683079204026836
-0.0737000000000001,-20.683079204026836
-0.07470000000000021,-20.72552054302279
-0.0757000000000001,-20.72552054302279
-0.07670000000000021,-20.683079204026836
-0.0777000000000001,-20.683079204026836
-0.07870000000000021,-20.72552054302279
-0.0797000000000001,-20.76796188201874
-0.08070000000000022,-20.76796188201874
-0.0817000000000001,-20.810403221014692
-0.08270000000000022,-20.85284456001064
-0.08370000000000011,-20.93772723800254
-0.08470000000000022,-20.89528589900659
-0.08570000000000011,-20.89528589900659
-0.08670000000000022,-20.85284456001064
-0.08770000000000011,-20.85284456001064
-0.08870000000000022,-20.85284456001064
-0.08970000000000011,-20.810403221014692
-0.09070000000000022,-20.85284456001064
-0.09170000000000011,-20.89528589900659
-0.09270000000000023,-20.89528589900659
-0.09370000000000012,-20.89528589900659
-0.09470000000000023,-20.89528589900659
-0.09570000000000012,-20.85284456001064
-0.09670000000000023,-20.810403221014692
-0.09770000000000012,-20.76796188201874
-0.09870000000000023,-20.72552054302279
-0.09970000000000012,-20.72552054302279
-0.10070000000000023,-20.76796188201874
-0.10170000000000012,-20.810403221014692
-0.10270000000000024,-20.85284456001064
-0.10370000000000013,-20.85284456001064
-0.10470000000000024,-20.85284456001064
-0.10570000000000013,-20.810403221014692
-0.10670000000000024,-20.76796188201874
-0.10770000000000013,-20.72552054302279
-0.10870000000000024,-20.72552054302279
-0.10970000000000013,-20.72552054302279
-0.11070000000000024,-20.76796188201874
-0.11170000000000013,-20.76796188201874
-0.11270000000000002,-20.810403221014692
-0.11370000000000013,-20.810403221014692
-0.11470000000000002,-20.810403221014692
-0.11570000000000014,-20.76796188201874
-0.11670000000000003,-20.72552054302279
-0.11770000000000014,-20.626490752032236
-0.11870000000000003,-20.584049413036283
-0.11970000000000014,-20.541608074040333
-0.12070000000000003,-20.541608074040333
-0.12170000000000014,-20.541608074040333
-0.12270000000000003,-20.584049413036283
-0.12370000000000014,-20.584049413036283
-0.12470000000000003,-20.584049413036283
-0.12570000000000014,-20.626490752032236
-0.12670000000000003,-20.584049413036283
-0.12770000000000015,-20.541608074040333
-0.12870000000000004,-20.499166735044383
-0.12970000000000015,-20.456725396048434
-0.13070000000000004,-20.456725396048434
-0.13170000000000015,-20.456725396048434
-0.13270000000000004,-20.456725396048434
-0.13370000000000015,-20.456725396048434
-0.13470000000000004,-20.456725396048434
-0.13570000000000015,-20.414284057052477
-0.13670000000000004,-20.371842718056527
-0.13770000000000016,-20.371842718056527
-0.13870000000000005,-20.329401379060574
-0.13970000000000016,-20.286960040064624
-0.14070000000000005,-20.244518701068674
-0.14170000000000016,-20.244518701068674
-0.14270000000000005,-20.286960040064624
-0.14370000000000016,-20.244518701068674
-0.14470000000000005,-20.244518701068674
-0.14570000000000016,-20.202077362072725
-0.14670000000000005,-20.159636023076775
-0.14770000000000016,-20.06060623208622
-0.14870000000000005,-20.06060623208622
-0.14970000000000017,-20.01816489309027
-0.15070000000000006,-20.06060623208622
-0.15170000000000017,-20.01816489309027
-0.15270000000000006,-20.01816489309027
-0.15370000000000017,-19.97572355409432
-0.15470000000000006,-19.93328221509837
-0.15570000000000017,-19.890840876102416
-0.15670000000000006,-19.848399537106463
-0.15770000000000017,-19.848399537106463
-0.15870000000000006,-19.805958198110513
-0.15970000000000018,-19.763516859114564
-0.16070000000000007,-19.763516859114564
-0.16170000000000018,-19.763516859114564
-0.16270000000000007,-19.763516859114564
-0.16370000000000018,-19.763516859114564
-0.16470000000000007,-19.721075520118614
-0.16570000000000018,-19.678634181122664
-0.16670000000000007,-19.579604390132108
-0.16770000000000018,-19.537163051136158
-0.16870000000000007,-19.537163051136158
-0.16970000000000018,-19.537163051136158
-0.17070000000000007,-19.579604390132108
-0.17170000000000019,-19.678634181122664
-0.17270000000000008,-19.721075520118614
-0.1737000000000002,-19.678634181122664
-0.17470000000000008,-19.636192842126707
-0.1757000000000002,-19.579604390132108
-0.17670000000000008,-19.49472171214021
-0.1777000000000002,-19.452280373144255
-0.17870000000000008,-19.409839034148305
-0.1797000000000002,-19.409839034148305
-0.18070000000000008,-19.409839034148305
-0.1817000000000002,-19.452280373144255
-0.18270000000000008,-19.452280373144255
-0.1837000000000002,-19.49472171214021
-0.1847000000000001,-19.49472171214021
-0.1857000000000002,-19.452280373144255
-0.1867000000000001,-19.409839034148305
-0.1877000000000002,-19.367397695152352
-0.1887000000000001,-19.367397695152352
-0.1897000000000002,-19.28251501716045
-0.1907000000000001,-19.3249563561564
-0.1917000000000001,-19.3249563561564
-0.19269999999999998,-19.367397695152352
-0.1937000000000001,-19.367397695152352
-0.19469999999999998,-19.367397695152352
-0.1957000000000001,-19.28251501716045
-0.19669999999999999,-19.2400736781645
-0.1977000000000001,-19.2400736781645
-0.1987,-19.2400736781645
-0.1997000000000001,-19.2400736781645
-0.2007,-19.28251501716045
-0.2017000000000001,-19.28251501716045
-0.2027,-19.3249563561564
-0.2037000000000001,-19.367397695152352
-0.2047,-19.409839034148305
-0.2057000000000001,-19.3249563561564
-0.2067,-19.3249563561564
-0.2077000000000001,-19.28251501716045
-0.2087,-19.2400736781645
-0.2097000000000001,-19.2400736781645
-0.2107,-19.28251501716045
-0.2117000000000001,-19.367397695152352
-0.2127,-19.409839034148305
-0.2137000000000001,-19.367397695152352
-0.2147,-19.367397695152352
-0.2157000000000001,-19.367397695152352
-0.2167,-19.367397695152352
-0.21770000000000012,-19.3249563561564
-0.2187,-19.3249563561564
-0.21970000000000012,-19.28251501716045
-0.2207,-19.3249563561564
-0.22170000000000012,-19.367397695152352
-0.2227,-19.367397695152352
-0.22370000000000012,-19.409839034148305
-0.2247,-19.409839034148305
-0.22570000000000012,-19.409839034148305
-0.2267,-19.409839034148305
-0.22770000000000012,-19.367397695152352
-0.22870000000000001,-19.3249563561564
-0.22970000000000013,-19.3249563561564
-0.23070000000000002,-19.367397695152352
-0.23170000000000013,-19.409839034148305
-0.23270000000000002,-19.452280373144255
-0.23370000000000013,-19.49472171214021
-0.23470000000000002,-19.49472171214021
-0.23570000000000013,-19.579604390132108
-0.23670000000000002,-19.636192842126707
-0.2376999999999999,-19.579604390132108
-0.23870000000000002,-19.579604390132108
-0.2396999999999999,-19.579604390132108
-0.24070000000000003,-19.636192842126707
-0.24169999999999991,-19.721075520118614
-0.24270000000000003,-19.805958198110513
-0.24369999999999992,-19.848399537106463
-0.24470000000000003,-19.890840876102416
-0.24569999999999992,-19.93328221509837
-0.24670000000000003,-19.97572355409432
-0.24769999999999992,-19.93328221509837
-0.24870000000000003,-20.01816489309027
-0.24969999999999992,-20.06060623208622
-0.25070000000000003,-20.10304757108217
-0.2516999999999999,-20.202077362072725
-0.25270000000000004,-20.286960040064624
-0.2536999999999999,-20.371842718056527
-0.25470000000000004,-20.414284057052477
-0.2556999999999999,-20.456725396048434
-0.25670000000000004,-20.499166735044383
-0.25769999999999993,-20.499166735044383
-0.25870000000000004,-20.541608074040333
-0.25969999999999993,-20.626490752032236
-0.26070000000000004,-20.72552054302279
-0.26169999999999993,-20.89528589900659
-0.26270000000000004,-21.022609915994444
-0.26369999999999993,-21.107492593986347
-0.26470000000000005,-21.149933932982297
-0.26569999999999994,-21.149933932982297
-0.26670000000000005,-21.2065223849769
-0.26769999999999994,-21.248963723972853
-0.26870000000000005,-21.291405062968803
-0.26969999999999994,-21.376287740960702
-0.27070000000000005,-21.461170418952605
-0.27169999999999994,-21.58849443594046
-0.27270000000000005,-21.729965565926964
-0.27369999999999994,-21.814848243918867
-0.27470000000000006,-21.899730921910766
-0.27569999999999995,-21.98461359990267
-0.27670000000000006,-22.027054938898623
-0.27769999999999995,-22.111937616890522
-0.27870000000000006,-22.15437895588647
-0.27969999999999995,-22.253408746877028
-0.28070000000000006,-22.42317410286083
-0.28169999999999995,-22.550498119848687
-0.28270000000000006,-22.72026347583249
-0.28369999999999995,-22.946617283810895
-0.28470000000000006,-23.031499961802798
-0.28569999999999995,-23.1163826397947
-0.28670000000000007,-23.24370665678255
-0.28769999999999996,-23.300295108777156
-0.28870000000000007,-23.427619125765005
-0.28969999999999996,-23.597384481748815
-0.29070000000000007,-23.724708498736668
-0.29169999999999996,-23.908620967719123
-0.29270000000000007,-24.078386323702922
-0.29369999999999996,-24.24815167968673
-0.2947000000000001,-24.389622809673234
-0.29569999999999996,-24.516946826661083
-0.2967000000000001,-24.686712182644893
-0.29769999999999996,-24.870624651627345
-0.2987000000000001,-24.997948668615198
-0.29969999999999997,-25.210155363594954
-0.3007000000000001,-25.39406783257741
-0.30169999999999997,-25.60627452755716
-0.3027000000000001,-25.86092256153287
-0.30369999999999997,-26.087276369511276
-0.3047000000000001,-26.29948306449103
-0.30569999999999997,-26.525836872469437
-0.3067000000000001,-26.69560222845324
-0.3077,-26.86536758443705
-0.3087000000000001,-27.091721392415455
-0.3097,-27.261486748399253
-0.3107000000000001,-27.572723234369565
-0.3117,-27.78492992934932
-0.3127000000000001,-28.09616641531963
-0.3137,-28.393255788291288
-0.3147000000000001,-28.662050935265643
-0.3157,-28.831816291249446
-0.3167000000000001,-29.001581647233255
-0.3177,-29.22793545521166
-0.3187000000000001,-29.482583489187363
-0.3197,-29.793819975157668
-0.3207000000000001,-30.10505646112798
-0.3217,-30.444587173095588
-0.3227000000000001,-30.79826499806185
-0.3237,-31.095354371033505
-0.3247000000000001,-31.36414951800786
-0.3257,-31.618797551983565
-0.3267000000000001,-31.930034037953877
-0.3277,-32.24127052392419
-0.3287000000000001,-32.49591855789989
-0.3297,-32.764713704874254
-0.3307000000000001,-33.06180307784591
-0.3317,-33.50036358080407
-0.3327000000000001,-33.755011614779775
-0.3337,-34.15113077874198
-0.3347000000000001,-34.5472499427042
-0.3357,-34.90092776767045
-0.3367000000000001,-35.240458479638065
-0.3377,-35.636577643600276
-0.3387000000000001,-36.03269680756248
-0.3397,-36.37222751953009
-0.3407000000000001,-36.768346683492304
-0.3417,-37.164465847454515
-0.3427000000000001,-37.60302635041268
-0.3437,-38.04158685337084
-0.3447000000000001,-38.46600024333035
-0.3457,-38.86211940729255
-0.3467000000000001,-39.30067991025072
-0.3477,-39.739240413208876
-0.3487000000000001,-40.177800916167044
-0.3497,-40.65880275812115
-0.3507000000000001,-41.139804600075266
-0.3517,-41.66324778102533
-0.3527000000000001,-42.186690961975394
-0.3537,-42.653545690930855
-0.3547000000000001,-43.17698887188092
-0.3557,-43.657990713835034
-0.35670000000000013,-44.181433894785094
-0.3577,-44.704877075735155
-0.35870000000000013,-45.32735004767578
-0.3597,-45.97811724561369
-0.36070000000000013,-46.628884443551605
-0.3617,-47.23721030249357
-0.3626999999999999,-47.93041883942744
-0.3637,-48.55289181136806
-0.3646999999999999,-49.076334992318124
-0.3657,-49.642219512264134
-0.3666999999999999,-50.20810403221015
-0.3677,-50.77398855215617
-0.3686999999999999,-51.38231441109813
-0.36970000000000003,-52.033081609036046
-0.3706999999999999,-52.69799591997262
-0.37170000000000003,-53.39120445690648
-0.3726999999999999,-54.08441299384035
-0.37370000000000003,-54.791768643772876
-0.3746999999999999,-55.442535841710786
-0.37570000000000003,-56.05086170065276
-0.3766999999999999,-56.65918755959472
-0.37770000000000004,-57.22507207954074
-0.3786999999999999,-57.87583927747865
-0.37970000000000004,-58.583194927411164
-0.3806999999999999,-59.27640346434504
-0.38170000000000004,-60.06864179226946
-0.38269999999999993,-60.84673300719523
-0.38370000000000004,-61.63897133511965
-0.38469999999999993,-62.41706255004542
-0.38570000000000004,-63.06782974798333
-0.38669999999999993,-63.81762673691181
-0.38770000000000004,-64.46839393484973
-0.38869999999999993,-65.11916113278764
-0.38970000000000005,-65.82651678272015
-0.39069999999999994,-66.51972531965401
-0.39170000000000005,-67.2978165345798
-0.39269999999999994,-68.17493754049613
-0.39370000000000005,-68.91058741642594
-0.39469999999999994,-69.70282574435035
-0.39570000000000005,-70.48091695927613
-0.39669999999999994,-71.27315528720055
-0.39770000000000005,-72.15027629311687
-0.39869999999999994,-73.09813286402644
-0.39970000000000006,-74.0176952089387
-0.40069999999999995,-74.93725755385098
-0.40170000000000006,-75.77193722077136
-0.40269999999999995,-76.5924697746931
-0.40370000000000006,-77.51203211960537
-0.40469999999999995,-78.47403580351359
-0.40570000000000006,-79.37945103542721
-0.40669999999999995,-80.29901338033947
-0.40770000000000006,-81.21857572525175
-0.40869999999999995,-82.18057940915998
-0.40970000000000006,-83.14258309306821
-0.41069999999999995,-84.13288100297372
-0.41170000000000007,-85.13732602587791
-0.41269999999999996,-86.22665372677399
-0.41370000000000007,-87.27354008867411
-0.41469999999999996,-88.27798511157829
-0.41570000000000007,-89.23998879548651
-0.41669999999999996,-90.28687515738663
-0.41770000000000007,-91.33376151928677
-0.41869999999999996,-92.3806478811869
-0.4197000000000001,-93.42753424308701
-0.42069999999999996,-94.5168619439831
-0.4217000000000001,-95.64863098387512
-0.42269999999999996,-96.79454713676581
-0.4237000000000001,-97.84143349866595
-0.42469999999999997,-98.83173140857146
-0.4257000000000001,-99.93520622246619
-0.42669999999999997,-100.98209258436633
-0.4277000000000001,-101.97239049427183
-0.42869999999999997,-103.28807200314633
-0.4297000000000001,-104.64619485101677
-0.43069999999999997,-105.82040522990474
-0.4317000000000001,-106.99461560879273
-0.4327,-108.1688259876807
-0.4337000000000001,-109.44206615755924
-0.4347,-110.70115921443913
-0.4357000000000001,-111.8753695933271
-0.4367,-113.14860976320564
-0.4377000000000001,-114.36526148108955
-0.4387,-115.53947185997755
-0.4397000000000001,-116.89759470784797
-0.4407,-118.29815889471436
-0.4417000000000001,-119.47236927360234
-0.4427,-120.60413831349437
-0.4437000000000001,-121.90567270937021
-0.4447,-123.1364715402528
-0.4457000000000001,-124.39556459713268
-0.4467,-125.62636342801528
-0.4477000000000001,-126.71569112891132
-0.4487,-127.84746016880335
-0.4497000000000001,-129.10655322568326
-0.4507,-130.5495587515456
-0.4517000000000001,-131.95012293841197
-0.4527,-133.20921599529186
-0.4537000000000001,-134.38342637417986
-0.4547,-135.51519541407185
-0.4557000000000001,-136.70355290595847
-0.4567,-138.08996997982624
-0.4577000000000001,-139.44809282769666
-0.4587,-140.93353969255494
-0.4597000000000001,-142.4614278964092
-0.4607,-143.73466806628772
-0.4617000000000001,-144.86643710617977
-0.4627,-146.1396772760583
-0.4637000000000001,-147.27144631595033
-0.4647,-148.54468648582886
-0.4657000000000001,-149.8179266557074
-0.4667,-151.09116682558593
-0.4677000000000001,-152.50587812545095
-0.4687,-153.77911829532948
-0.4697000000000001,-155.33530072518104
-0.4707,-156.89148315503257
-0.4717000000000001,-158.5891367148706
-0.4727,-160.28679027470866
-0.4737000000000001,-161.84297270456022
-0.4747,-162.97474174445222
-0.4757000000000001,-164.10651078434424
-0.4767,-165.3797509542228
-0.4777000000000001,-166.93593338407433
-0.4787,-168.49211581392586
-0.4797000000000001,-169.9068271137909
-0.4807,-171.32153841365593
-0.48170000000000013,-172.73624971352098
-0.4827,-174.150961013386
-0.48370000000000013,-175.70714344323756
-0.4847,-177.1218547431026
-0.48570000000000013,-178.67803717295413
-0.4867,-178.53656604296762
-0.48570000000000013,-175.28273005327804
-0.4847,-172.87772084350746
-0.48370000000000013,-171.03859615368293
-0.4827,-169.48241372383137
-0.48170000000000013,-167.92623129397984
-0.4807,-166.22857773414182
-0.4797000000000001,-164.53092417430375
-0.4787,-162.6917994844792
-0.4777000000000001,-161.1356170546277
-0.4767,-159.57943462477613
-0.4757000000000001,-158.02325219492457
-0.4747,-156.60854089505958
-0.4737000000000001,-155.33530072518104
-0.4727,-154.203531685289
-0.4717000000000001,-153.07176264539694
-0.4707,-151.7985224755184
-0.4697000000000001,-150.24234004566688
-0.4687,-148.68615761581535
-0.4677000000000001,-147.1299751859638
-0.4667,-145.57379275611228
