Potential V vs RHE, Current mA cm-2
0.013299999999999867,-0.08949463682946222
0.012299999999999978,-0.09332850445209646
0.011299999999999866,-0.09569107232287108
0.010299999999999976,-0.09723310763972397
0.009299999999999864,-0.09869026027858496
0.008299999999999974,-0.10000594178745945
0.007299999999999862,-0.10115185794035012
0.006299999999999972,-0.10292024706518142
0.00529999999999986,-0.10348613158512744
0.0042999999999999705,-0.10427836991305185
0.0032999999999998586,-0.10542428606594254
0.0022999999999999687,-0.10630140707185885
0.0012999999999998568,-0.10739073477275493
0.00029999999999996696,-0.10812638464868475
-0.000700000000000145,-0.10870641628162941
-0.0017000000000000348,-0.10952694883555114
-0.0027000000000001467,-0.11046065829346206
-0.0037000000000000366,-0.11128119084738379
-0.0047000000000001485,-0.1117621926893379
-0.005700000000000038,-0.1122149003052947
-0.00670000000000015,-0.11303543285921643
-0.00770000000000004,-0.11371449428315164
-0.008700000000000152,-0.11440770282008553
-0.009700000000000042,-0.11476138064505177
-0.010700000000000154,-0.11519994114800992
-0.011700000000000044,-0.11562435453796945
-0.012700000000000156,-0.11624682750991006
-0.013700000000000045,-0.11684100625585338
-0.014700000000000157,-0.11692588893384527
-0.015700000000000047,-0.11770398014877105
-0.01670000000000016,-0.11802936374774001
-0.01770000000000005,-0.11859524826768601
-0.01870000000000016,-0.1190621029966415
-0.01970000000000005,-0.119486516386601
-0.020700000000000163,-0.11981189998556994
-0.021700000000000053,-0.11993922400255783
-0.022700000000000164,-0.12037778450551596
-0.023700000000000054,-0.12114172860744309
-0.024700000000000166,-0.12121246417243635
-0.025700000000000056,-0.12148125931941069
-0.026700000000000168,-0.12186323137037425
-0.027700000000000058,-0.12249985145531352
-0.02870000000000017,-0.12268376392429597
-0.02970000000000006,-0.12293841195827168
-0.03070000000000017,-0.12346185513922175
-0.03170000000000006,-0.12363162049520555
-0.03270000000000017,-0.12442385882312997
-0.03370000000000006,-0.12494730200408004
-0.034700000000000175,-0.125272685603049
-0.035700000000000065,-0.1256405105410139
-0.03670000000000018,-0.125838570122995
-0.03770000000000007,-0.12672983824190998
-0.03870000000000018,-0.12733816410085197
-0.03970000000000007,-0.12739475255284655
-0.04070000000000018,-0.1278050188298074
-0.04170000000000007,-0.12767769481281957
-0.04270000000000018,-0.12835675623675477
-0.04370000000000007,-0.12916314167767784
-0.044700000000000184,-0.1294602310506495
-0.045700000000000074,-0.1296299964066333
-0.046700000000000186,-0.1299129386666063
-0.047700000000000076,-0.13077591255952398
-0.04870000000000019,-0.13142667975746194
-0.04970000000000008,-0.131907681599416
-0.05070000000000019,-0.13193597582541333
-0.05170000000000008,-0.13250186034535932
-0.05270000000000019,-0.1334921582552649
-0.05370000000000008,-0.13410048411420683
-0.05470000000000019,-0.13455319173016364
-0.05570000000000008,-0.13489272244213124
-0.056700000000000195,-0.1355010483010732
-0.057700000000000085,-0.13634987508099222
-0.058700000000000196,-0.13709967206992069
-0.059700000000000086,-0.13759482102487347
-0.0607000000000002,-0.1382738824488087
-0.06170000000000009,-0.13888220830775064
-0.0627000000000002,-0.14005641868663865
-0.06370000000000009,-0.14093353969255495
-0.0647000000000002,-0.14138624730851176
-0.06570000000000009,-0.14161260111649018
-0.0667000000000002,-0.1421784856364362
-0.0677000000000001,-0.1437346680662877
-0.0687000000000002,-0.14415908145624726
-0.0697000000000001,-0.14543232162612577
-0.07070000000000021,-0.14599820614607179
-0.0717000000000001,-0.14684703292599083
-0.07270000000000021,-0.14797880196588284
-0.0737000000000001,-0.14882762874580185
-0.07470000000000021,-0.1498179266557074
-0.0757000000000001,-0.15052528230563988
-0.07670000000000021,-0.15165705134553195
-0.0777000000000001,-0.15222293586547794
-0.07870000000000021,-0.15392058942531597
-0.0797000000000001,-0.1543450028152755
-0.08070000000000022,-0.155052358465208
-0.0817000000000001,-0.15604265637511353
-0.08270000000000022,-0.15717442541500556
-0.08370000000000011,-0.1583061944548976
-0.08470000000000022,-0.15901355010483012
-0.08570000000000011,-0.15972090575476264
-0.08670000000000022,-0.16113561705462764
-0.08770000000000011,-0.1622673860945197
-0.08870000000000022,-0.16354062626439822
-0.08970000000000011,-0.16424798191433077
-0.09070000000000022,-0.16509680869424978
-0.09170000000000011,-0.16622857773414182
-0.09270000000000023,-0.16736034677403386
-0.09370000000000012,-0.16849211581392587
-0.09470000000000023,-0.1697653559838044
-0.09570000000000012,-0.17047271163373692
-0.09670000000000023,-0.17132153841365594
-0.09770000000000012,-0.17245330745354798
-0.09870000000000023,-0.1734436053634535
-0.09970000000000012,-0.17443390327335903
-0.10070000000000023,-0.17528273005327805
-0.10170000000000012,-0.17655597022315658
-0.10270000000000024,-0.1782536237829946
-0.10370000000000013,-0.17867803717295414
-0.10470000000000024,-0.17952686395287318
-0.10570000000000013,-0.1805171618627787
-0.10670000000000024,-0.18193187316264373
-0.10770000000000013,-0.18306364220253574
-0.10870000000000024,-0.1843368823724143
-0.10970000000000013,-0.18532718028231981
-0.11070000000000024,-0.18631747819222533
-0.11170000000000013,-0.18688336271217135
-0.11270000000000002,-0.18872248740199588
-0.11370000000000013,-0.18971278531190142
-0.11470000000000002,-0.19042014096183393
-0.11570000000000014,-0.19141043887173945
-0.11670000000000003,-0.19254220791163149
-0.11770000000000014,-0.19381544808151
-0.11870000000000003,-0.19494721712140206
-0.11970000000000014,-0.19579604390132105
-0.12070000000000003,-0.19678634181122662
-0.12170000000000014,-0.19834252424107812
-0.12270000000000003,-0.19947429328097016
-0.12370000000000014,-0.2007475334508487
-0.12470000000000003,-0.20187930249074074
-0.12570000000000014,-0.20315254266061927
-0.12670000000000003,-0.2044257828304978
-0.12770000000000015,-0.20598196526034934
-0.12870000000000004,-0.20683079204026839
-0.12970000000000015,-0.2076796188201874
-0.13070000000000004,-0.20909433012005244
-0.13170000000000015,-0.21008462802995795
-0.13270000000000004,-0.2116408104598095
-0.13370000000000015,-0.21319699288966104
-0.13470000000000004,-0.21461170418952608
-0.13570000000000015,-0.2156020020994316
-0.13670000000000004,-0.21687524226931013
-0.13770000000000016,-0.21800701130920216
-0.13870000000000005,-0.2195631937390537
-0.13970000000000016,-0.22097790503891873
-0.14070000000000005,-0.22168526068885125
-0.14170000000000016,-0.2235243853786758
-0.14270000000000005,-0.22479762554855431
-0.14370000000000016,-0.22635380797840585
-0.14470000000000005,-0.2270611636283384
-0.14570000000000016,-0.22890028831816295
-0.14670000000000005,-0.23045647074801448
-0.14770000000000016,-0.231729710917893
-0.14870000000000005,-0.23342736447773108
-0.14970000000000017,-0.23526648916755558
-0.15070000000000006,-0.23639825820744764
-0.15170000000000017,-0.23781296950731265
-0.15270000000000006,-0.2395106230671507
-0.15370000000000017,-0.24106680549700227
-0.15470000000000006,-0.24248151679686727
-0.15570000000000017,-0.2443206414866918
-0.15670000000000006,-0.2460182950465299
-0.15770000000000017,-0.24757447747638137
-0.15870000000000006,-0.24969654442617895
-0.15970000000000018,-0.250828313466071
-0.16070000000000007,-0.252525967025909
-0.16170000000000018,-0.25450656284572004
-0.16270000000000007,-0.2560627452755716
-0.16370000000000018,-0.25790186996539616
-0.16470000000000007,-0.25988246578520724
-0.16570000000000018,-0.26129717708507233
-0.16670000000000007,-0.26327777290488336
-0.16770000000000018,-0.2653998398546809
-0.16870000000000007,-0.26723896454450546
-0.16970000000000018,-0.2692195603643165
-0.17070000000000007,-0.27120015618412757
-0.17170000000000019,-0.27303928087395213
-0.17270000000000008,-0.27530281895373615
-0.1737000000000002,-0.2765760591236147
-0.17470000000000008,-0.27898106833338526
-0.1757000000000002,-0.2806787218932233
-0.17670000000000008,-0.2826593177130343
-0.1777000000000002,-0.2852057980527914
-0.17870000000000008,-0.28704492274261595
-0.1797000000000002,-0.2888840474324405
-0.18070000000000008,-0.2914305277721975
-0.1817000000000002,-0.29369406585198166
-0.18270000000000008,-0.2962405461917387
-0.1837000000000002,-0.29850408427152275
-0.1847000000000001,-0.3009090934812933
-0.1857000000000002,-0.30303116043109085
-0.1867000000000001,-0.30529469851087493
-0.1877000000000002,-0.30826559224059147
-0.1887000000000001,-0.31095354371033507
-0.1897000000000002,-0.3136414951800786
-0.1907000000000001,-0.3161879755198357
-0.1917000000000001,-0.3194418115095253
-0.19269999999999998,-0.32297858975918786
-0.1937000000000001,-0.3260909546188909
-0.19469999999999998,-0.3290618483486075
-0.1957000000000001,-0.33217421320831064
-0.19669999999999999,-0.3354280491980002
-0.1977000000000001,-0.3386818851876898
-0.1987,-0.3419357211773794
-0.1997000000000001,-0.3450480860370824
-0.2007,-0.34915074880669106
-0.2017000000000001,-0.35268752705635364
-0.2027,-0.3565072475659892
-0.2037000000000001,-0.36018549694563834
-0.2047,-0.36343933293532793
-0.2057000000000001,-0.36740052457495004
-0.2067,-0.3715031873445586
-0.2077000000000001,-0.37617173463411324
-0.2087,-0.38013292627373535
-0.2097000000000001,-0.3835282333934114
-0.2107,-0.387347953903047
-0.2117000000000001,-0.3917335589326287
-0.2127,-0.39611916396221025
-0.2137000000000001,-0.40022182673181883
-0.2147,-0.404748902891387
-0.2157000000000001,-0.40941745018094167
-0.2167,-0.41366158408053677
-0.21770000000000012,-0.41776424685014535
-0.2187,-0.4218669096197539
-0.21970000000000012,-0.42554515899940304
-0.2207,-0.42978929289899814
-0.22170000000000012,-0.4338919556686068
-0.2227,-0.43827756069818835
-0.22370000000000012,-0.44167286781786447
-0.2247,-0.44619994397743257
-0.22570000000000012,-0.44973672222709515
-0.2267,-0.45398085612669026
-0.22770000000000012,-0.45808351889629884
-0.22870000000000001,-0.4613373548859885
-0.22970000000000013,-0.4641667774857185
-0.23070000000000002,-0.4672791423454216
-0.23170000000000013,-0.4708159205950842
-0.23270000000000002,-0.4740697565847738
-0.23370000000000013,-0.47746506370444985
-0.23470000000000002,-0.48015301517419345
-0.23570000000000013,-0.4832653800338965
-0.23670000000000002,-0.48567038924366707
-0.2376999999999999,-0.4886412829733836
-0.23870000000000002,-0.49189511896307325
-0.2396999999999999,-0.4941586570428573
-0.24070000000000003,-0.49727102190256034
-0.24169999999999991,-0.49967603111233094
-0.24270000000000003,-0.502222511452088
-0.24369999999999992,-0.5051934051818046
-0.24470000000000003,-0.5080228277815346
-0.24569999999999992,-0.5098619524713591
-0.24670000000000003,-0.5122669616811297
-0.24769999999999992,-0.5148134420208869
-0.24870000000000003,-0.5189161047904954
-0.24969999999999992,-0.5206137583503335
-0.25070000000000003,-0.5228772964301176
-0.2516999999999999,-0.5255652478998613
-0.25270000000000004,-0.5281117282396182
-0.2536999999999999,-0.5302337951894158
-0.25470000000000004,-0.5329217466591593
-0.2556999999999999,-0.5349023424789704
-0.25670000000000004,-0.537590293948714
-0.25769999999999993,-0.540419716548444
-0.25870000000000004,-0.5428247257582146
-0.25969999999999993,-0.5452297349679852
-0.26070000000000004,-0.5476347441777557
-0.26169999999999993,-0.5504641667774858
-0.26270000000000004,-0.5537180027671754
-0.26369999999999993,-0.5561230119769459
-0.26470000000000005,-0.558669492316703
-0.26569999999999994,-0.5613574437864466
-0.26670000000000005,-0.5643283375161632
-0.26769999999999994,-0.5672992312458797
-0.26870000000000005,-0.5701286538456097
-0.26969999999999994,-0.5726751341853669
-0.27070000000000005,-0.57578749904507
-0.27169999999999994,-0.5790413350347595
-0.27270000000000005,-0.582861055544395
-0.27369999999999994,-0.5855490070141387
-0.27470000000000006,-0.5875296028339497
-0.27569999999999995,-0.5903590254336798
-0.27670000000000006,-0.5934713902933829
-0.27769999999999995,-0.597432581933005
-0.27870000000000006,-0.6004034756627216
-0.27969999999999995,-0.6040817250423707
-0.28070000000000006,-0.6083258589419658
-0.28169999999999995,-0.6101649836317904
-0.28270000000000006,-0.6132773484914934
-0.28369999999999995,-0.6161067710912235
-0.28470000000000006,-0.619926491600859
-0.28569999999999995,-0.6237462121104946
-0.28670000000000007,-0.6285562305300357
-0.28769999999999996,-0.6322344799096848
-0.28870000000000007,-0.637044498329226
-0.28969999999999996,-0.6415715744887941
-0.29070000000000007,-0.6456742372584027
-0.29169999999999996,-0.6507671979379168
-0.29270000000000007,-0.6545869184475525
-0.29369999999999996,-0.6595384079970801
-0.2947000000000001,-0.6642069552866348
-0.29569999999999996,-0.6683096180562434
-0.2967000000000001,-0.672978165345798
-0.29769999999999996,-0.6784955394152716
-0.2987000000000001,-0.6828811444448531
-0.29969999999999997,-0.6885399896443134
-0.3007000000000001,-0.6941988348437735
-0.30169999999999997,-0.6981600264833956
-0.3027000000000001,-0.7039603428128423
-0.30369999999999997,-0.7094777168823159
-0.3047000000000001,-0.7151365620817761
-0.30569999999999997,-0.7203709938912767
-0.3067000000000001,-0.7263127813507099
-0.3077,-0.7329619244600755
-0.3087000000000001,-0.7400354809594006
-0.3097,-0.7461187395488204
-0.3107000000000001,-0.754465536218024
-0.3117,-0.7628123328872277
-0.3127000000000001,-0.7711591295564314
-0.3137,-0.7779497437957836
-0.3147000000000001,-0.7865794827249604
-0.3157,-0.7952092216541371
-0.3167000000000001,-0.8041219028432868
-0.3177,-0.809497805782774
-0.3187000000000001,-0.8167128334120857
-0.3197,-0.8230790342614784
-0.3207000000000001,-0.832840542230547
-0.3217,-0.8452900016693595
-0.3227000000000001,-0.8574565188481987
-0.3237,-0.8689156803771056
-0.3247000000000001,-0.8800918996460394
-0.3257,-0.8899948787450946
-0.3267000000000001,-0.9018784536639609
-0.3277,-0.9116399616330296
-0.3287000000000001,-0.9180061624824223
-0.3297,-0.9259285457616666
-0.3307000000000001,-0.9339924001708971
-0.3317,-0.9451686194398311
-0.3327000000000001,-0.9554960119288457
-0.3337,-0.9685113558876042
-0.3347000000000001,-0.9823755266262814
-0.3357,-0.9975129375348374
-0.3367000000000001,-1.0130747618333529
-0.3377,-1.027221874832003
-0.3387000000000001,-1.0413689878306533
-0.3397,-1.0538184472694658
-0.3407000000000001,-1.065702022188332
-0.3417,-1.0787173661470904
-0.3427000000000001,-1.0949865460955384
-0.3437,-1.1113971971739727
-0.3447000000000001,-1.1293640306822588
-0.3457,-1.1461990951506527
-0.3467000000000001,-1.1640244575289522
-0.3477,-1.1832645312071168
-0.3487000000000001,-1.2022216626253082
-0.3497,-1.2220276208234186
-0.3507000000000001,-1.2438141748413403
-0.3517,-1.2648933732093293
-0.3527000000000001,-1.2854066870573722
-0.3537,-1.3052126452554829
-0.3547000000000001,-1.3247356611936203
-0.3557,-1.34821986877138
-0.35670000000000013,-1.3742505566888967
-0.3577,-1.3998568312164539
-0.35870000000000013,-1.426028990263957
-0.3597,-1.4543232162612578
-0.36070000000000013,-1.4826174422585585
-0.3617,-1.512326379555724
-0.3626999999999999,-1.546279450752485
-0.3637,-1.5816472332491107
-0.3646999999999999,-1.6184297270456018
-0.3657,-1.6509680869424979
-0.3666999999999999,-1.6792623129397986
-0.3677,-1.7174595180361545
-0.3686999999999999,-1.7599008570321055
-0.36970000000000003,-1.8023421960280568
-0.3706999999999999,-1.8461982463238729
-0.37170000000000003,-1.892883719219419
-0.3726999999999999,-1.9310809243157752
-0.37370000000000003,-1.9735222633117262
-0.3746999999999999,-2.0159636023076772
-0.37570000000000003,-2.0598196526034935
-0.3766999999999999,-2.1079198367989047
-0.37770000000000004,-2.1574347322941807
-0.3786999999999999,-2.204120205189727
-0.37970000000000004,-2.250805678085273
-0.3806999999999999,-2.298905862280684
-0.38170000000000004,-2.351250180375691
-0.38269999999999993,-2.4106680549700226
-0.38370000000000004,-2.464427084364894
-0.38469999999999993,-2.5196008250596305
-0.38570000000000004,-2.5804334109538267
-0.38669999999999993,-2.5691157205549064
-0.38570000000000004,-2.4700859295643536
-0.38469999999999993,-2.3696414272739363
-0.38370000000000004,-2.272026347583249
-0.38269999999999993,-2.1729965565926963
-0.38170000000000004,-2.076796188201874
-0.3806999999999999,-1.993328221509837
-0.37970000000000004,-1.9169338113171246
-0.3786999999999999,-1.8433688237241426
-0.37770000000000004,-1.768389124831296
-0.3766999999999999,-1.696238848538179
-0.37570000000000003,-1.6283327061446573
-0.3746999999999999,-1.5660854089505953
-0.37370000000000003,-1.499593977856939
-0.3726999999999999,-1.4359319693630124
-0.37170000000000003,-1.3755237968587752
-0.3706999999999999,-1.3220477097238768
-0.36970000000000003,-1.2668739690291404
-0.3686999999999999,-1.212549055114323
-0.3677,-1.1602047370193165
-0.3666999999999999,-1.1108313126540268
-0.3657,-1.065702022188332
-0.3646999999999999,-1.022411856412462
-0.3637,-0.980536401936457
-0.3626999999999999,-0.9403586010202899
-0.3617,-0.9013125691440148
-0.36070000000000013,-0.8624080083977264
-0.3597,-0.8259084568612085
-0.35870000000000013,-0.791530972274488
-0.3577,-0.7577193722077137
-0.35670000000000013,-0.7282933771705209
-0.3557,-0.6985844398733552
-0.3547000000000001,-0.6704316850060409
-0.3537,-0.6425618723986997
-0.3527000000000001,-0.6158238288312504
-0.3517,-0.5903590254336798
-0.3507000000000001,-0.5657430488160282
-0.3497,-0.5416929567183226
-0.3487000000000001,-0.5200478738303875
-0.3477,-0.49896867546239837
-0.3467000000000001,-0.47916271726428794
-0.3457,-0.46034705697608286
-0.3447000000000001,-0.44153139668787794
-0.3437,-0.4242719188295245
-0.3427000000000001,-0.4081442100110631
-0.3417,-0.39272385684253414
-0.3407000000000001,-0.3773035036740053
-0.3397,-0.3610343237255574
-0.3387000000000001,-0.3464627973369475
-0.3377,-0.3335889245081756
-0.3367000000000001,-0.3205735805494173
-0.3357,-0.308690005630551
-0.3347000000000001,-0.29680643071168467
-0.3337,-0.2854887403127644
-0.3327000000000001,-0.27473693443379016
-0.3317,-0.2649754264647214
-0.3307000000000001,-0.2552139184956526
-0.3297,-0.24545241052658387
-0.3287000000000001,-0.23625678707746112
-0.3277,-0.2279099904082574
-0.3267000000000001,-0.2206949627789457
-0.3257,-0.21319699288966104
-0.3247000000000001,-0.20527460961041682
-0.3237,-0.1976351685911456
-0.3227000000000001,-0.19070308322180693
-0.3217,-0.1846198246323873
-0.3207000000000001,-0.17881950830294063
-0.3197,-0.172736249713521
-0.3187000000000001,-0.1666529911241013
-0.3177,-0.16127708818461417
-0.3167000000000001,-0.15575971411514053
-0.3157,-0.1509496956955994
-0.3147000000000001,-0.14684703292599083
-0.3137,-0.14161260111649018
-0.3127000000000001,-0.13714211340891666
-0.3117,-0.13303945063930803
-0.3107000000000001,-0.12979976176261712
-0.3097,-0.1263195719649491
-0.3087000000000001,-0.12238667455132432
-0.3077,-0.11914698567463339
-0.3067000000000001,-0.11606291504092761
-0.30569999999999997,-0.11245540122627176
-0.3047000000000001,-0.10859323937764022
-0.30369999999999997,-0.10543843317894118
-0.3027000000000001,-0.10249583367522191
-0.30169999999999997,-0.09934102747652288
-0.3007000000000001,-0.09723310763972397
-0.29969999999999997,-0.0940641543280263
-0.2987000000000001,-0.09114984905030431
-0.29769999999999996,-0.08844775046756209
-0.2967000000000001,-0.08604274125779153
-0.29569999999999996,-0.08362358493502231
-0.2947000000000001,-0.08133175262924096
-0.29369999999999996,-0.07841744735151898
-0.29270000000000007,-0.07599829102874978
-0.29169999999999996,-0.07366401738397246
-0.29070000000000007,-0.07209368784112226
-0.28969999999999996,-0.06998576800432338
-0.28870000000000007,-0.06765149435954605
-0.28769999999999996,-0.06531722071476874
-0.28670000000000007,-0.06318100665197254
-0.28569999999999995,-0.06101649836317903
-0.28470000000000006,-0.058767107396393625
-0.28369999999999995,-0.05646112797761362
-0.28270000000000006,-0.05523032914673103
-0.28169999999999995,-0.054169295671832256
-0.28070000000000006,-0.052245288304015806
-0.27969999999999995,-0.05050519340518181
-0.27870000000000006,-0.04852459758537076
