Potential V vs RHE, Current mA cm-2
0.05339999999999995,0.1512326379555724
0.05239999999999995,0.09639842797280361
0.051399999999999946,0.05405611876784306
0.050399999999999945,0.029171347003217055
0.049399999999999944,0.010731999920776168
0.04839999999999994,-0.0054324913914817405
0.04739999999999994,-0.020103047571082173
0.04639999999999994,-0.033542804919800016
0.04539999999999994,-0.04712403339850437
0.04439999999999994,-0.0596300812893113
0.04339999999999994,-0.0717117157901587
0.04239999999999994,-0.08370846761301422
0.04139999999999994,-0.09504030512493315
0.040399999999999936,-0.10621652439386696
0.039399999999999935,-0.11749177345379128
0.038399999999999934,-0.12859725715773185
0.03739999999999993,-0.13879732562975874
0.03639999999999993,-0.14911057100577488
0.03539999999999993,-0.15901355010483012
0.03439999999999993,-0.16877505807389886
0.03339999999999993,-0.1782536237829946
0.03239999999999993,-0.18773218949209036
0.03139999999999993,-0.1973522263311726
0.030399999999999927,-0.2065478497802954
0.029399999999999926,-0.2156020020994316
0.028399999999999925,-0.2242317410286083
0.027399999999999924,-0.23314442221775805
0.026399999999999924,-0.2420571034069078
0.025399999999999923,-0.250545371206098
0.024399999999999922,-0.25903363900528825
0.02339999999999992,-0.26723896454450546
0.02239999999999992,-0.2754442900837227
0.02139999999999992,-0.28379108675292636
0.020399999999999918,-0.2917134700321706
0.019399999999999917,-0.29949438218142826
0.018399999999999916,-0.30755823659065895
0.017399999999999916,-0.31505620647994365
0.016399999999999915,-0.32269564749921487
0.015399999999999914,-0.3306180307784591
0.014399999999999913,-0.3379745295377573
0.013399999999999912,-0.345755441687015
0.012399999999999911,-0.35311194044631317
0.01139999999999991,-0.3603269680756248
0.01039999999999991,-0.3678249379649095
0.009399999999999908,-0.3747570233342482
0.008399999999999908,-0.38197205096355985
0.007399999999999907,-0.38918707859287155
0.006399999999999906,-0.3956947505722508
0.005399999999999905,-0.40290977820156243
0.004399999999999904,-0.40970039244091466
0.003399999999999903,-0.4164910066802668
0.002399999999999902,-0.4234230920496055
0.0013999999999999013,-0.43007223515897114
0.00039999999999990044,-0.4370043205283098
-0.0006000000000001005,-0.4436534636376755
-0.0016000000000001013,-0.4500196644870682
-0.0026000000000001022,-0.45681027872642027
-0.003600000000000103,-0.463459421835786
-0.004600000000000104,-0.4698256226851787
-0.005600000000000105,-0.47661623692453087
-0.006600000000000106,-0.4826994955139505
-0.007600000000000107,-0.4890656963633432
-0.008600000000000108,-0.4957148394727089
-0.009600000000000108,-0.5017980980621284
-0.01060000000000011,-0.5081642989115212
-0.01160000000000011,-0.5145304997609139
-0.012600000000000111,-0.521321114000266
-0.013600000000000112,-0.5275458437196722
-0.014600000000000113,-0.533346160049119
-0.015600000000000114,-0.539287947508552
-0.016600000000000115,-0.5455126772279582
-0.017600000000000116,-0.5515959358173778
-0.018600000000000116,-0.557820665536784
-0.019600000000000117,-0.5637624529962171
-0.020600000000000118,-0.5697042404556503
-0.02160000000000012,-0.57578749904507
-0.02260000000000012,-0.5814463442445301
-0.02360000000000012,-0.5875296028339497
-0.024600000000000122,-0.5937543325533559
-0.025600000000000123,-0.5992717066228296
-0.026600000000000124,-0.6049305518222896
-0.027600000000000124,-0.6110138104117093
-0.028600000000000125,-0.6163897133511964
-0.029600000000000126,-0.6220485585506567
-0.030600000000000127,-0.6277074037501167
-0.03160000000000013,-0.6333662489495769
-0.03260000000000013,-0.6391665652790235
-0.03360000000000013,-0.6442595259585376
-0.03460000000000002,-0.6499183711579978
-0.03560000000000002,-0.6554357452274714
-0.03660000000000002,-0.6608116481669587
-0.03760000000000002,-0.6663290222364323
-0.03860000000000002,-0.6715634540459329
-0.039600000000000024,-0.6769393569854201
-0.040600000000000025,-0.6820323176649342
-0.041600000000000026,-0.6869838072144618
-0.04260000000000003,-0.692359710153949
-0.04360000000000003,-0.6973111997034765
-0.04460000000000003,-0.7022626892530042
-0.04560000000000003,-0.7072141788025319
-0.04660000000000003,-0.7118827260920865
-0.04760000000000003,-0.7168342156416141
-0.04860000000000003,-0.7215027629311687
-0.04960000000000003,-0.7260298390907369
-0.050600000000000034,-0.7306983863802915
-0.051600000000000035,-0.735083991409873
-0.052600000000000036,-0.7394695964394546
-0.053600000000000037,-0.7439966725990228
-0.05460000000000004,-0.7480993353686314
-0.05560000000000004,-0.75220199813824
-0.05660000000000004,-0.7563046609078485
-0.05760000000000004,-0.7601243814174842
-0.05860000000000004,-0.7642270441870929
-0.05960000000000004,-0.7680467646967284
-0.06060000000000004,-0.7717250140763775
-0.061600000000000044,-0.7754032634560265
-0.06260000000000004,-0.7787985705757027
-0.06360000000000005,-0.7824768199553517
-0.06460000000000005,-0.7860135982050144
-0.06560000000000005,-0.788984491934731
-0.06660000000000005,-0.792096856794434
-0.06760000000000005,-0.7950677505241506
-0.06860000000000005,-0.7980386442538671
-0.06960000000000005,-0.8011510091135702
-0.07060000000000005,-0.8035560183233408
-0.07160000000000005,-0.8062439697930843
-0.07260000000000005,-0.8087904501328415
-0.07360000000000005,-0.8113369304725986
-0.07460000000000006,-0.8137419396823691
-0.07560000000000006,-0.8160054777621532
-0.07660000000000006,-0.8181275447119508
-0.07760000000000006,-0.8201081405317618
-0.07860000000000006,-0.8219472652215865
-0.07960000000000006,-0.823786389911411
-0.08060000000000006,-0.8256255146012355
-0.08160000000000006,-0.82746463929106
-0.08260000000000006,-0.8290208217209115
-0.08360000000000006,-0.8302940618907901
-0.08460000000000006,-0.8315673020606686
-0.08560000000000006,-0.8331234844905201
-0.08660000000000007,-0.8341137824004257
-0.08760000000000007,-0.8352455514403176
-0.08860000000000007,-0.8365187916101962
-0.08960000000000007,-0.8372261472601288
-0.09060000000000007,-0.8382164451700342
-0.09160000000000007,-0.8387823296899803
-0.09260000000000007,-0.8393482142099263
-0.09360000000000007,-0.8400555698598587
-0.09460000000000007,-0.8406214543798047
-0.09560000000000007,-0.8410458677697643
-0.09660000000000007,-0.8414702811597239
-0.09760000000000008,-0.8416117522897104
-0.09860000000000008,-0.8420361656796699
-0.09960000000000008,-0.8420361656796699
-0.10060000000000008,-0.8421776368096564
-0.10160000000000008,-0.8424605790696293
-0.10260000000000008,-0.8421776368096564
-0.10360000000000008,-0.8423191079396429
-0.10460000000000008,-0.8423191079396429
-0.10560000000000008,-0.8420361656796699
-0.10660000000000008,-0.8418946945496834
-0.10760000000000008,-0.8416117522897104
-0.10860000000000009,-0.841187338899751
-0.10960000000000009,-0.8409043966397778
-0.11060000000000009,-0.8404799832498183
-0.11160000000000009,-0.8400555698598587
-0.11260000000000009,-0.8399140987298723
-0.11360000000000009,-0.8394896853399128
-0.11460000000000009,-0.8393482142099263
-0.11560000000000009,-0.8390652719499533
-0.11660000000000009,-0.8380749740400478
-0.1176000000000001,-0.8373676183901153
-0.1186000000000001,-0.8365187916101962
-0.1196000000000001,-0.8359529070902502
-0.1206000000000001,-0.8353870225703042
-0.1216000000000001,-0.8343967246603987
-0.1226000000000001,-0.8339723112704392
-0.1236000000000001,-0.8332649556205066
-0.1246000000000001,-0.832274657710601
-0.1256000000000001,-0.8317087731906551
-0.1266000000000001,-0.8310014175407225
-0.1276000000000001,-0.8301525907608036
-0.1286000000000001,-0.829445235110871
-0.1296000000000001,-0.8287378794609385
-0.1306000000000001,-0.828030523811006
-0.1316000000000001,-0.827181697031087
-0.1326000000000001,-0.826332870251168
-0.1336000000000001,-0.825766985731222
-0.1346000000000001,-0.8247766878213164
-0.1356000000000001,-0.8240693321713839
-0.1366000000000001,-0.8233619765214514
-0.1376000000000001,-0.8223716786115459
-0.1386000000000001,-0.8219472652215865
-0.1396000000000001,-0.8212399095716538
-0.1406000000000001,-0.8205325539217213
-0.14160000000000011,-0.8199666694017753
-0.14260000000000012,-0.8191178426218563
-0.14360000000000012,-0.8185519581019103
-0.14460000000000012,-0.8178446024519777
-0.14560000000000012,-0.8171372468020451
-0.14660000000000012,-0.8165713622820991
-0.14760000000000012,-0.8158640066321667
-0.14860000000000012,-0.8151566509822342
-0.14960000000000012,-0.8145907664622882
-0.15060000000000012,-0.8137419396823691
-0.15160000000000012,-0.813458997422396
-0.15260000000000012,-0.8131760551624231
-0.15360000000000013,-0.8126101706424771
-0.15460000000000013,-0.8121857572525175
-0.15560000000000013,-0.811761343862558
-0.15660000000000013,-0.810912517082639
-0.15760000000000013,-0.8107710459526526
-0.15860000000000013,-0.810346632562693
-0.15960000000000002,-0.8099222191727334
-0.16060000000000002,-0.809497805782774
-0.16160000000000002,-0.8090733923928144
-0.16260000000000002,-0.8090733923928144
-0.16360000000000002,-0.8086489790028549
-0.16460000000000002,-0.808366036742882
-0.16560000000000002,-0.8086489790028549
-0.16660000000000003,-0.8097807480427469
-0.16760000000000003,-0.8086489790028549
-0.16860000000000003,-0.8082245656128955
-0.16960000000000003,-0.8076586810929495
-0.17060000000000003,-0.8076586810929495
-0.17160000000000003,-0.8073757388329764
-0.17260000000000003,-0.8073757388329764
-0.17360000000000003,-0.8076586810929495
-0.17460000000000003,-0.8073757388329764
-0.17560000000000003,-0.807517209962963
-0.17660000000000003,-0.807517209962963
-0.17760000000000004,-0.8073757388329764
-0.17860000000000004,-0.8078001522229359
-0.17960000000000004,-0.8078001522229359
-0.18060000000000004,-0.8078001522229359
-0.18160000000000004,-0.8082245656128955
-0.18260000000000004,-0.8080830944829089
-0.18360000000000004,-0.8085075078728684
-0.18460000000000004,-0.8086489790028549
-0.18560000000000004,-0.808931921262828
-0.18660000000000004,-0.809497805782774
-0.18760000000000004,-0.8096392769127605
-0.18860000000000005,-0.8102051614327065
-0.18960000000000005,-0.8107710459526526
-0.19060000000000005,-0.8110539882126255
-0.19160000000000005,-0.8114784016025851
-0.19260000000000005,-0.8119028149925446
-0.19360000000000005,-0.8124686995124906
-0.19460000000000005,-0.8130345840324366
-0.19560000000000005,-0.813458997422396
-0.19660000000000005,-0.8140248819423421
-0.19760000000000005,-0.8150151798522477
-0.19860000000000005,-0.8155810643721937
-0.19960000000000006,-0.8162884200221262
-0.20060000000000006,-0.8169957756720587
-0.20160000000000006,-0.8174201890620182
-0.20260000000000006,-0.8184104869719238
-0.20360000000000006,-0.8194007848818293
-0.20460000000000006,-0.8201081405317618
-0.20560000000000006,-0.8210984384416673
-0.20660000000000006,-0.8218057940915999
-0.20760000000000006,-0.8227960920015054
-0.20860000000000006,-0.8239278610413974
-0.20960000000000006,-0.8246352166913299
-0.21060000000000006,-0.8259084568612085
-0.21160000000000007,-0.8270402259011005
-0.21260000000000007,-0.828030523811006
-0.21360000000000007,-0.829162292850898
-0.21460000000000007,-0.8301525907608036
-0.21560000000000007,-0.8315673020606686
-0.21660000000000007,-0.8326990711005606
-0.21760000000000007,-0.8342552535304122
-0.21860000000000007,-0.8356699648302772
-0.21960000000000007,-0.8366602627401827
-0.22060000000000007,-0.8379335029100613
-0.22160000000000007,-0.8394896853399128
-0.22260000000000008,-0.8404799832498183
-0.22360000000000008,-0.8420361656796699
-0.22460000000000008,-0.8433094058495484
-0.22560000000000008,-0.8445826460194269
-0.22660000000000008,-0.8461388284492785
-0.22760000000000008,-0.84769501087913
-0.22860000000000008,-0.8492511933089816
-0.22960000000000008,-0.8510903179988061
-0.23060000000000008,-0.8525050292986711
-0.23160000000000008,-0.8539197405985361
-0.23260000000000008,-0.8557588652883606
-0.23360000000000009,-0.8574565188481987
-0.2346000000000001,-0.8592956435380232
-0.2356000000000001,-0.8611347682278478
-0.2366000000000001,-0.8626909506576994
-0.2376000000000001,-0.8648130176074971
-0.2386000000000001,-0.8665106711673349
-0.2396000000000001,-0.8683497958571595
-0.2406000000000001,-0.8703303916769705
-0.2416000000000001,-0.8720280452368087
-0.2426000000000001,-0.8740086410566196
-0.2436000000000001,-0.8761307080064172
-0.2446000000000001,-0.8779698326962417
-0.2456000000000001,-0.8800918996460394
-0.2466000000000001,-0.8820724954658503
-0.2476000000000001,-0.8840530912856616
-0.2486000000000001,-0.8863166293654455
-0.2496000000000001,-0.8882972251852566
-0.2506000000000001,-0.8905607632650405
-0.2516000000000001,-0.8926828302148382
-0.2526000000000001,-0.8948048971646357
-0.2536000000000001,-0.8972099063744062
-0.2546000000000001,-0.8991905021942173
-0.2556000000000001,-0.9017369825339743
-0.2566000000000001,-0.9040005206137584
-0.2576000000000001,-0.9061225875635559
-0.2586000000000001,-0.908669067903313
-0.2596000000000001,-0.9110740771130835
-0.2606000000000001,-0.9131961440628811
-0.2616000000000001,-0.9157426244026382
-0.2626000000000001,-0.9181476336124089
-0.2636000000000001,-0.9206941139521657
-0.2646000000000001,-0.92295765203195
-0.2656000000000001,-0.925221190111734
-0.2666000000000001,-0.9279091415814775
-0.2676000000000001,-0.930314150791248
-0.2686000000000001,-0.9327191600010186
-0.2696000000000001,-0.9355485826007488
-0.2706000000000001,-0.9376706495505462
-0.2716000000000001,-0.9402171298903033
-0.2726000000000001,-0.9429050813600469
-0.2736000000000001,-0.9454515616998039
-0.2746000000000001,-0.9481395131695476
-0.2756000000000001,-0.9506859935093046
-0.2766000000000001,-0.9530910027190752
-0.2776000000000001,-0.9557789541888188
-0.2786000000000001,-0.9583254345285759
-0.2796000000000001,-0.9607304437383465
-0.2806000000000001,-0.9635598663380764
-0.28160000000000013,-0.9661063466778336
-0.28260000000000013,-0.9687942981475771
-0.28360000000000013,-0.9714822496173208
-0.2846,-0.9738872588270913
-0.2856,-0.9767166814268213
-0.2866,-0.9791216906365918
-0.2876,-0.981951113236322
-0.2886,-0.9846390647060654
-0.2896,-0.9871855450458225
-0.2906,-0.9900149676455526
-0.2916,-0.9925614479853098
-0.2926,-0.9949664571950803
-0.2936,-0.9979373509247967
-0.29460000000000003,-1.0006253023945404
-0.29560000000000003,-1.003313253864284
-0.29660000000000003,-1.0060012053340277
-0.29760000000000003,-1.0085476856737847
-0.29860000000000003,-1.0113771082735146
-0.29960000000000003,-1.0139235886132718
-0.30060000000000003,-1.0164700689530288
-0.30160000000000003,-1.019299491552759
-0.30260000000000004,-1.0217045007625294
-0.30360000000000004,-1.0243924522322732
-0.30460000000000004,-1.027221874832003
-0.30560000000000004,-1.0297683551717602
-0.30660000000000004,-1.0323148355115173
-0.30760000000000004,-1.0350027869812608
-0.30860000000000004,-1.0374077961910315
-0.30960000000000004,-1.040378689920748
-0.31060000000000004,-1.042642228000532
-0.31160000000000004,-1.0453301794702756
-0.31260000000000004,-1.0480181309400192
-0.31360000000000005,-1.0504231401497897
-0.31460000000000005,-1.0531110916195334
-0.31560000000000005,-1.0556575719592904
-0.31660000000000005,-1.0580625811690607
-0.31760000000000005,-1.060892003768791
-0.31860000000000005,-1.063155541848575
-0.31960000000000005,-1.0661264355782916
-0.32060000000000005,-1.068814387048035
-0.32160000000000005,-1.0707949828678462
-0.32260000000000005,-1.0733414632076033
-0.32360000000000005,-1.075746472417374
-0.32460000000000006,-1.0781514816271445
-0.32560000000000006,-1.080839433096888
-0.32660000000000006,-1.0832444423066585
-0.32760000000000006,-1.0856494515164292
-0.32860000000000006,-1.0879129895962132
-0.32960000000000006,-1.0901765276759974
-0.33060000000000006,-1.0928644791457407
-0.33160000000000006,-1.0952694883555114
-0.33260000000000006,-1.0975330264352956
-0.33360000000000006,-1.099938035645066
-0.33460000000000006,-1.10220157372485
-0.33560000000000006,-1.1046065829346206
-0.33660000000000007,-1.1071530632743778
-0.33760000000000007,-1.1094166013541618
-0.33860000000000007,-1.1116801394339457
-0.33960000000000007,-1.11394367751373
-0.34060000000000007,-1.1160657444635274
-0.34160000000000007,-1.1186122248032844
-0.34260000000000007,-1.1208757628830686
-0.34360000000000007,-1.1232807720928393
-0.3446000000000001,-1.1256857813026095
-0.3456000000000001,-1.1273834348624476
-0.3466000000000001,-1.1297884440722183
-0.34759999999999996,-1.1321934532819888
-0.3486000000000001,-1.1341740491017998
-0.34959999999999997,-1.1365790583115707
-0.3506000000000001,-1.1384181830013949
-0.35159999999999997,-1.1408231922111656
-0.3526000000000001,-1.1430867302909495
-0.35359999999999997,-1.1450673261107607
-0.3546000000000001,-1.1473308641905449
-0.35559999999999997,-1.1491699888803693
-0.3566000000000001,-1.1514335269601534
-0.3576,-1.1536970650399374
-0.3586000000000001,-1.1553947185997753
-0.3596,-1.1576582566795592
-0.3606000000000001,-1.1599217947593436
-0.3616,-1.1616194483191815
-0.3626000000000001,-1.1638829863989655
-0.3636,-1.1660050533487631
-0.3646000000000001,-1.1678441780385878
-0.3656,-1.169824773858399
-0.3666000000000001,-1.1718053696782098
-0.3676,-1.174068907757994
-0.3686000000000001,-1.176049503577805
-0.3696,-1.177747157137643
-0.3706000000000001,-1.180010695217427
-0.3716,-1.1821327621672248
-0.3726000000000001,-1.1839718868570492
-0.3736,-1.1859524826768604
-0.3746000000000001,-1.1876501362366982
-0.3756,-1.189772203186496
-0.3766000000000001,-1.191752799006307
-0.3776,-1.193733394826118
-0.3786000000000001,-1.1957139906459289
-0.3796,-1.1976945864657402
-0.3806000000000001,-1.1996751822855511
-0.3816,-1.2015143069753758
-0.3826000000000001,-1.2036363739251732
-0.3836,-1.2058999120049574
-0.3846000000000001,-1.207739036694782
-0.3856,-1.2094366902546199
-0.3866000000000001,-1.2117002283344038
-0.3876,-1.2138222952842015
-0.3886000000000001,-1.2159443622339992
-0.3896,-1.2182079003137831
-0.3906000000000001,-1.2200470250036075
-0.3916,-1.2223105630833917
-0.3926000000000001,-1.2245741011631757
-0.3936,-1.2265546969829868
-0.3946000000000001,-1.2291011773227438
-0.3956,-1.2313647154025278
-0.3966000000000001,-1.233628253482312
-0.3976,-1.2360332626920827
-0.3986000000000001,-1.2381553296418801
-0.3996,-1.2402773965916778
-0.4006000000000001,-1.2431068191914076
-0.4016,-1.2453703572711918
-0.4026000000000001,-1.248199779870922
-0.4036,-1.2506047890806922
-0.4046000000000001,-1.2531512694204494
-0.4056,-1.2559806920201795
-0.40660000000000013,-1.2585271723599365
-0.4076,-1.2614980660896533
-0.40860000000000013,-1.2644689598193697
-0.4096,-1.2671569112891135
-0.41060000000000013,-1.2704107472788029
-0.4116,-1.2733816410085195
-0.41260000000000013,-1.276352534738236
-0.4136,-1.2796063707279257
-0.41460000000000014,-1.2825772644576423
-0.4156,-1.2859725715773183
-0.41660000000000014,-1.289509349826981
-0.4176,-1.2927631858166704
-0.41860000000000014,-1.2964414351963194
-0.41960000000000003,-1.3001196845759686
-0.42060000000000014,-1.3037979339556176
-0.42160000000000003,-1.3079005967252264
-0.42260000000000014,-1.312569144014781
-0.42360000000000003,-1.31624739339443
-0.42460000000000014,-1.3203500561640389
-0.42560000000000003,-1.324311247803661
-0.42660000000000015,-1.328555381703256
-0.42760000000000004,-1.3329409867328375
-0.42860000000000015,-1.3374680628924058
-0.42960000000000004,-1.3422780813119468
-0.43060000000000015,-1.3469466286015015
-0.43160000000000004,-1.3517566470210427
-0.43260000000000015,-1.3569910788305433
-0.43360000000000004,-1.3619425683800708
-0.43460000000000015,-1.3674599424495446
-0.43560000000000004,-1.3728358453890317
-0.43660000000000015,-1.3780702771985323
-0.43760000000000004,-1.3837291223979924
-0.43860000000000016,-1.3893879675974525
-0.43960000000000005,-1.3953297550568855
-0.44060000000000016,-1.4012715425163187
-0.44160000000000005,-1.4073548011057386
-0.44260000000000016,-1.4138624730851177
-0.44360000000000005,-1.420370145064497
-0.44460000000000016,-1.426028990263957
-0.44560000000000005,-1.433102546763282
-0.44660000000000016,-1.4401761032626073
-0.44760000000000005,-1.4472496597619326
-0.44860000000000017,-1.4571526388609877
