Apr. 4, 2025   05:55:59
Cyclic Voltammetry
File: c:/users/guazh/data/banditlqround7_x0exp518_r20/2025-03-28-exp1037\exp1037-2025-04-04t05_47_27-arkoh\exp1037_cv_50mvs_efin_-1500mv.bin
Data Source:  Experiment
Instrument Model:  CHI760E
Header: CV ran at 50 mVs
Note: 

Init E (V) = -1
High E (V) = -1
Low E (V) = -1.5
Final E (V) = -1
Init P/N = N
Scan Rate (V/s) = 0.05
Segment = 7
Sample Interval (V) = 0.001
Quiet Time (sec) = 60
Sensitivity (A/V) = 0.001
Comp R (ohm) = 1.6

Results:

Channel 1:
Segment 1:

Segment 2:

Segment 3:

Segment 4:

Segment 5:

Segment 6:

Segment 7:

Potential/V, Current/A

-1.000, 2.175e-5
-1.001, 4.755e-5
-1.002, 5.698e-5
-1.003, 6.214e-5
-1.004, 6.663e-5
-1.005, 6.869e-5
-1.006, 6.998e-5
-1.007, 7.191e-5
-1.008, 7.285e-5
-1.009, 7.515e-5
-1.010, 7.624e-5
-1.011, 7.650e-5
-1.012, 7.756e-5
-1.013, 7.853e-5
-1.014, 8.043e-5
-1.015, 8.119e-5
-1.016, 8.154e-5
-1.017, 8.236e-5
-1.018, 8.338e-5
-1.019, 8.479e-5
-1.020, 8.596e-5
-1.021, 8.597e-5
-1.022, 8.698e-5
-1.023, 8.809e-5
-1.024, 9.012e-5
-1.025, 9.077e-5
-1.026, 9.119e-5
-1.027, 9.180e-5
-1.028, 9.284e-5
-1.029, 9.483e-5
-1.030, 9.637e-5
-1.031, 9.551e-5
-1.032, 9.775e-5
-1.033, 9.783e-5
-1.034, 1.004e-4
-1.035, 1.013e-4
-1.036, 1.011e-4
-1.037, 1.031e-4
-1.038, 1.037e-4
-1.039, 1.057e-4
-1.040, 1.068e-4
-1.041, 1.073e-4
-1.042, 1.082e-4
-1.043, 1.094e-4
-1.044, 1.115e-4
-1.045, 1.121e-4
-1.046, 1.128e-4
-1.047, 1.134e-4
-1.048, 1.149e-4
-1.049, 1.162e-4
-1.050, 1.179e-4
-1.051, 1.175e-4
-1.052, 1.190e-4
-1.053, 1.199e-4
-1.054, 1.209e-4
-1.055, 1.228e-4
-1.056, 1.225e-4
-1.057, 1.227e-4
-1.058, 1.246e-4
-1.059, 1.252e-4
-1.060, 1.267e-4
-1.061, 1.264e-4
-1.062, 1.271e-4
-1.063, 1.283e-4
-1.064, 1.288e-4
-1.065, 1.298e-4
-1.066, 1.304e-4
-1.067, 1.294e-4
-1.068, 1.313e-4
-1.069, 1.320e-4
-1.070, 1.330e-4
-1.071, 1.326e-4
-1.072, 1.326e-4
-1.073, 1.333e-4
-1.074, 1.346e-4
-1.075, 1.347e-4
-1.076, 1.350e-4
-1.077, 1.340e-4
-1.078, 1.351e-4
-1.079, 1.360e-4
-1.080, 1.357e-4
-1.081, 1.360e-4
-1.082, 1.355e-4
-1.083, 1.364e-4
-1.084, 1.354e-4
-1.085, 1.364e-4
-1.086, 1.367e-4
-1.087, 1.365e-4
-1.088, 1.360e-4
-1.089, 1.361e-4
-1.090, 1.374e-4
-1.091, 1.354e-4
-1.092, 1.360e-4
-1.093, 1.349e-4
-1.094, 1.363e-4
-1.095, 1.361e-4
-1.096, 1.353e-4
-1.097, 1.353e-4
-1.098, 1.346e-4
-1.099, 1.354e-4
-1.100, 1.354e-4
-1.101, 1.338e-4
-1.102, 1.338e-4
-1.103, 1.338e-4
-1.104, 1.339e-4
-1.105, 1.337e-4
-1.106, 1.329e-4
-1.107, 1.321e-4
-1.108, 1.327e-4
-1.109, 1.321e-4
-1.110, 1.316e-4
-1.111, 1.317e-4
-1.112, 1.298e-4
-1.113, 1.311e-4
-1.114, 1.301e-4
-1.115, 1.305e-4
-1.116, 1.295e-4
-1.117, 1.280e-4
-1.118, 1.288e-4
-1.119, 1.279e-4
-1.120, 1.288e-4
-1.121, 1.263e-4
-1.122, 1.270e-4
-1.123, 1.266e-4
-1.124, 1.267e-4
-1.125, 1.269e-4
-1.126, 1.249e-4
-1.127, 1.249e-4
-1.128, 1.241e-4
-1.129, 1.242e-4
-1.130, 1.244e-4
-1.131, 1.228e-4
-1.132, 1.230e-4
-1.133, 1.223e-4
-1.134, 1.219e-4
-1.135, 1.226e-4
-1.136, 1.209e-4
-1.137, 1.205e-4
-1.138, 1.204e-4
-1.139, 1.203e-4
-1.140, 1.201e-4
-1.141, 1.192e-4
-1.142, 1.183e-4
-1.143, 1.187e-4
-1.144, 1.182e-4
-1.145, 1.184e-4
-1.146, 1.176e-4
-1.147, 1.163e-4
-1.148, 1.164e-4
-1.149, 1.172e-4
-1.150, 1.153e-4
-1.151, 1.159e-4
-1.152, 1.145e-4
-1.153, 1.146e-4
-1.154, 1.149e-4
-1.155, 1.137e-4
-1.156, 1.139e-4
-1.157, 1.122e-4
-1.158, 1.129e-4
-1.159, 1.130e-4
-1.160, 1.122e-4
-1.161, 1.121e-4
-1.162, 1.103e-4
-1.163, 1.109e-4
-1.164, 1.114e-4
-1.165, 1.104e-4
-1.166, 1.105e-4
-1.167, 1.092e-4
-1.168, 1.093e-4
-1.169, 1.096e-4
-1.170, 1.094e-4
-1.171, 1.085e-4
-1.172, 1.079e-4
-1.173, 1.080e-4
-1.174, 1.081e-4
-1.175, 1.084e-4
-1.176, 1.074e-4
-1.177, 1.073e-4
-1.178, 1.067e-4
-1.179, 1.075e-4
-1.180, 1.071e-4
-1.181, 1.062e-4
-1.182, 1.062e-4
-1.183, 1.059e-4
-1.184, 1.061e-4
-1.185, 1.060e-4
-1.186, 1.054e-4
-1.187, 1.052e-4
-1.188, 1.048e-4
-1.189, 1.060e-4
-1.190, 1.057e-4
-1.191, 1.051e-4
-1.192, 1.049e-4
-1.193, 1.047e-4
-1.194, 1.051e-4
-1.195, 1.052e-4
-1.196, 1.042e-4
-1.197, 1.050e-4
-1.198, 1.040e-4
-1.199, 1.051e-4
-1.200, 1.051e-4
-1.201, 1.044e-4
-1.202, 1.044e-4
-1.203, 1.042e-4
-1.204, 1.055e-4
-1.205, 1.055e-4
-1.206, 1.042e-4
-1.207, 1.048e-4
-1.208, 1.046e-4
-1.209, 1.055e-4
-1.210, 1.057e-4
-1.211, 1.051e-4
-1.212, 1.055e-4
-1.213, 1.055e-4
-1.214, 1.062e-4
-1.215, 1.068e-4
-1.216, 1.062e-4
-1.217, 1.065e-4
-1.218, 1.068e-4
-1.219, 1.077e-4
-1.220, 1.083e-4
-1.221, 1.074e-4
-1.222, 1.084e-4
-1.223, 1.094e-4
-1.224, 1.092e-4
-1.225, 1.106e-4
-1.226, 1.102e-4
-1.227, 1.101e-4
-1.228, 1.119e-4
-1.229, 1.128e-4
-1.230, 1.133e-4
-1.231, 1.132e-4
-1.232, 1.133e-4
-1.233, 1.144e-4
-1.234, 1.155e-4
-1.235, 1.164e-4
-1.236, 1.167e-4
-1.237, 1.168e-4
-1.238, 1.181e-4
-1.239, 1.191e-4
-1.240, 1.201e-4
-1.241, 1.203e-4
-1.242, 1.213e-4
-1.243, 1.219e-4
-1.244, 1.242e-4
-1.245, 1.243e-4
-1.246, 1.247e-4
-1.247, 1.257e-4
-1.248, 1.270e-4
-1.249, 1.279e-4
-1.250, 1.300e-4
-1.251, 1.298e-4
-1.252, 1.312e-4
-1.253, 1.324e-4
-1.254, 1.334e-4
-1.255, 1.353e-4
-1.256, 1.352e-4
-1.257, 1.367e-4
-1.258, 1.381e-4
-1.259, 1.391e-4
-1.260, 1.411e-4
-1.261, 1.416e-4
-1.262, 1.426e-4
-1.263, 1.441e-4
-1.264, 1.464e-4
-1.265, 1.465e-4
-1.266, 1.489e-4
-1.267, 1.489e-4
-1.268, 1.506e-4
-1.269, 1.536e-4
-1.270, 1.537e-4
-1.271, 1.554e-4
-1.272, 1.561e-4
-1.273, 1.574e-4
-1.274, 1.603e-4
-1.275, 1.609e-4
-1.276, 1.631e-4
-1.277, 1.638e-4
-1.278, 1.644e-4
-1.279, 1.667e-4
-1.280, 1.708e-4
-1.281, 1.693e-4
-1.282, 1.717e-4
-1.283, 1.732e-4
-1.284, 1.746e-4
-1.285, 1.777e-4
-1.286, 1.778e-4
-1.287, 1.791e-4
-1.288, 1.819e-4
-1.289, 1.826e-4
-1.290, 1.859e-4
-1.291, 1.856e-4
-1.292, 1.877e-4
-1.293, 1.900e-4
-1.294, 1.907e-4
-1.295, 1.940e-4
-1.296, 1.953e-4
-1.297, 1.967e-4
-1.298, 1.979e-4
-1.299, 2.010e-4
-1.300, 2.022e-4
-1.301, 2.030e-4
-1.302, 2.054e-4
-1.303, 2.072e-4
-1.304, 2.096e-4
-1.305, 2.112e-4
-1.306, 2.127e-4
-1.307, 2.143e-4
-1.308, 2.160e-4
-1.309, 2.187e-4
-1.310, 2.204e-4
-1.311, 2.218e-4
-1.312, 2.233e-4
-1.313, 2.253e-4
-1.314, 2.281e-4
-1.315, 2.300e-4
-1.316, 2.312e-4
-1.317, 2.323e-4
-1.318, 2.349e-4
-1.319, 2.378e-4
-1.320, 2.387e-4
-1.321, 2.405e-4
-1.322, 2.433e-4
-1.323, 2.440e-4
-1.324, 2.480e-4
-1.325, 2.476e-4
-1.326, 2.508e-4
-1.327, 2.526e-4
-1.328, 2.536e-4
-1.329, 2.577e-4
-1.330, 2.593e-4
-1.331, 2.608e-4
-1.332, 2.623e-4
-1.333, 2.656e-4
-1.334, 2.660e-4
-1.335, 2.701e-4
-1.336, 2.703e-4
-1.337, 2.729e-4
-1.338, 2.760e-4
-1.339, 2.774e-4
-1.340, 2.813e-4
-1.341, 2.815e-4
-1.342, 2.838e-4
-1.343, 2.866e-4
-1.344, 2.880e-4
-1.345, 2.926e-4
-1.346, 2.932e-4
-1.347, 2.953e-4
-1.348, 2.992e-4
-1.349, 3.006e-4
-1.350, 3.050e-4
-1.351, 3.059e-4
-1.352, 3.090e-4
-1.353, 3.121e-4
-1.354, 3.140e-4
-1.355, 3.188e-4
-1.356, 3.206e-4
-1.357, 3.236e-4
-1.358, 3.270e-4
-1.359, 3.301e-4
-1.360, 3.353e-4
-1.361, 3.358e-4
-1.362, 3.419e-4
-1.363, 3.457e-4
-1.364, 3.477e-4
-1.365, 3.546e-4
-1.366, 3.565e-4
-1.367, 3.629e-4
-1.368, 3.673e-4
-1.369, 3.714e-4
-1.370, 3.783e-4
-1.371, 3.825e-4
-1.372, 3.884e-4
-1.373, 3.937e-4
-1.374, 4.017e-4
-1.375, 4.091e-4
-1.376, 4.149e-4
-1.377, 4.234e-4
-1.378, 4.303e-4
-1.379, 4.394e-4
-1.380, 4.492e-4
-1.381, 4.562e-4
-1.382, 4.668e-4
-1.383, 4.777e-4
-1.384, 4.878e-4
-1.385, 5.018e-4
-1.386, 5.123e-4
-1.387, 5.238e-4
-1.388, 5.390e-4
-1.389, 5.523e-4
-1.390, 5.663e-4
-1.391, 5.818e-4
-1.392, 5.975e-4
-1.393, 6.117e-4
-1.394, 6.317e-4
-1.395, 6.496e-4
-1.396, 6.679e-4
-1.397, 6.866e-4
-1.398, 7.055e-4
-1.399, 7.271e-4
-1.400, 7.475e-4
-1.401, 7.682e-4
-1.402, 7.927e-4
-1.403, 8.129e-4
-1.404, 8.407e-4
-1.405, 8.621e-4
-1.406, 8.874e-4
-1.407, 9.139e-4
-1.408, 9.389e-4
-1.409, 9.673e-4
-1.410, 9.918e-4
-1.411, 1.019e-3
-1.412, 1.050e-3
-1.413, 1.077e-3
-1.414, 1.105e-3
-1.415, 1.134e-3
-1.416, 1.163e-3
-1.417, 1.197e-3
-1.418, 1.238e-3
-1.419, 1.280e-3
-1.420, 1.316e-3
-1.421, 1.352e-3
-1.422, 1.398e-3
-1.423, 1.430e-3
-1.424, 1.474e-3
-1.425, 1.510e-3
-1.426, 1.542e-3
-1.427, 1.589e-3
-1.428, 1.638e-3
-1.429, 1.682e-3
-1.430, 1.733e-3
-1.431, 1.773e-3
-1.432, 1.826e-3
-1.433, 1.862e-3
-1.434, 1.908e-3
-1.435, 1.969e-3
-1.436, 2.026e-3
-1.437, 2.073e-3
-1.438, 2.133e-3
-1.439, 2.182e-3
-1.440, 2.245e-3
-1.441, 2.309e-3
-1.442, 2.385e-3
-1.443, 2.446e-3
-1.444, 2.502e-3
-1.445, 2.564e-3
-1.446, 2.620e-3
-1.447, 2.695e-3
-1.448, 2.767e-3
-1.449, 2.835e-3
-1.450, 2.902e-3
-1.451, 2.969e-3
-1.452, 3.054e-3
-1.453, 3.110e-3
-1.454, 3.191e-3
-1.455, 3.276e-3
-1.456, 3.322e-3
-1.457, 3.397e-3
-1.458, 3.464e-3
-1.459, 3.512e-3
-1.460, 3.588e-3
-1.461, 3.648e-3
-1.462, 3.715e-3
-1.463, 3.795e-3
-1.464, 3.844e-3
-1.465, 3.895e-3
-1.466, 3.956e-3
-1.467, 3.999e-3
-1.468, 4.062e-3
-1.469, 4.116e-3
-1.470, 4.184e-3
-1.471, 4.278e-3
-1.472, 4.334e-3
-1.473, 4.400e-3
-1.474, 4.451e-3
-1.475, 4.546e-3
-1.476, 4.654e-3
-1.477, 4.627e-3
-1.478, 4.715e-3
-1.479, 4.773e-3
-1.480, 4.849e-3
-1.481, 4.913e-3
-1.482, 4.945e-3
-1.483, 4.992e-3
-1.484, 5.051e-3
-1.485, 5.095e-3
-1.486, 5.133e-3
-1.487, 5.188e-3
-1.488, 5.254e-3
-1.489, 5.297e-3
-1.490, 5.361e-3
-1.491, 5.426e-3
-1.492, 5.476e-3
-1.493, 5.494e-3
-1.494, 5.494e-3
-1.495, 5.548e-3
-1.496, 5.589e-3
-1.497, 5.645e-3
-1.498, 5.703e-3
-1.499, 5.739e-3
-1.500, 5.745e-3
-1.499, 5.655e-3
-1.498, 5.569e-3
-1.497, 5.558e-3
-1.496, 5.459e-3
-1.495, 5.466e-3
-1.494, 5.359e-3
-1.493, 5.326e-3
-1.492, 5.201e-3
-1.491, 5.182e-3
-1.490, 5.131e-3
-1.489, 5.042e-3
-1.488, 4.970e-3
-1.487, 4.914e-3
-1.486, 4.870e-3
-1.485, 4.851e-3
-1.484, 4.703e-3
-1.483, 4.696e-3
-1.482, 4.685e-3
-1.481, 4.655e-3
-1.480, 4.585e-3
-1.479, 4.517e-3
-1.478, 4.445e-3
-1.477, 4.344e-3
-1.476, 4.314e-3
-1.475, 4.246e-3
-1.474, 4.195e-3
-1.473, 4.137e-3
-1.472, 4.096e-3
-1.471, 4.057e-3
-1.470, 4.000e-3
-1.469, 3.957e-3
-1.468, 3.895e-3
-1.467, 3.833e-3
-1.466, 3.797e-3
-1.465, 3.764e-3
-1.464, 3.706e-3
-1.463, 3.641e-3
-1.462, 3.578e-3
-1.461, 3.533e-3
-1.460, 3.473e-3
-1.459, 3.432e-3
-1.458, 3.386e-3
-1.457, 3.328e-3
-1.456, 3.305e-3
-1.455, 3.266e-3
-1.454, 3.202e-3
-1.453, 3.163e-3
-1.452, 3.083e-3
-1.451, 3.054e-3
-1.450, 3.016e-3
-1.449, 2.973e-3
-1.448, 2.922e-3
-1.447, 2.863e-3
-1.446, 2.822e-3
-1.445, 2.784e-3
-1.444, 2.743e-3
-1.443, 2.704e-3
-1.442, 2.653e-3
-1.441, 2.623e-3
-1.440, 2.572e-3
-1.439, 2.527e-3
-1.438, 2.495e-3
-1.437, 2.447e-3
-1.436, 2.417e-3
-1.435, 2.381e-3
-1.434, 2.340e-3
-1.433, 2.295e-3
-1.432, 2.243e-3
-1.431, 2.211e-3
-1.430, 2.173e-3
-1.429, 2.130e-3
-1.428, 2.095e-3
-1.427, 2.056e-3
-1.426, 2.018e-3
-1.425, 1.973e-3
-1.424, 1.958e-3
-1.423, 1.919e-3
-1.422, 1.888e-3
-1.421, 1.854e-3
-1.420, 1.808e-3
-1.419, 1.771e-3
-1.418, 1.741e-3
-1.417, 1.699e-3
-1.416, 1.665e-3
-1.415, 1.639e-3
-1.414, 1.611e-3
-1.413, 1.582e-3
-1.412, 1.547e-3
-1.411, 1.515e-3
-1.410, 1.481e-3
-1.409, 1.449e-3
-1.408, 1.431e-3
-1.407, 1.393e-3
-1.406, 1.364e-3
-1.405, 1.331e-3
-1.404, 1.308e-3
-1.403, 1.284e-3
-1.402, 1.258e-3
-1.401, 1.224e-3
-1.400, 1.210e-3
-1.399, 1.186e-3
-1.398, 1.163e-3
-1.397, 1.136e-3
-1.396, 1.115e-3
-1.395, 1.087e-3
-1.394, 1.059e-3
-1.393, 1.034e-3
-1.392, 1.009e-3
-1.391, 9.880e-4
-1.390, 9.694e-4
-1.389, 9.504e-4
-1.388, 9.247e-4
-1.387, 9.047e-4
-1.386, 8.838e-4
-1.385, 8.568e-4
-1.384, 8.387e-4
-1.383, 8.141e-4
-1.382, 7.912e-4
-1.381, 7.768e-4
-1.380, 7.576e-4
-1.379, 7.469e-4
-1.378, 7.333e-4
-1.377, 7.171e-4
-1.376, 7.035e-4
-1.375, 6.873e-4
-1.374, 6.675e-4
-1.373, 6.524e-4
-1.372, 6.366e-4
-1.371, 6.190e-4
-1.370, 6.061e-4
-1.369, 5.870e-4
-1.368, 5.722e-4
-1.367, 5.597e-4
-1.366, 5.436e-4
-1.365, 5.275e-4
-1.364, 5.154e-4
-1.363, 5.073e-4
-1.362, 4.897e-4
-1.361, 4.801e-4
-1.360, 4.657e-4
-1.359, 4.508e-4
-1.358, 4.381e-4
-1.357, 4.245e-4
-1.356, 4.133e-4
-1.355, 4.014e-4
-1.354, 3.881e-4
-1.353, 3.769e-4
-1.352, 3.671e-4
-1.351, 3.562e-4
-1.350, 3.461e-4
-1.349, 3.351e-4
-1.348, 3.241e-4
-1.347, 3.129e-4
-1.346, 3.042e-4
-1.345, 2.951e-4
-1.344, 2.856e-4
-1.343, 2.758e-4
-1.342, 2.666e-4
-1.341, 2.582e-4
-1.340, 2.531e-4
-1.339, 2.474e-4
-1.338, 2.396e-4
-1.337, 2.308e-4
-1.336, 2.247e-4
-1.335, 2.194e-4
-1.334, 2.109e-4
-1.333, 2.038e-4
-1.332, 1.969e-4
-1.331, 1.924e-4
-1.330, 1.858e-4
-1.329, 1.793e-4
-1.328, 1.726e-4
-1.327, 1.660e-4
-1.326, 1.606e-4
-1.325, 1.546e-4
-1.324, 1.481e-4
-1.323, 1.435e-4
-1.322, 1.389e-4
-1.321, 1.336e-4
-1.320, 1.291e-4
-1.319, 1.233e-4
-1.318, 1.179e-4
-1.317, 1.135e-4
-1.316, 1.090e-4
-1.315, 1.048e-4
-1.314, 9.994e-5
-1.313, 9.502e-5
-1.312, 9.180e-5
-1.311, 8.762e-5
-1.310, 8.419e-5
-1.309, 8.087e-5
-1.308, 7.641e-5
-1.307, 7.275e-5
-1.306, 7.023e-5
-1.305, 6.624e-5
-1.304, 6.272e-5
-1.303, 5.872e-5
-1.302, 5.503e-5
-1.301, 5.250e-5
-1.300, 5.010e-5
-1.299, 4.648e-5
-1.298, 4.643e-5
-1.297, 4.505e-5
-1.296, 4.274e-5
-1.295, 4.033e-5
-1.294, 3.677e-5
-1.293, 3.367e-5
-1.292, 3.065e-5
-1.291, 2.855e-5
-1.290, 2.714e-5
-1.289, 2.440e-5
-1.288, 2.140e-5
-1.287, 1.925e-5
-1.286, 1.663e-5
-1.285, 1.453e-5
-1.284, 1.176e-5
-1.283, 9.246e-6
-1.282, 8.012e-6
-1.281, 6.916e-6
-1.280, 4.966e-6
-1.279, 2.230e-6
-1.278, -4.955e-7
-1.277, -1.605e-6
-1.276, -2.443e-6
-1.275, -2.859e-6
-1.274, -5.102e-6
-1.273, -7.521e-6
-1.272, -9.568e-6
-1.271, -1.095e-5
-1.270, -1.221e-5
-1.269, -1.383e-5
-1.268, -1.592e-5
-1.267, -1.729e-5
-1.266, -1.824e-5
-1.265, -1.991e-5
-1.264, -2.110e-5
-1.263, -2.270e-5
-1.262, -2.323e-5
-1.261, -2.423e-5
-1.260, -2.529e-5
-1.259, -2.638e-5
-1.258, -2.757e-5
-1.257, -2.967e-5
-1.256, -3.040e-5
-1.255, -3.108e-5
-1.254, -3.264e-5
-1.253, -3.422e-5
-1.252, -3.515e-5
-1.251, -3.587e-5
-1.250, -3.685e-5
-1.249, -3.854e-5
-1.248, -3.903e-5
-1.247, -4.008e-5
-1.246, -4.099e-5
-1.245, -4.196e-5
-1.244, -4.297e-5
-1.243, -4.350e-5
-1.242, -4.510e-5
-1.241, -4.592e-5
-1.240, -4.554e-5
-1.239, -4.515e-5
-1.238, -4.643e-5
-1.237, -4.755e-5
-1.236, -4.836e-5
-1.235, -4.868e-5
-1.234, -5.035e-5
-1.233, -5.119e-5
-1.232, -5.082e-5
-1.231, -5.134e-5
-1.230, -5.190e-5
-1.229, -5.302e-5
-1.228, -5.290e-5
-1.227, -5.360e-5
-1.226, -5.428e-5
-1.225, -5.478e-5
-1.224, -5.530e-5
-1.223, -5.650e-5
-1.222, -5.668e-5
-1.221, -5.721e-5
-1.220, -5.691e-5
-1.219, -5.776e-5
-1.218, -5.807e-5
-1.217, -5.887e-5
-1.216, -5.839e-5
-1.215, -5.909e-5
-1.214, -5.990e-5
-1.213, -6.021e-5
-1.212, -6.045e-5
-1.211, -5.965e-5
-1.210, -5.899e-5
-1.209, -5.992e-5
-1.208, -6.028e-5
-1.207, -6.075e-5
-1.206, -6.063e-5
-1.205, -6.071e-5
-1.204, -6.168e-5
-1.203, -6.273e-5
-1.202, -6.271e-5
-1.201, -6.227e-5
-1.200, -6.193e-5
-1.199, -6.316e-5
-1.198, -6.288e-5
-1.197, -6.263e-5
-1.196, -6.267e-5
-1.195, -6.270e-5
-1.194, -6.312e-5
-1.193, -6.473e-5
-1.192, -6.446e-5
-1.191, -6.442e-5
-1.190, -6.452e-5
-1.189, -6.449e-5
-1.188, -6.473e-5
-1.187, -6.485e-5
-1.186, -6.453e-5
-1.185, -6.532e-5
-1.184, -6.542e-5
-1.183, -6.617e-5
-1.182, -6.663e-5
-1.181, -6.633e-5
-1.180, -6.602e-5
-1.179, -6.576e-5
-1.178, -6.680e-5
-1.177, -6.716e-5
-1.176, -6.589e-5
-1.175, -6.618e-5
-1.174, -6.649e-5
-1.173, -6.728e-5
-1.172, -6.696e-5
-1.171, -6.676e-5
-1.170, -6.579e-5
-1.169, -6.733e-5
-1.168, -6.787e-5
-1.167, -6.763e-5
-1.166, -6.668e-5
-1.165, -6.596e-5
-1.164, -6.589e-5
-1.163, -6.640e-5
-1.162, -6.598e-5
-1.161, -6.596e-5
-1.160, -6.639e-5
-1.159, -6.722e-5
-1.158, -6.827e-5
-1.157, -6.840e-5
-1.156, -6.814e-5
-1.155, -6.818e-5
-1.154, -6.833e-5
-1.153, -6.932e-5
-1.152, -6.908e-5
-1.151, -6.888e-5
-1.150, -6.871e-5
-1.149, -6.932e-5
-1.148, -7.066e-5
-1.147, -7.037e-5
-1.146, -7.022e-5
-1.145, -7.041e-5
-1.144, -7.100e-5
-1.143, -7.133e-5
-1.142, -7.183e-5
-1.141, -7.131e-5
-1.140, -7.160e-5
-1.139, -7.209e-5
-1.138, -7.246e-5
-1.137, -7.262e-5
-1.136, -7.146e-5
-1.135, -7.108e-5
-1.134, -7.154e-5
-1.133, -7.234e-5
-1.132, -7.216e-5
-1.131, -7.272e-5
-1.130, -7.290e-5
-1.129, -7.406e-5
-1.128, -7.429e-5
-1.127, -7.448e-5
-1.126, -7.433e-5
-1.125, -7.371e-5
-1.124, -7.444e-5
-1.123, -7.533e-5
-1.122, -7.545e-5
-1.121, -7.577e-5
-1.120, -7.559e-5
-1.119, -7.603e-5
-1.118, -7.767e-5
-1.117, -7.658e-5
-1.116, -7.689e-5
-1.115, -7.667e-5
-1.114, -7.778e-5
-1.113, -7.912e-5
-1.112, -7.853e-5
-1.111, -7.944e-5
-1.110, -7.979e-5
-1.109, -8.029e-5
-1.108, -8.056e-5
-1.107, -8.102e-5
-1.106, -8.084e-5
-1.105, -8.171e-5
-1.104, -8.241e-5
-1.103, -8.373e-5
-1.102, -8.509e-5
-1.101, -8.412e-5
-1.100, -8.370e-5
-1.099, -8.469e-5
-1.098, -8.510e-5
-1.097, -8.612e-5
-1.096, -8.619e-5
-1.095, -8.665e-5
-1.094, -8.711e-5
-1.093, -8.804e-5
-1.092, -8.819e-5
-1.091, -8.827e-5
-1.090, -8.847e-5
-1.089, -8.955e-5
-1.088, -9.001e-5
-1.087, -9.103e-5
-1.086, -9.132e-5
-1.085, -9.054e-5
-1.084, -9.119e-5
-1.083, -9.315e-5
-1.082, -9.268e-5
-1.081, -9.437e-5
-1.080, -9.417e-5
-1.079, -9.516e-5
-1.078, -9.667e-5
-1.077, -9.711e-5
-1.076, -9.780e-5
-1.075, -9.837e-5
-1.074, -9.871e-5
-1.073, -1.003e-4
-1.072, -1.006e-4
-1.071, -1.007e-4
-1.070, -1.011e-4
-1.069, -1.021e-4
-1.068, -1.037e-4
-1.067, -1.042e-4
-1.066, -1.043e-4
-1.065, -1.046e-4
-1.064, -1.057e-4
-1.063, -1.078e-4
-1.062, -1.085e-4
-1.061, -1.100e-4
-1.060, -1.084e-4
-1.059, -1.107e-4
-1.058, -1.114e-4
-1.057, -1.116e-4
-1.056, -1.131e-4
-1.055, -1.127e-4
-1.054, -1.150e-4
-1.053, -1.152e-4
-1.052, -1.165e-4
-1.051, -1.169e-4
-1.050, -1.168e-4
-1.049, -1.191e-4
-1.048, -1.189e-4
-1.047, -1.212e-4
-1.046, -1.218e-4
-1.045, -1.224e-4
-1.044, -1.232e-4
-1.043, -1.252e-4
-1.042, -1.272e-4
-1.041, -1.274e-4
-1.040, -1.287e-4
-1.039, -1.290e-4
-1.038, -1.311e-4
-1.037, -1.327e-4
-1.036, -1.318e-4
-1.035, -1.342e-4
-1.034, -1.345e-4
-1.033, -1.366e-4
-1.032, -1.372e-4
-1.031, -1.384e-4
-1.030, -1.396e-4
-1.029, -1.411e-4
-1.028, -1.428e-4
-1.027, -1.445e-4
-1.026, -1.453e-4
-1.025, -1.469e-4
-1.024, -1.485e-4
-1.023, -1.507e-4
-1.022, -1.525e-4
-1.021, -1.532e-4
-1.020, -1.540e-4
-1.019, -1.557e-4
-1.018, -1.555e-4
-1.017, -1.606e-4
-1.016, -1.613e-4
-1.015, -1.629e-4
-1.014, -1.660e-4
-1.013, -1.659e-4
-1.012, -1.690e-4
-1.011, -1.690e-4
-1.010, -1.702e-4
-1.009, -1.722e-4
-1.008, -1.742e-4
-1.007, -1.766e-4
-1.006, -1.783e-4
-1.005, -1.800e-4
-1.004, -1.821e-4
-1.003, -1.845e-4
-1.002, -1.868e-4
-1.001, -1.883e-4
-1.000, -1.406e-4
-1.001, -8.391e-5
-1.002, -5.511e-5
-1.003, -3.556e-5
-1.004, -1.997e-5
-1.005, -8.117e-6
-1.006, 1.295e-6
-1.007, 9.139e-6
-1.008, 1.578e-5
-1.009, 2.234e-5
-1.010, 2.784e-5
-1.011, 3.228e-5
-1.012, 3.603e-5
-1.013, 3.939e-5
-1.014, 4.347e-5
-1.015, 4.670e-5
-1.016, 4.858e-5
-1.017, 5.106e-5
-1.018, 5.299e-5
-1.019, 5.571e-5
-1.020, 5.802e-5
-1.021, 5.889e-5
-1.022, 6.048e-5
-1.023, 6.218e-5
-1.024, 6.401e-5
-1.025, 6.539e-5
-1.026, 6.634e-5
-1.027, 6.623e-5
-1.028, 6.761e-5
-1.029, 6.840e-5
-1.030, 6.986e-5
-1.031, 7.060e-5
-1.032, 7.059e-5
-1.033, 7.184e-5
-1.034, 7.313e-5
-1.035, 7.353e-5
-1.036, 7.459e-5
-1.037, 7.327e-5
-1.038, 7.458e-5
-1.039, 7.640e-5
-1.040, 7.575e-5
-1.041, 7.702e-5
-1.042, 7.675e-5
-1.043, 7.712e-5
-1.044, 7.836e-5
-1.045, 7.820e-5
-1.046, 7.896e-5
-1.047, 7.844e-5
-1.048, 7.876e-5
-1.049, 7.933e-5
-1.050, 7.970e-5
-1.051, 7.938e-5
-1.052, 7.927e-5
-1.053, 7.933e-5
-1.054, 7.981e-5
-1.055, 8.042e-5
-1.056, 8.011e-5
-1.057, 7.976e-5
-1.058, 7.975e-5
-1.059, 8.011e-5
-1.060, 8.062e-5
-1.061, 7.985e-5
-1.062, 7.962e-5
-1.063, 7.971e-5
-1.064, 7.985e-5
-1.065, 8.043e-5
-1.066, 8.003e-5
-1.067, 7.975e-5
-1.068, 7.945e-5
-1.069, 7.958e-5
-1.070, 8.018e-5
-1.071, 7.967e-5
-1.072, 7.875e-5
-1.073, 7.902e-5
-1.074, 7.904e-5
-1.075, 7.999e-5
-1.076, 7.913e-5
-1.077, 7.856e-5
-1.078, 7.802e-5
-1.079, 7.855e-5
-1.080, 7.859e-5
-1.081, 7.800e-5
-1.082, 7.757e-5
-1.083, 7.741e-5
-1.084, 7.745e-5
-1.085, 7.776e-5
-1.086, 7.754e-5
-1.087, 7.691e-5
-1.088, 7.650e-5
-1.089, 7.678e-5
-1.090, 7.706e-5
-1.091, 7.646e-5
-1.092, 7.612e-5
-1.093, 7.542e-5
-1.094, 7.616e-5
-1.095, 7.638e-5
-1.096, 7.562e-5
-1.097, 7.487e-5
-1.098, 7.489e-5
-1.099, 7.492e-5
-1.100, 7.532e-5
-1.101, 7.502e-5
-1.102, 7.405e-5
-1.103, 7.451e-5
-1.104, 7.392e-5
-1.105, 7.443e-5
-1.106, 7.404e-5
-1.107, 7.320e-5
-1.108, 7.311e-5
-1.109, 7.329e-5
-1.110, 7.350e-5
-1.111, 7.330e-5
-1.112, 7.245e-5
-1.113, 7.226e-5
-1.114, 7.264e-5
-1.115, 7.278e-5
-1.116, 7.233e-5
-1.117, 7.151e-5
-1.118, 7.143e-5
-1.119, 7.170e-5
-1.120, 7.149e-5
-1.121, 7.172e-5
-1.122, 7.073e-5
-1.123, 7.032e-5
-1.124, 7.101e-5
-1.125, 7.073e-5
-1.126, 7.040e-5
-1.127, 7.009e-5
-1.128, 6.945e-5
-1.129, 7.004e-5
-1.130, 7.038e-5
-1.131, 6.954e-5
-1.132, 6.921e-5
-1.133, 6.880e-5
-1.134, 6.895e-5
-1.135, 6.942e-5
-1.136, 6.855e-5
-1.137, 6.831e-5
-1.138, 6.792e-5
-1.139, 6.816e-5
-1.140, 6.849e-5
-1.141, 6.820e-5
-1.142, 6.747e-5
-1.143, 6.757e-5
-1.144, 6.731e-5
-1.145, 6.781e-5
-1.146, 6.741e-5
-1.147, 6.680e-5
-1.148, 6.663e-5
-1.149, 6.664e-5
-1.150, 6.700e-5
-1.151, 6.692e-5
-1.152, 6.582e-5
-1.153, 6.612e-5
-1.154, 6.606e-5
-1.155, 6.640e-5
-1.156, 6.592e-5
-1.157, 6.533e-5
-1.158, 6.526e-5
-1.159, 6.561e-5
-1.160, 6.547e-5
-1.161, 6.532e-5
-1.162, 6.472e-5
-1.163, 6.471e-5
-1.164, 6.522e-5
-1.165, 6.544e-5
-1.166, 6.511e-5
-1.167, 6.443e-5
-1.168, 6.428e-5
-1.169, 6.485e-5
-1.170, 6.512e-5
-1.171, 6.362e-5
-1.172, 6.437e-5
-1.173, 6.365e-5
-1.174, 6.374e-5
-1.175, 6.472e-5
-1.176, 6.368e-5
-1.177, 6.341e-5
-1.178, 6.351e-5
-1.179, 6.323e-5
-1.180, 6.378e-5
-1.181, 6.338e-5
-1.182, 6.256e-5
-1.183, 6.297e-5
-1.184, 6.259e-5
-1.185, 6.309e-5
-1.186, 6.286e-5
-1.187, 6.189e-5
-1.188, 6.211e-5
-1.189, 6.230e-5
-1.190, 6.257e-5
-1.191, 6.249e-5
-1.192, 6.151e-5
-1.193, 6.136e-5
-1.194, 6.193e-5
-1.195, 6.187e-5
-1.196, 6.176e-5
-1.197, 6.133e-5
-1.198, 6.104e-5
-1.199, 6.178e-5
-1.200, 6.152e-5
-1.201, 6.159e-5
-1.202, 6.110e-5
-1.203, 6.087e-5
-1.204, 6.118e-5
-1.205, 6.152e-5
-1.206, 6.114e-5
-1.207, 6.075e-5
-1.208, 6.050e-5
-1.209, 6.087e-5
-1.210, 6.139e-5
-1.211, 6.118e-5
-1.212, 6.084e-5
-1.213, 6.069e-5
-1.214, 6.112e-5
-1.215, 6.167e-5
-1.216, 6.131e-5
-1.217, 6.091e-5
-1.218, 6.120e-5
-1.219, 6.138e-5
-1.220, 6.212e-5
-1.221, 6.200e-5
-1.222, 6.148e-5
-1.223, 6.163e-5
-1.224, 6.217e-5
-1.225, 6.272e-5
-1.226, 6.267e-5
-1.227, 6.239e-5
-1.228, 6.253e-5
-1.229, 6.395e-5
-1.230, 6.351e-5
-1.231, 6.378e-5
-1.232, 6.324e-5
-1.233, 6.355e-5
-1.234, 6.392e-5
-1.235, 6.483e-5
-1.236, 6.490e-5
-1.237, 6.477e-5
-1.238, 6.469e-5
-1.239, 6.550e-5
-1.240, 6.596e-5
-1.241, 6.630e-5
-1.242, 6.598e-5
-1.243, 6.624e-5
-1.244, 6.686e-5
-1.245, 6.760e-5
-1.246, 6.788e-5
-1.247, 6.763e-5
-1.248, 6.821e-5
-1.249, 6.861e-5
-1.250, 6.973e-5
-1.251, 6.953e-5
-1.252, 6.961e-5
-1.253, 7.000e-5
-1.254, 7.034e-5
-1.255, 7.180e-5
-1.256, 7.162e-5
-1.257, 7.153e-5
-1.258, 7.219e-5
-1.259, 7.275e-5
-1.260, 7.370e-5
-1.261, 7.389e-5
-1.262, 7.401e-5
-1.263, 7.418e-5
-1.264, 7.530e-5
-1.265, 7.613e-5
-1.266, 7.659e-5
-1.267, 7.638e-5
-1.268, 7.724e-5
-1.269, 7.809e-5
-1.270, 7.895e-5
-1.271, 7.929e-5
-1.272, 7.954e-5
-1.273, 7.972e-5
-1.274, 8.104e-5
-1.275, 8.218e-5
-1.276, 8.211e-5
-1.277, 8.343e-5
-1.278, 8.296e-5
-1.279, 8.390e-5
-1.280, 8.620e-5
-1.281, 8.571e-5
-1.282, 8.622e-5
-1.283, 8.694e-5
-1.284, 8.763e-5
-1.285, 8.937e-5
-1.286, 8.976e-5
-1.287, 9.043e-5
-1.288, 9.092e-5
-1.289, 9.139e-5
-1.290, 9.385e-5
-1.291, 9.354e-5
-1.292, 9.481e-5
-1.293, 9.503e-5
-1.294, 9.620e-5
-1.295, 9.823e-5
-1.296, 9.847e-5
-1.297, 9.930e-5
-1.298, 1.001e-4
-1.299, 1.011e-4
-1.300, 1.031e-4
-1.301, 1.036e-4
-1.302, 1.046e-4
-1.303, 1.058e-4
-1.304, 1.067e-4
-1.305, 1.087e-4
-1.306, 1.089e-4
-1.307, 1.103e-4
-1.308, 1.115e-4
-1.309, 1.128e-4
-1.310, 1.150e-4
-1.311, 1.160e-4
-1.312, 1.164e-4
-1.313, 1.182e-4
-1.314, 1.195e-4
-1.315, 1.216e-4
-1.316, 1.227e-4
-1.317, 1.242e-4
-1.318, 1.253e-4
-1.319, 1.274e-4
-1.320, 1.291e-4
-1.321, 1.307e-4
-1.322, 1.321e-4
-1.323, 1.335e-4
-1.324, 1.355e-4
-1.325, 1.377e-4
-1.326, 1.400e-4
-1.327, 1.411e-4
-1.328, 1.429e-4
-1.329, 1.452e-4
-1.330, 1.480e-4
-1.331, 1.496e-4
-1.332, 1.514e-4
-1.333, 1.533e-4
-1.334, 1.564e-4
-1.335, 1.588e-4
-1.336, 1.609e-4
-1.337, 1.634e-4
-1.338, 1.656e-4
-1.339, 1.678e-4
-1.340, 1.724e-4
-1.341, 1.747e-4
-1.342, 1.766e-4
-1.343, 1.797e-4
-1.344, 1.825e-4
-1.345, 1.865e-4
-1.346, 1.894e-4
-1.347, 1.920e-4
-1.348, 1.956e-4
-1.349, 1.992e-4
-1.350, 2.038e-4
-1.351, 2.067e-4
-1.352, 2.108e-4
-1.353, 2.140e-4
-1.354, 2.184e-4
-1.355, 2.232e-4
-1.356, 2.289e-4
-1.357, 2.319e-4
-1.358, 2.382e-4
-1.359, 2.420e-4
-1.360, 2.470e-4
-1.361, 2.538e-4
-1.362, 2.580e-4
-1.363, 2.643e-4
-1.364, 2.704e-4
-1.365, 2.766e-4
-1.366, 2.842e-4
-1.367, 2.901e-4
-1.368, 2.975e-4
-1.369, 3.050e-4
-1.370, 3.129e-4
-1.371, 3.216e-4
-1.372, 3.292e-4
-1.373, 3.393e-4
-1.374, 3.476e-4
-1.375, 3.592e-4
-1.376, 3.684e-4
-1.377, 3.798e-4
-1.378, 3.890e-4
-1.379, 3.996e-4
-1.380, 4.158e-4
-1.381, 4.258e-4
-1.382, 4.399e-4
-1.383, 4.528e-4
-1.384, 4.678e-4
-1.385, 4.820e-4
-1.386, 4.969e-4
-1.387, 5.136e-4
-1.388, 5.282e-4
-1.389, 5.476e-4
-1.390, 5.640e-4
-1.391, 5.832e-4
-1.392, 6.008e-4
-1.393, 6.206e-4
-1.394, 6.407e-4
-1.395, 6.628e-4
-1.396, 6.831e-4
-1.397, 7.070e-4
-1.398, 7.286e-4
-1.399, 7.540e-4
-1.400, 7.785e-4
-1.401, 8.043e-4
-1.402, 8.286e-4
-1.403, 8.588e-4
-1.404, 8.840e-4
-1.405, 9.146e-4
-1.406, 9.433e-4
-1.407, 9.722e-4
-1.408, 1.008e-3
-1.409, 1.042e-3
-1.410, 1.080e-3
-1.411, 1.113e-3
-1.412, 1.146e-3
-1.413, 1.189e-3
-1.414, 1.217e-3
-1.415, 1.261e-3
-1.416, 1.295e-3
-1.417, 1.335e-3
-1.418, 1.377e-3
-1.419, 1.419e-3
-1.420, 1.464e-3
-1.421, 1.508e-3
-1.422, 1.548e-3
-1.423, 1.593e-3
-1.424, 1.631e-3
-1.425, 1.675e-3
-1.426, 1.719e-3
-1.427, 1.771e-3
-1.428, 1.829e-3
-1.429, 1.870e-3
-1.430, 1.920e-3
-1.431, 1.956e-3
-1.432, 1.995e-3
-1.433, 2.048e-3
-1.434, 2.091e-3
-1.435, 2.144e-3
-1.436, 2.196e-3
-1.437, 2.243e-3
-1.438, 2.288e-3
-1.439, 2.338e-3
-1.440, 2.371e-3
-1.441, 2.434e-3
-1.442, 2.486e-3
-1.443, 2.513e-3
-1.444, 2.565e-3
-1.445, 2.620e-3
-1.446, 2.659e-3
-1.447, 2.709e-3
-1.448, 2.775e-3
-1.449, 2.828e-3
-1.450, 2.881e-3
-1.451, 2.913e-3
-1.452, 2.947e-3
-1.453, 3.005e-3
-1.454, 3.059e-3
-1.455, 3.124e-3
-1.456, 3.161e-3
-1.457, 3.216e-3
-1.458, 3.252e-3
-1.459, 3.312e-3
-1.460, 3.361e-3
-1.461, 3.409e-3
-1.462, 3.465e-3
-1.463, 3.516e-3
-1.464, 3.557e-3
-1.465, 3.613e-3
-1.466, 3.655e-3
-1.467, 3.732e-3
-1.468, 3.756e-3
-1.469, 3.811e-3
-1.470, 3.862e-3
-1.471, 3.921e-3
-1.472, 3.985e-3
-1.473, 4.033e-3
-1.474, 4.078e-3
-1.475, 4.123e-3
-1.476, 4.182e-3
-1.477, 4.230e-3
-1.478, 4.280e-3
-1.479, 4.349e-3
-1.480, 4.429e-3
-1.481, 4.495e-3
-1.482, 4.539e-3
-1.483, 4.576e-3
-1.484, 4.635e-3
-1.485, 4.624e-3
-1.486, 4.685e-3
-1.487, 4.785e-3
-1.488, 4.794e-3
-1.489, 4.871e-3
-1.490, 4.933e-3
-1.491, 4.969e-3
-1.492, 5.004e-3
-1.493, 5.050e-3
-1.494, 5.103e-3
-1.495, 5.157e-3
-1.496, 5.193e-3
-1.497, 5.205e-3
-1.498, 5.285e-3
-1.499, 5.331e-3
-1.500, 5.372e-3
-1.499, 5.339e-3
-1.498, 5.241e-3
-1.497, 5.224e-3
-1.496, 5.151e-3
-1.495, 5.079e-3
-1.494, 5.011e-3
-1.493, 4.942e-3
-1.492, 4.913e-3
-1.491, 4.846e-3
-1.490, 4.790e-3
-1.489, 4.710e-3
-1.488, 4.661e-3
-1.487, 4.603e-3
-1.486, 4.515e-3
-1.485, 4.486e-3
-1.484, 4.408e-3
-1.483, 4.361e-3
-1.482, 4.333e-3
-1.481, 4.280e-3
-1.480, 4.220e-3
-1.479, 4.152e-3
-1.478, 4.112e-3
-1.477, 4.071e-3
-1.476, 4.030e-3
-1.475, 3.958e-3
-1.474, 3.916e-3
-1.473, 3.851e-3
-1.472, 3.790e-3
-1.471, 3.728e-3
-1.470, 3.659e-3
-1.469, 3.647e-3
-1.468, 3.579e-3
-1.467, 3.538e-3
-1.466, 3.488e-3
-1.465, 3.435e-3
-1.464, 3.383e-3
-1.463, 3.348e-3
-1.462, 3.301e-3
-1.461, 3.243e-3
-1.460, 3.211e-3
-1.459, 3.171e-3
-1.458, 3.138e-3
-1.457, 3.087e-3
-1.456, 3.042e-3
-1.455, 2.995e-3
-1.454, 2.932e-3
-1.453, 2.909e-3
-1.452, 2.879e-3
-1.451, 2.813e-3
-1.450, 2.782e-3
-1.449, 2.723e-3
-1.448, 2.671e-3
-1.447, 2.646e-3
-1.446, 2.610e-3
-1.445, 2.569e-3
-1.444, 2.533e-3
-1.443, 2.485e-3
-1.442, 2.447e-3
-1.441, 2.389e-3
-1.440, 2.337e-3
-1.439, 2.303e-3
-1.438, 2.263e-3
-1.437, 2.231e-3
-1.436, 2.210e-3
-1.435, 2.181e-3
-1.434, 2.145e-3
-1.433, 2.110e-3
-1.432, 2.067e-3
-1.431, 2.035e-3
-1.430, 1.970e-3
-1.429, 1.944e-3
-1.428, 1.911e-3
-1.427, 1.892e-3
-1.426, 1.861e-3
-1.425, 1.819e-3
-1.424, 1.794e-3
-1.423, 1.743e-3
-1.422, 1.721e-3
-1.421, 1.679e-3
-1.420, 1.660e-3
-1.419, 1.627e-3
-1.418, 1.594e-3
-1.417, 1.564e-3
-1.416, 1.530e-3
-1.415, 1.495e-3
-1.414, 1.469e-3
-1.413, 1.433e-3
-1.412, 1.405e-3
-1.411, 1.376e-3
-1.410, 1.355e-3
-1.409, 1.336e-3
-1.408, 1.307e-3
-1.407, 1.278e-3
-1.406, 1.247e-3
-1.405, 1.226e-3
-1.404, 1.202e-3
-1.403, 1.184e-3
-1.402, 1.161e-3
-1.401, 1.137e-3
-1.400, 1.114e-3
-1.399, 1.090e-3
-1.398, 1.066e-3
-1.397, 1.035e-3
-1.396, 1.010e-3
-1.395, 9.846e-4
-1.394, 9.649e-4
-1.393, 9.433e-4
-1.392, 9.269e-4
-1.391, 9.063e-4
-1.390, 8.837e-4
-1.389, 8.613e-4
-1.388, 8.398e-4
-1.387, 8.173e-4
-1.386, 7.983e-4
-1.385, 7.857e-4
-1.384, 7.700e-4
-1.383, 7.539e-4
-1.382, 7.325e-4
-1.381, 7.150e-4
-1.380, 7.003e-4
-1.379, 6.877e-4
-1.378, 6.740e-4
-1.377, 6.594e-4
-1.376, 6.424e-4
-1.375, 6.300e-4
-1.374, 6.146e-4
-1.373, 5.994e-4
-1.372, 5.806e-4
-1.371, 5.683e-4
-1.370, 5.511e-4
-1.369, 5.353e-4
-1.368, 5.236e-4
-1.367, 5.109e-4
-1.366, 4.955e-4
-1.365, 4.825e-4
-1.364, 4.710e-4
-1.363, 4.549e-4
-1.362, 4.437e-4
-1.361, 4.327e-4
-1.360, 4.221e-4
-1.359, 4.140e-4
-1.358, 4.033e-4
-1.357, 3.907e-4
-1.356, 3.802e-4
-1.355, 3.710e-4
-1.354, 3.585e-4
-1.353, 3.471e-4
-1.352, 3.374e-4
-1.351, 3.275e-4
-1.350, 3.176e-4
-1.349, 3.101e-4
-1.348, 2.997e-4
-1.347, 2.904e-4
-1.346, 2.811e-4
-1.345, 2.728e-4
-1.344, 2.642e-4
-1.343, 2.558e-4
-1.342, 2.478e-4
-1.341, 2.417e-4
-1.340, 2.337e-4
-1.339, 2.277e-4
-1.338, 2.194e-4
-1.337, 2.107e-4
-1.336, 2.040e-4
-1.335, 1.965e-4
-1.334, 1.913e-4
-1.333, 1.857e-4
-1.332, 1.796e-4
-1.331, 1.749e-4
-1.330, 1.711e-4
-1.329, 1.682e-4
-1.328, 1.633e-4
-1.327, 1.572e-4
-1.326, 1.514e-4
-1.325, 1.472e-4
-1.324, 1.427e-4
-1.323, 1.370e-4
-1.322, 1.317e-4
-1.321, 1.271e-4
-1.320, 1.228e-4
-1.319, 1.178e-4
-1.318, 1.126e-4
-1.317, 1.082e-4
-1.316, 1.046e-4
-1.315, 1.014e-4
-1.314, 9.742e-5
-1.313, 9.176e-5
-1.312, 8.787e-5
-1.311, 8.458e-5
-1.310, 8.213e-5
-1.309, 7.898e-5
-1.308, 7.463e-5
-1.307, 7.093e-5
-1.306, 6.810e-5
-1.305, 6.511e-5
-1.304, 6.226e-5
-1.303, 5.836e-5
-1.302, 5.447e-5
-1.301, 5.161e-5
-1.300, 4.940e-5
-1.299, 4.680e-5
-1.298, 4.375e-5
-1.297, 3.930e-5
-1.296, 3.663e-5
-1.295, 3.504e-5
-1.294, 3.372e-5
-1.293, 3.081e-5
-1.292, 2.850e-5
-1.291, 2.620e-5
-1.290, 2.482e-5
-1.289, 2.186e-5
-1.288, 1.972e-5
-1.287, 1.703e-5
-1.286, 1.455e-5
-1.285, 1.331e-5
-1.284, 1.148e-5
-1.283, 8.592e-6
-1.282, 6.204e-6
-1.281, 4.477e-6
-1.280, 2.439e-6
-1.279, 6.411e-7
-1.278, -1.511e-6
-1.277, -3.169e-6
-1.276, -4.156e-6
-1.275, -5.722e-6
-1.274, -6.779e-6
-1.273, -8.996e-6
-1.272, -1.045e-5
-1.271, -1.170e-5
-1.270, -1.312e-5
-1.269, -1.397e-5
-1.268, -1.537e-5
-1.267, -1.672e-5
-1.266, -1.759e-5
-1.265, -1.815e-5
-1.264, -1.679e-5
-1.263, -1.879e-5
-1.262, -2.099e-5
-1.261, -2.246e-5
-1.260, -2.441e-5
-1.259, -2.599e-5
-1.258, -2.668e-5
-1.257, -2.840e-5
-1.256, -2.940e-5
-1.255, -2.878e-5
-1.254, -3.071e-5
-1.253, -3.158e-5
-1.252, -3.343e-5
-1.251, -3.429e-5
-1.250, -3.560e-5
-1.249, -3.702e-5
-1.248, -3.801e-5
-1.247, -3.934e-5
-1.246, -3.982e-5
-1.245, -3.968e-5
-1.244, -4.028e-5
-1.243, -4.101e-5
-1.242, -4.258e-5
-1.241, -4.374e-5
-1.240, -4.439e-5
-1.239, -4.321e-5
-1.238, -4.366e-5
-1.237, -4.319e-5
-1.236, -4.503e-5
-1.235, -4.680e-5
-1.234, -4.787e-5
-1.233, -4.989e-5
-1.232, -5.109e-5
-1.231, -5.106e-5
-1.230, -5.130e-5
-1.229, -5.143e-5
-1.228, -5.195e-5
-1.227, -5.214e-5
-1.226, -5.201e-5
-1.225, -5.212e-5
-1.224, -5.243e-5
-1.223, -5.285e-5
-1.222, -5.591e-5
-1.221, -5.540e-5
-1.220, -5.480e-5
-1.219, -5.446e-5
-1.218, -5.442e-5
-1.217, -5.576e-5
-1.216, -5.509e-5
-1.215, -5.572e-5
-1.214, -5.737e-5
-1.213, -5.649e-5
-1.212, -5.873e-5
-1.211, -5.841e-5
-1.210, -5.803e-5
-1.209, -5.881e-5
-1.208, -5.801e-5
-1.207, -5.874e-5
-1.206, -5.902e-5
-1.205, -5.845e-5
-1.204, -5.857e-5
-1.203, -5.927e-5
-1.202, -6.005e-5
-1.201, -5.922e-5
-1.200, -5.881e-5
-1.199, -5.959e-5
-1.198, -5.989e-5
-1.197, -6.057e-5
-1.196, -6.037e-5
-1.195, -6.060e-5
-1.194, -6.074e-5
-1.193, -6.125e-5
-1.192, -6.206e-5
-1.191, -6.213e-5
-1.190, -6.233e-5
-1.189, -6.203e-5
-1.188, -6.199e-5
-1.187, -6.202e-5
-1.186, -6.187e-5
-1.185, -6.149e-5
-1.184, -6.106e-5
-1.183, -6.185e-5
-1.182, -6.258e-5
-1.181, -6.221e-5
-1.180, -6.265e-5
-1.179, -6.180e-5
-1.178, -6.309e-5
-1.177, -6.373e-5
-1.176, -6.366e-5
-1.175, -6.357e-5
-1.174, -6.349e-5
-1.173, -6.390e-5
-1.172, -6.463e-5
-1.171, -6.473e-5
-1.170, -6.363e-5
-1.169, -6.393e-5
-1.168, -6.369e-5
-1.167, -6.445e-5
-1.166, -6.507e-5
-1.165, -6.408e-5
-1.164, -6.433e-5
-1.163, -6.428e-5
-1.162, -6.520e-5
-1.161, -6.589e-5
-1.160, -6.529e-5
-1.159, -6.542e-5
-1.158, -6.564e-5
-1.157, -6.524e-5
-1.156, -6.684e-5
-1.155, -6.595e-5
-1.154, -6.638e-5
-1.153, -6.719e-5
-1.152, -6.726e-5
-1.151, -6.652e-5
-1.150, -6.668e-5
-1.149, -6.606e-5
-1.148, -6.641e-5
-1.147, -6.688e-5
-1.146, -6.675e-5
-1.145, -6.729e-5
-1.144, -6.673e-5
-1.143, -6.718e-5
-1.142, -6.814e-5
-1.141, -6.790e-5
-1.140, -6.801e-5
-1.139, -6.819e-5
-1.138, -6.801e-5
-1.137, -6.896e-5
-1.136, -6.952e-5
-1.135, -6.926e-5
-1.134, -6.894e-5
-1.133, -6.847e-5
-1.132, -6.975e-5
-1.131, -7.024e-5
-1.130, -6.992e-5
-1.129, -7.035e-5
-1.128, -7.030e-5
-1.127, -7.118e-5
-1.126, -7.178e-5
-1.125, -7.104e-5
-1.124, -7.117e-5
-1.123, -7.120e-5
-1.122, -7.186e-5
-1.121, -7.251e-5
-1.120, -7.218e-5
-1.119, -7.193e-5
-1.118, -7.274e-5
-1.117, -7.329e-5
-1.116, -7.348e-5
-1.115, -7.364e-5
-1.114, -7.350e-5
-1.113, -7.428e-5
-1.112, -7.498e-5
-1.111, -7.537e-5
-1.110, -7.462e-5
-1.109, -7.453e-5
-1.108, -7.509e-5
-1.107, -7.606e-5
-1.106, -7.647e-5
-1.105, -7.680e-5
-1.104, -7.647e-5
-1.103, -7.723e-5
-1.102, -7.814e-5
-1.101, -7.880e-5
-1.100, -7.853e-5
-1.099, -7.860e-5
-1.098, -7.903e-5
-1.097, -8.012e-5
-1.096, -8.085e-5
-1.095, -8.010e-5
-1.094, -8.039e-5
-1.093, -8.064e-5
-1.092, -8.185e-5
-1.091, -8.247e-5
-1.090, -8.196e-5
-1.089, -8.267e-5
-1.088, -8.321e-5
-1.087, -8.400e-5
-1.086, -8.483e-5
-1.085, -8.506e-5
-1.084, -8.530e-5
-1.083, -8.632e-5
-1.082, -8.650e-5
-1.081, -8.765e-5
-1.080, -8.734e-5
-1.079, -8.782e-5
-1.078, -8.881e-5
-1.077, -8.969e-5
-1.076, -9.066e-5
-1.075, -9.132e-5
-1.074, -9.102e-5
-1.073, -9.169e-5
-1.072, -9.257e-5
-1.071, -9.326e-5
-1.070, -9.380e-5
-1.069, -9.423e-5
-1.068, -9.345e-5
-1.067, -9.439e-5
-1.066, -9.515e-5
-1.065, -9.540e-5
-1.064, -9.501e-5
-1.063, -9.616e-5
-1.062, -9.739e-5
-1.061, -9.834e-5
-1.060, -9.831e-5
-1.059, -1.008e-4
-1.058, -1.015e-4
-1.057, -1.021e-4
-1.056, -1.034e-4
-1.055, -1.042e-4
-1.054, -1.043e-4
-1.053, -1.045e-4
-1.052, -1.070e-4
-1.051, -1.075e-4
-1.050, -1.074e-4
-1.049, -1.093e-4
-1.048, -1.083e-4
-1.047, -1.108e-4
-1.046, -1.114e-4
-1.045, -1.126e-4
-1.044, -1.134e-4
-1.043, -1.140e-4
-1.042, -1.155e-4
-1.041, -1.162e-4
-1.040, -1.177e-4
-1.039, -1.183e-4
-1.038, -1.197e-4
-1.037, -1.211e-4
-1.036, -1.228e-4
-1.035, -1.235e-4
-1.034, -1.246e-4
-1.033, -1.253e-4
-1.032, -1.273e-4
-1.031, -1.282e-4
-1.030, -1.292e-4
-1.029, -1.288e-4
-1.028, -1.303e-4
-1.027, -1.320e-4
-1.026, -1.333e-4
-1.025, -1.350e-4
-1.024, -1.359e-4
-1.023, -1.372e-4
-1.022, -1.395e-4
-1.021, -1.412e-4
-1.020, -1.421e-4
-1.019, -1.432e-4
-1.018, -1.444e-4
-1.017, -1.468e-4
-1.016, -1.485e-4
-1.015, -1.502e-4
-1.014, -1.520e-4
-1.013, -1.523e-4
-1.012, -1.558e-4
-1.011, -1.592e-4
-1.010, -1.592e-4
-1.009, -1.625e-4
-1.008, -1.644e-4
-1.007, -1.663e-4
-1.006, -1.680e-4
-1.005, -1.686e-4
-1.004, -1.714e-4
-1.003, -1.731e-4
-1.002, -1.765e-4
-1.001, -1.787e-4
-1.000, -1.307e-4
-1.001, -7.659e-5
-1.002, -4.812e-5
-1.003, -3.067e-5
-1.004, -1.663e-5
-1.005, -5.880e-6
-1.006, 3.261e-6
-1.007, 1.124e-5
-1.008, 1.698e-5
-1.009, 2.234e-5
-1.010, 2.713e-5
-1.011, 3.178e-5
-1.012, 3.570e-5
-1.013, 3.828e-5
-1.014, 4.113e-5
-1.015, 4.424e-5
-1.016, 4.704e-5
-1.017, 4.944e-5
-1.018, 5.119e-5
-1.019, 5.241e-5
-1.020, 5.448e-5
-1.021, 5.634e-5
-1.022, 5.783e-5
-1.023, 5.877e-5
-1.024, 5.971e-5
-1.025, 6.132e-5
-1.026, 6.280e-5
-1.027, 6.368e-5
-1.028, 6.450e-5
-1.029, 6.481e-5
-1.030, 6.604e-5
-1.031, 6.706e-5
-1.032, 6.785e-5
-1.033, 6.797e-5
-1.034, 6.803e-5
-1.035, 6.919e-5
-1.036, 7.053e-5
-1.037, 7.098e-5
-1.038, 7.126e-5
-1.039, 7.085e-5
-1.040, 7.182e-5
-1.041, 7.271e-5
-1.042, 7.279e-5
-1.043, 7.292e-5
-1.044, 7.279e-5
-1.045, 7.294e-5
-1.046, 7.396e-5
-1.047, 7.400e-5
-1.048, 7.380e-5
-1.049, 7.371e-5
-1.050, 7.422e-5
-1.051, 7.465e-5
-1.052, 7.483e-5
-1.053, 7.446e-5
-1.054, 7.383e-5
-1.055, 7.439e-5
-1.056, 7.467e-5
-1.057, 7.476e-5
-1.058, 7.465e-5
-1.059, 7.425e-5
-1.060, 7.486e-5
-1.061, 7.508e-5
-1.062, 7.475e-5
-1.063, 7.470e-5
-1.064, 7.384e-5
-1.065, 7.439e-5
-1.066, 7.449e-5
-1.067, 7.436e-5
-1.068, 7.451e-5
-1.069, 7.349e-5
-1.070, 7.401e-5
-1.071, 7.417e-5
-1.072, 7.403e-5
-1.073, 7.346e-5
-1.074, 7.318e-5
-1.075, 7.368e-5
-1.076, 7.326e-5
-1.077, 7.361e-5
-1.078, 7.243e-5
-1.079, 7.257e-5
-1.080, 7.253e-5
-1.081, 7.243e-5
-1.082, 7.316e-5
-1.083, 7.169e-5
-1.084, 7.192e-5
-1.085, 7.223e-5
-1.086, 7.208e-5
-1.087, 7.146e-5
-1.088, 7.142e-5
-1.089, 7.105e-5
-1.090, 7.034e-5
-1.091, 7.144e-5
-1.092, 7.084e-5
-1.093, 7.066e-5
-1.094, 6.983e-5
-1.095, 7.000e-5
-1.096, 7.023e-5
-1.097, 7.009e-5
-1.098, 6.998e-5
-1.099, 6.898e-5
-1.100, 6.934e-5
-1.101, 6.939e-5
-1.102, 6.941e-5
-1.103, 6.930e-5
-1.104, 6.827e-5
-1.105, 6.812e-5
-1.106, 6.891e-5
-1.107, 6.862e-5
-1.108, 6.812e-5
-1.109, 6.751e-5
-1.110, 6.755e-5
-1.111, 6.796e-5
-1.112, 6.780e-5
-1.113, 6.723e-5
-1.114, 6.692e-5
-1.115, 6.670e-5
-1.116, 6.737e-5
-1.117, 6.699e-5
-1.118, 6.649e-5
-1.119, 6.640e-5
-1.120, 6.592e-5
-1.121, 6.635e-5
-1.122, 6.656e-5
-1.123, 6.569e-5
-1.124, 6.553e-5
-1.125, 6.543e-5
-1.126, 6.551e-5
-1.127, 6.596e-5
-1.128, 6.489e-5
-1.129, 6.462e-5
-1.130, 6.456e-5
-1.131, 6.497e-5
-1.132, 6.520e-5
-1.133, 6.407e-5
-1.134, 6.425e-5
-1.135, 6.395e-5
-1.136, 6.407e-5
-1.137, 6.458e-5
-1.138, 6.374e-5
-1.139, 6.333e-5
-1.140, 6.390e-5
-1.141, 6.326e-5
-1.142, 6.364e-5
-1.143, 6.356e-5
-1.144, 6.249e-5
-1.145, 6.269e-5
-1.146, 6.324e-5
-1.147, 6.305e-5
-1.148, 6.323e-5
-1.149, 6.227e-5
-1.150, 6.221e-5
-1.151, 6.281e-5
-1.152, 6.241e-5
-1.153, 6.255e-5
-1.154, 6.158e-5
-1.155, 6.170e-5
-1.156, 6.204e-5
-1.157, 6.217e-5
-1.158, 6.153e-5
-1.159, 6.130e-5
-1.160, 6.138e-5
-1.161, 6.140e-5
-1.162, 6.175e-5
-1.163, 6.119e-5
-1.164, 6.065e-5
-1.165, 6.093e-5
-1.166, 6.108e-5
-1.167, 6.129e-5
-1.168, 6.073e-5
-1.169, 6.011e-5
-1.170, 6.057e-5
-1.171, 6.094e-5
-1.172, 6.065e-5
-1.173, 6.049e-5
-1.174, 5.981e-5
-1.175, 5.999e-5
-1.176, 6.030e-5
-1.177, 6.066e-5
-1.178, 6.032e-5
-1.179, 5.949e-5
-1.180, 5.966e-5
-1.181, 5.982e-5
-1.182, 6.022e-5
-1.183, 5.958e-5
-1.184, 5.905e-5
-1.185, 5.941e-5
-1.186, 5.953e-5
-1.187, 5.986e-5
-1.188, 5.938e-5
-1.189, 5.876e-5
-1.190, 5.890e-5
-1.191, 5.916e-5
-1.192, 5.973e-5
-1.193, 5.891e-5
-1.194, 5.828e-5
-1.195, 5.879e-5
-1.196, 5.893e-5
-1.197, 5.927e-5
-1.198, 5.847e-5
-1.199, 5.850e-5
-1.200, 5.833e-5
-1.201, 5.853e-5
-1.202, 5.913e-5
-1.203, 5.839e-5
-1.204, 5.822e-5
-1.205, 5.815e-5
-1.206, 5.839e-5
-1.207, 5.901e-5
-1.208, 5.848e-5
-1.209, 5.806e-5
-1.210, 5.824e-5
-1.211, 5.854e-5
-1.212, 5.895e-5
-1.213, 5.864e-5
-1.214, 5.827e-5
-1.215, 5.866e-5
-1.216, 5.871e-5
-1.217, 5.915e-5
-1.218, 5.950e-5
-1.219, 5.815e-5
-1.220, 5.914e-5
-1.221, 5.947e-5
-1.222, 5.965e-5
-1.223, 6.007e-5
-1.224, 5.912e-5
-1.225, 5.967e-5
-1.226, 6.026e-5
-1.227, 6.051e-5
-1.228, 6.085e-5
-1.229, 6.090e-5
-1.230, 6.060e-5
-1.231, 6.105e-5
-1.232, 6.174e-5
-1.233, 6.142e-5
-1.234, 6.158e-5
-1.235, 6.150e-5
-1.236, 6.244e-5
-1.237, 6.289e-5
-1.238, 6.268e-5
-1.239, 6.263e-5
-1.240, 6.288e-5
-1.241, 6.364e-5
-1.242, 6.424e-5
-1.243, 6.420e-5
-1.244, 6.414e-5
-1.245, 6.426e-5
-1.246, 6.520e-5
-1.247, 6.565e-5
-1.248, 6.586e-5
-1.249, 6.559e-5
-1.250, 6.622e-5
-1.251, 6.676e-5
-1.252, 6.745e-5
-1.253, 6.779e-5
-1.254, 6.741e-5
-1.255, 6.812e-5
-1.256, 6.878e-5
-1.257, 6.902e-5
-1.258, 7.009e-5
-1.259, 6.953e-5
-1.260, 6.933e-5
-1.261, 7.159e-5
-1.262, 7.164e-5
-1.263, 7.190e-5
-1.264, 7.224e-5
-1.265, 7.225e-5
-1.266, 7.364e-5
-1.267, 7.412e-5
-1.268, 7.426e-5
-1.269, 7.458e-5
-1.270, 7.481e-5
-1.271, 7.623e-5
-1.272, 7.655e-5
-1.273, 7.727e-5
-1.274, 7.741e-5
-1.275, 7.736e-5
-1.276, 7.957e-5
-1.277, 7.956e-5
-1.278, 7.968e-5
-1.279, 8.118e-5
-1.280, 8.073e-5
-1.281, 8.257e-5
-1.282, 8.320e-5
-1.283, 8.338e-5
-1.284, 8.402e-5
-1.285, 8.453e-5
-1.286, 8.568e-5
-1.287, 8.722e-5
-1.288, 8.699e-5
-1.289, 8.760e-5
-1.290, 8.862e-5
-1.291, 8.956e-5
-1.292, 9.112e-5
-1.293, 9.140e-5
-1.294, 9.185e-5
-1.295, 9.285e-5
-1.296, 9.406e-5
-1.297, 9.537e-5
-1.298, 9.607e-5
-1.299, 9.669e-5
-1.300, 9.765e-5
-1.301, 9.906e-5
-1.302, 1.002e-4
-1.303, 1.011e-4
-1.304, 1.021e-4
-1.305, 1.026e-4
-1.306, 1.048e-4
-1.307, 1.058e-4
-1.308, 1.070e-4
-1.309, 1.078e-4
-1.310, 1.088e-4
-1.311, 1.108e-4
-1.312, 1.121e-4
-1.313, 1.135e-4
-1.314, 1.136e-4
-1.315, 1.156e-4
-1.316, 1.176e-4
-1.317, 1.185e-4
-1.318, 1.206e-4
-1.319, 1.211e-4
-1.320, 1.227e-4
-1.321, 1.253e-4
-1.322, 1.261e-4
-1.323, 1.284e-4
-1.324, 1.292e-4
-1.325, 1.310e-4
-1.326, 1.335e-4
-1.327, 1.350e-4
-1.328, 1.372e-4
-1.329, 1.379e-4
-1.330, 1.403e-4
-1.331, 1.437e-4
-1.332, 1.450e-4
-1.333, 1.465e-4
-1.334, 1.493e-4
-1.335, 1.506e-4
-1.336, 1.539e-4
-1.337, 1.558e-4
-1.338, 1.591e-4
-1.339, 1.601e-4
-1.340, 1.632e-4
-1.341, 1.665e-4
-1.342, 1.701e-4
-1.343, 1.728e-4
-1.344, 1.744e-4
-1.345, 1.775e-4
-1.346, 1.803e-4
-1.347, 1.838e-4
-1.348, 1.869e-4
-1.349, 1.897e-4
-1.350, 1.933e-4
-1.351, 1.966e-4
-1.352, 2.017e-4
-1.353, 2.044e-4
-1.354, 2.079e-4
-1.355, 2.121e-4
-1.356, 2.168e-4
-1.357, 2.203e-4
-1.358, 2.257e-4
-1.359, 2.292e-4
-1.360, 2.346e-4
-1.361, 2.395e-4
-1.362, 2.450e-4
-1.363, 2.511e-4
-1.364, 2.557e-4
-1.365, 2.622e-4
-1.366, 2.660e-4
-1.367, 2.758e-4
-1.368, 2.806e-4
-1.369, 2.853e-4
-1.370, 2.967e-4
-1.371, 3.003e-4
-1.372, 3.117e-4
-1.373, 3.192e-4
-1.374, 3.247e-4
-1.375, 3.379e-4
-1.376, 3.453e-4
-1.377, 3.537e-4
-1.378, 3.674e-4
-1.379, 3.751e-4
-1.380, 3.879e-4
-1.381, 4.004e-4
-1.382, 4.112e-4
-1.383, 4.256e-4
-1.384, 4.377e-4
-1.385, 4.520e-4
-1.386, 4.680e-4
-1.387, 4.806e-4
-1.388, 4.998e-4
-1.389, 5.148e-4
-1.390, 5.315e-4
-1.391, 5.518e-4
-1.392, 5.706e-4
-1.393, 5.869e-4
-1.394, 6.079e-4
-1.395, 6.297e-4
-1.396, 6.503e-4
-1.397, 6.737e-4
-1.398, 6.977e-4
-1.399, 7.183e-4
-1.400, 7.468e-4
-1.401, 7.692e-4
-1.402, 7.996e-4
-1.403, 8.250e-4
-1.404, 8.524e-4
-1.405, 8.821e-4
-1.406, 9.101e-4
-1.407, 9.435e-4
-1.408, 9.741e-4
-1.409, 1.004e-3
-1.410, 1.037e-3
-1.411, 1.075e-3
-1.412, 1.109e-3
-1.413, 1.146e-3
-1.414, 1.180e-3
-1.415, 1.219e-3
-1.416, 1.257e-3
-1.417, 1.294e-3
-1.418, 1.337e-3
-1.419, 1.382e-3
-1.420, 1.424e-3
-1.421, 1.474e-3
-1.422, 1.520e-3
-1.423, 1.565e-3
-1.424, 1.601e-3
-1.425, 1.640e-3
-1.426, 1.691e-3
-1.427, 1.727e-3
-1.428, 1.772e-3
-1.429, 1.814e-3
-1.430, 1.868e-3
-1.431, 1.920e-3
-1.432, 1.971e-3
-1.433, 2.017e-3
-1.434, 2.065e-3
-1.435, 2.114e-3
-1.436, 2.158e-3
-1.437, 2.198e-3
-1.438, 2.237e-3
-1.439, 2.276e-3
-1.440, 2.327e-3
-1.441, 2.382e-3
-1.442, 2.413e-3
-1.443, 2.452e-3
-1.444, 2.489e-3
-1.445, 2.526e-3
-1.446, 2.604e-3
-1.447, 2.657e-3
-1.448, 2.708e-3
-1.449, 2.764e-3
-1.450, 2.794e-3
-1.451, 2.834e-3
-1.452, 2.887e-3
-1.453, 2.913e-3
-1.454, 2.989e-3
-1.455, 3.036e-3
-1.456, 3.095e-3
-1.457, 3.118e-3
-1.458, 3.156e-3
-1.459, 3.193e-3
-1.460, 3.242e-3
-1.461, 3.296e-3
-1.462, 3.350e-3
-1.463, 3.399e-3
-1.464, 3.439e-3
-1.465, 3.490e-3
-1.466, 3.531e-3
-1.467, 3.590e-3
-1.468, 3.640e-3
-1.469, 3.674e-3
-1.470, 3.710e-3
-1.471, 3.753e-3
-1.472, 3.808e-3
-1.473, 3.911e-3
-1.474, 3.981e-3
-1.475, 4.033e-3
-1.476, 4.089e-3
-1.477, 4.162e-3
-1.478, 4.175e-3
-1.479, 4.227e-3
-1.480, 4.273e-3
-1.481, 4.326e-3
-1.482, 4.400e-3
-1.483, 4.476e-3
-1.484, 4.455e-3
-1.485, 4.516e-3
-1.486, 4.553e-3
-1.487, 4.634e-3
-1.488, 4.729e-3
-1.489, 4.736e-3
-1.490, 4.812e-3
-1.491, 4.818e-3
-1.492, 4.831e-3
-1.493, 4.898e-3
-1.494, 4.937e-3
-1.495, 4.984e-3
-1.496, 5.124e-3
-1.497, 5.090e-3
-1.498, 5.094e-3
-1.499, 5.164e-3
-1.500, 5.201e-3
-1.499, 5.080e-3
-1.498, 5.054e-3
-1.497, 4.938e-3
-1.496, 4.904e-3
-1.495, 4.877e-3
-1.494, 4.814e-3
-1.493, 4.778e-3
-1.492, 4.736e-3
-1.491, 4.681e-3
-1.490, 4.613e-3
-1.489, 4.566e-3
-1.488, 4.524e-3
-1.487, 4.450e-3
-1.486, 4.410e-3
-1.485, 4.352e-3
-1.484, 4.269e-3
-1.483, 4.265e-3
-1.482, 4.151e-3
-1.481, 4.118e-3
-1.480, 4.078e-3
-1.479, 4.007e-3
-1.478, 3.982e-3
-1.477, 3.922e-3
-1.476, 3.857e-3
-1.475, 3.802e-3
-1.474, 3.770e-3
-1.473, 3.707e-3
-1.472, 3.644e-3
-1.471, 3.610e-3
-1.470, 3.542e-3
-1.469, 3.488e-3
-1.468, 3.481e-3
-1.467, 3.399e-3
-1.466, 3.352e-3
-1.465, 3.318e-3
-1.464, 3.252e-3
-1.463, 3.216e-3
-1.462, 3.178e-3
-1.461, 3.132e-3
-1.460, 3.109e-3
-1.459, 3.065e-3
-1.458, 3.005e-3
-1.457, 2.988e-3
-1.456, 2.903e-3
-1.455, 2.865e-3
-1.454, 2.830e-3
-1.453, 2.772e-3
-1.452, 2.752e-3
-1.451, 2.700e-3
-1.450, 2.643e-3
-1.449, 2.611e-3
-1.448, 2.559e-3
-1.447, 2.535e-3
-1.446, 2.488e-3
-1.445, 2.447e-3
-1.444, 2.412e-3
-1.443, 2.360e-3
-1.442, 2.326e-3
-1.441, 2.292e-3
-1.440, 2.260e-3
-1.439, 2.207e-3
-1.438, 2.168e-3
-1.437, 2.139e-3
-1.436, 2.106e-3
-1.435, 2.063e-3
-1.434, 2.043e-3
-1.433, 2.006e-3
-1.432, 1.964e-3
-1.431, 1.934e-3
-1.430, 1.883e-3
-1.429, 1.856e-3
-1.428, 1.807e-3
-1.427, 1.788e-3
-1.426, 1.780e-3
-1.425, 1.736e-3
-1.424, 1.711e-3
-1.423, 1.682e-3
-1.422, 1.653e-3
-1.421, 1.616e-3
-1.420, 1.582e-3
-1.419, 1.550e-3
-1.418, 1.520e-3
-1.417, 1.503e-3
-1.416, 1.470e-3
-1.415, 1.440e-3
-1.414, 1.412e-3
-1.413, 1.378e-3
-1.412, 1.356e-3
-1.411, 1.311e-3
-1.410, 1.286e-3
-1.409, 1.255e-3
-1.408, 1.227e-3
-1.407, 1.210e-3
-1.406, 1.193e-3
-1.405, 1.167e-3
-1.404, 1.149e-3
-1.403, 1.122e-3
-1.402, 1.096e-3
-1.401, 1.069e-3
-1.400, 1.042e-3
-1.399, 1.020e-3
-1.398, 9.929e-4
-1.397, 9.733e-4
-1.396, 9.478e-4
-1.395, 9.335e-4
-1.394, 9.129e-4
-1.393, 8.938e-4
-1.392, 8.739e-4
-1.391, 8.527e-4
-1.390, 8.295e-4
-1.389, 8.062e-4
-1.388, 7.891e-4
-1.387, 7.658e-4
-1.386, 7.523e-4
-1.385, 7.350e-4
-1.384, 7.211e-4
-1.383, 7.017e-4
-1.382, 6.857e-4
-1.381, 6.754e-4
-1.380, 6.625e-4
-1.379, 6.473e-4
-1.378, 6.340e-4
-1.377, 6.179e-4
-1.376, 6.043e-4
-1.375, 5.894e-4
-1.374, 5.726e-4
-1.373, 5.579e-4
-1.372, 5.430e-4
-1.371, 5.302e-4
-1.370, 5.152e-4
-1.369, 5.037e-4
-1.368, 4.905e-4
-1.367, 4.765e-4
-1.366, 4.644e-4
-1.365, 4.519e-4
-1.364, 4.386e-4
-1.363, 4.310e-4
-1.362, 4.228e-4
-1.361, 4.101e-4
-1.360, 3.997e-4
-1.359, 3.900e-4
-1.358, 3.802e-4
-1.357, 3.683e-4
-1.356, 3.568e-4
-1.355, 3.469e-4
-1.354, 3.365e-4
-1.353, 3.273e-4
-1.352, 3.198e-4
-1.351, 3.089e-4
-1.350, 2.994e-4
-1.349, 2.928e-4
-1.348, 2.817e-4
-1.347, 2.742e-4
-1.346, 2.657e-4
-1.345, 2.582e-4
-1.344, 2.509e-4
-1.343, 2.411e-4
-1.342, 2.342e-4
-1.341, 2.258e-4
-1.340, 2.175e-4
-1.339, 2.104e-4
-1.338, 2.043e-4
-1.337, 1.981e-4
-1.336, 1.924e-4
-1.335, 1.855e-4
-1.334, 1.796e-4
-1.333, 1.742e-4
-1.332, 1.689e-4
-1.331, 1.634e-4
-1.330, 1.608e-4
-1.329, 1.568e-4
-1.328, 1.530e-4
-1.327, 1.468e-4
-1.326, 1.421e-4
-1.325, 1.371e-4
-1.324, 1.313e-4
-1.323, 1.279e-4
-1.322, 1.233e-4
-1.321, 1.192e-4
-1.320, 1.141e-4
-1.319, 1.103e-4
-1.318, 1.057e-4
-1.317, 1.022e-4
-1.316, 9.748e-5
-1.315, 9.315e-5
-1.314, 9.137e-5
-1.313, 8.729e-5
-1.312, 8.435e-5
-1.311, 8.119e-5
-1.310, 7.696e-5
-1.309, 7.369e-5
-1.308, 7.095e-5
-1.307, 6.748e-5
-1.306, 6.456e-5
-1.305, 6.030e-5
-1.304, 5.706e-5
-1.303, 5.439e-5
-1.302, 5.089e-5
-1.301, 4.814e-5
-1.300, 4.467e-5
-1.299, 4.325e-5
-1.298, 4.146e-5
-1.297, 3.874e-5
-1.296, 3.665e-5
-1.295, 3.404e-5
-1.294, 3.142e-5
-1.293, 2.945e-5
-1.292, 2.702e-5
-1.291, 2.402e-5
-1.290, 2.210e-5
-1.289, 2.006e-5
-1.288, 1.856e-5
-1.287, 1.639e-5
-1.286, 1.392e-5
-1.285, 1.209e-5
-1.284, 1.019e-5
-1.283, 8.911e-6
-1.282, 7.223e-6
-1.281, 4.830e-6
-1.280, 3.157e-6
-1.279, 1.254e-6
-1.278, -1.302e-8
-1.277, -7.076e-7
-1.276, -2.222e-6
-1.275, -4.168e-6
-1.274, -5.731e-6
-1.273, -7.124e-6
-1.272, -8.623e-6
-1.271, -1.059e-5
-1.270, -1.225e-5
-1.269, -1.335e-5
-1.268, -1.420e-5
-1.267, -1.540e-5
-1.266, -1.660e-5
-1.265, -1.957e-5
-1.264, -2.148e-5
-1.263, -2.250e-5
-1.262, -2.272e-5
-1.261, -2.369e-5
-1.260, -2.531e-5
-1.259, -2.703e-5
-1.258, -2.749e-5
-1.257, -2.786e-5
-1.256, -2.959e-5
-1.255, -3.092e-5
-1.254, -3.221e-5
-1.253, -3.273e-5
-1.252, -3.269e-5
-1.251, -3.396e-5
-1.250, -3.365e-5
-1.249, -3.505e-5
-1.248, -3.568e-5
-1.247, -3.624e-5
-1.246, -3.743e-5
-1.245, -3.937e-5
-1.244, -4.027e-5
-1.243, -4.138e-5
-1.242, -4.109e-5
-1.241, -4.136e-5
-1.240, -4.006e-5
-1.239, -4.034e-5
-1.238, -4.192e-5
-1.237, -4.217e-5
-1.236, -4.398e-5
-1.235, -4.510e-5
-1.234, -4.530e-5
-1.233, -4.536e-5
-1.232, -4.547e-5
-1.231, -4.746e-5
-1.230, -4.796e-5
-1.229, -4.928e-5
-1.228, -4.938e-5
-1.227, -4.873e-5
-1.226, -5.089e-5
-1.225, -5.153e-5
-1.224, -5.241e-5
-1.223, -5.219e-5
-1.222, -5.240e-5
-1.221, -5.234e-5
-1.220, -5.289e-5
-1.219, -5.344e-5
-1.218, -5.265e-5
-1.217, -5.370e-5
-1.216, -5.283e-5
-1.215, -5.452e-5
-1.214, -5.496e-5
-1.213, -5.423e-5
-1.212, -5.383e-5
-1.211, -5.430e-5
-1.210, -5.470e-5
-1.209, -5.583e-5
-1.208, -5.530e-5
-1.207, -5.529e-5
-1.206, -5.635e-5
-1.205, -5.652e-5
-1.204, -5.705e-5
-1.203, -5.649e-5
-1.202, -5.652e-5
-1.201, -5.671e-5
-1.200, -5.785e-5
-1.199, -5.773e-5
-1.198, -5.785e-5
-1.197, -5.683e-5
-1.196, -5.721e-5
-1.195, -5.829e-5
-1.194, -5.845e-5
-1.193, -5.860e-5
-1.192, -5.836e-5
-1.191, -5.864e-5
-1.190, -5.981e-5
-1.189, -5.911e-5
-1.188, -5.914e-5
-1.187, -5.867e-5
-1.186, -5.866e-5
-1.185, -5.984e-5
-1.184, -6.050e-5
-1.183, -6.034e-5
-1.182, -6.026e-5
-1.181, -6.114e-5
-1.180, -6.153e-5
-1.179, -6.161e-5
-1.178, -6.205e-5
-1.177, -5.969e-5
-1.176, -6.154e-5
-1.175, -6.152e-5
-1.174, -6.094e-5
-1.173, -6.137e-5
-1.172, -6.171e-5
-1.171, -6.138e-5
-1.170, -6.136e-5
-1.169, -6.136e-5
-1.168, -6.100e-5
-1.167, -6.119e-5
-1.166, -6.130e-5
-1.165, -6.164e-5
-1.164, -6.182e-5
-1.163, -6.190e-5
-1.162, -6.136e-5
-1.161, -6.245e-5
-1.160, -6.204e-5
-1.159, -6.265e-5
-1.158, -6.189e-5
-1.157, -6.203e-5
-1.156, -6.234e-5
-1.155, -6.315e-5
-1.154, -6.365e-5
-1.153, -6.265e-5
-1.152, -6.235e-5
-1.151, -6.327e-5
-1.150, -6.350e-5
-1.149, -6.411e-5
-1.148, -6.381e-5
-1.147, -6.384e-5
-1.146, -6.362e-5
-1.145, -6.481e-5
-1.144, -6.463e-5
-1.143, -6.472e-5
-1.142, -6.454e-5
-1.141, -6.472e-5
-1.140, -6.544e-5
-1.139, -6.552e-5
-1.138, -6.525e-5
-1.137, -6.694e-5
-1.136, -6.641e-5
-1.135, -6.797e-5
-1.134, -6.747e-5
-1.133, -6.701e-5
-1.132, -6.678e-5
-1.131, -6.762e-5
-1.130, -6.764e-5
-1.129, -6.885e-5
-1.128, -6.783e-5
-1.127, -6.836e-5
-1.126, -6.816e-5
-1.125, -6.876e-5
-1.124, -6.936e-5
-1.123, -6.945e-5
-1.122, -6.933e-5
-1.121, -6.994e-5
-1.120, -7.081e-5
-1.119, -7.060e-5
-1.118, -7.048e-5
-1.117, -7.025e-5
-1.116, -7.087e-5
-1.115, -7.210e-5
-1.114, -7.246e-5
-1.113, -7.254e-5
-1.112, -7.213e-5
-1.111, -7.295e-5
-1.110, -7.346e-5
-1.109, -7.378e-5
-1.108, -7.394e-5
-1.107, -7.375e-5
-1.106, -7.392e-5
-1.105, -7.503e-5
-1.104, -7.516e-5
-1.103, -7.504e-5
-1.102, -7.555e-5
-1.101, -7.543e-5
-1.100, -7.579e-5
-1.099, -7.696e-5
-1.098, -7.561e-5
-1.097, -7.593e-5
-1.096, -7.750e-5
-1.095, -7.711e-5
-1.094, -7.903e-5
-1.093, -7.821e-5
-1.092, -7.831e-5
-1.091, -7.955e-5
-1.090, -7.932e-5
-1.089, -8.049e-5
-1.088, -8.099e-5
-1.087, -8.048e-5
-1.086, -8.202e-5
-1.085, -8.277e-5
-1.084, -8.317e-5
-1.083, -8.337e-5
-1.082, -8.362e-5
-1.081, -8.407e-5
-1.080, -8.510e-5
-1.079, -8.554e-5
-1.078, -8.565e-5
-1.077, -8.678e-5
-1.076, -8.870e-5
-1.075, -8.906e-5
-1.074, -8.846e-5
-1.073, -8.918e-5
-1.072, -8.887e-5
-1.071, -8.935e-5
-1.070, -9.174e-5
-1.069, -9.091e-5
-1.068, -9.213e-5
-1.067, -9.193e-5
-1.066, -9.248e-5
-1.065, -9.371e-5
-1.064, -9.485e-5
-1.063, -9.487e-5
-1.062, -9.469e-5
-1.061, -9.438e-5
-1.060, -9.786e-5
-1.059, -9.845e-5
-1.058, -9.883e-5
-1.057, -1.003e-4
-1.056, -1.007e-4
-1.055, -1.011e-4
-1.054, -1.026e-4
-1.053, -1.016e-4
-1.052, -1.027e-4
-1.051, -1.027e-4
-1.050, -1.050e-4
-1.049, -1.059e-4
-1.048, -1.067e-4
-1.047, -1.061e-4
-1.046, -1.079e-4
-1.045, -1.097e-4
-1.044, -1.102e-4
-1.043, -1.117e-4
-1.042, -1.120e-4
-1.041, -1.118e-4
-1.040, -1.142e-4
-1.039, -1.149e-4
-1.038, -1.161e-4
-1.037, -1.169e-4
-1.036, -1.182e-4
-1.035, -1.196e-4
-1.034, -1.214e-4
-1.033, -1.218e-4
-1.032, -1.227e-4
-1.031, -1.237e-4
-1.030, -1.262e-4
-1.029, -1.267e-4
-1.028, -1.282e-4
-1.027, -1.287e-4
-1.026, -1.310e-4
-1.025, -1.315e-4
-1.024, -1.331e-4
-1.023, -1.336e-4
-1.022, -1.350e-4
-1.021, -1.363e-4
-1.020, -1.378e-4
-1.019, -1.397e-4
-1.018, -1.418e-4
-1.017, -1.429e-4
-1.016, -1.446e-4
-1.015, -1.465e-4
-1.014, -1.476e-4
-1.013, -1.496e-4
-1.012, -1.510e-4
-1.011, -1.523e-4
-1.010, -1.534e-4
-1.009, -1.544e-4
-1.008, -1.562e-4
-1.007, -1.577e-4
-1.006, -1.605e-4
-1.005, -1.637e-4
-1.004, -1.653e-4
-1.003, -1.676e-4
-1.002, -1.689e-4
-1.001, -1.714e-4
