Dec. 28, 2024   01:41:37
Cyclic Voltammetry
File: c:/users/guazh/data/banditlqround7_x0exp136_r20/2024-12-24-exp763\exp763-2024-12-28t01_29_19-h2koh\exp763_cv_sr_900mvs_efin_-1500mv.bin
Data Source:  Experiment
Instrument Model:  CHI760E
Header: CV ran at 900 mVs
Note: 

Init E (V) = -1
High E (V) = -1
Low E (V) = -1.5
Final E (V) = -1
Init P/N = N
Scan Rate (V/s) = 0.9
Segment = 3
Sample Interval (V) = 0.001
Quiet Time (sec) = 2
Sensitivity (A/V) = 0.01
Comp R (ohm) = 1.3

Results:

Channel 1:
Segment 1:

Segment 2:

Segment 3:

Potential/V, Current/A

-1.000, -1.128e-3
-1.001, -1.030e-3
-1.002, -9.309e-4
-1.003, -8.354e-4
-1.004, -7.398e-4
-1.005, -6.473e-4
-1.006, -5.548e-4
-1.007, -4.654e-4
-1.008, -3.821e-4
-1.009, -2.989e-4
-1.010, -2.249e-4
-1.011, -1.540e-4
-1.012, -8.309e-5
-1.013, -1.834e-5
-1.014, 4.332e-5
-1.015, 1.142e-4
-1.016, 1.790e-4
-1.017, 2.468e-4
-1.018, 3.177e-4
-1.019, 3.886e-4
-1.020, 4.626e-4
-1.021, 5.366e-4
-1.022, 6.106e-4
-1.023, 6.815e-4
-1.024, 7.524e-4
-1.025, 8.172e-4
-1.026, 8.788e-4
-1.027, 9.405e-4
-1.028, 9.991e-4
-1.029, 1.051e-3
-1.030, 1.110e-3
-1.031, 1.169e-3
-1.032, 1.227e-3
-1.033, 1.286e-3
-1.034, 1.351e-3
-1.035, 1.415e-3
-1.036, 1.480e-3
-1.037, 1.542e-3
-1.038, 1.603e-3
-1.039, 1.668e-3
-1.040, 1.724e-3
-1.041, 1.779e-3
-1.042, 1.835e-3
-1.043, 1.887e-3
-1.044, 1.936e-3
-1.045, 1.992e-3
-1.046, 2.044e-3
-1.047, 2.103e-3
-1.048, 2.161e-3
-1.049, 2.223e-3
-1.050, 2.285e-3
-1.051, 2.349e-3
-1.052, 2.408e-3
-1.053, 2.467e-3
-1.054, 2.522e-3
-1.055, 2.575e-3
-1.056, 2.624e-3
-1.057, 2.670e-3
-1.058, 2.713e-3
-1.059, 2.756e-3
-1.060, 2.803e-3
-1.061, 2.849e-3
-1.062, 2.898e-3
-1.063, 2.951e-3
-1.064, 3.006e-3
-1.065, 3.062e-3
-1.066, 3.120e-3
-1.067, 3.182e-3
-1.068, 3.237e-3
-1.069, 3.296e-3
-1.070, 3.348e-3
-1.071, 3.401e-3
-1.072, 3.450e-3
-1.073, 3.499e-3
-1.074, 3.543e-3
-1.075, 3.592e-3
-1.076, 3.641e-3
-1.077, 3.688e-3
-1.078, 3.740e-3
-1.079, 3.795e-3
-1.080, 3.851e-3
-1.081, 3.910e-3
-1.082, 3.968e-3
-1.083, 4.024e-3
-1.084, 4.079e-3
-1.085, 4.128e-3
-1.086, 4.178e-3
-1.087, 4.224e-3
-1.088, 4.273e-3
-1.089, 4.317e-3
-1.090, 4.372e-3
-1.091, 4.418e-3
-1.092, 4.477e-3
-1.093, 4.535e-3
-1.094, 4.594e-3
-1.095, 4.656e-3
-1.096, 4.717e-3
-1.097, 4.776e-3
-1.098, 4.838e-3
-1.099, 4.893e-3
-1.100, 4.945e-3
-1.101, 4.995e-3
-1.102, 5.047e-3
-1.103, 5.093e-3
-1.104, 5.134e-3
-1.105, 5.180e-3
-1.106, 5.229e-3
-1.107, 5.278e-3
-1.108, 5.331e-3
-1.109, 5.383e-3
-1.110, 5.442e-3
-1.111, 5.500e-3
-1.112, 5.559e-3
-1.113, 5.614e-3
-1.114, 5.673e-3
-1.115, 5.722e-3
-1.116, 5.772e-3
-1.117, 5.821e-3
-1.118, 5.870e-3
-1.119, 5.917e-3
-1.120, 5.966e-3
-1.121, 6.018e-3
-1.122, 6.071e-3
-1.123, 6.126e-3
-1.124, 6.179e-3
-1.125, 6.237e-3
-1.126, 6.293e-3
-1.127, 6.351e-3
-1.128, 6.401e-3
-1.129, 6.453e-3
-1.130, 6.502e-3
-1.131, 6.543e-3
-1.132, 6.589e-3
-1.133, 6.632e-3
-1.134, 6.672e-3
-1.135, 6.721e-3
-1.136, 6.771e-3
-1.137, 6.826e-3
-1.138, 6.885e-3
-1.139, 6.949e-3
-1.140, 7.014e-3
-1.141, 7.088e-3
-1.142, 7.156e-3
-1.143, 7.224e-3
-1.144, 7.289e-3
-1.145, 7.350e-3
-1.146, 7.409e-3
-1.147, 7.464e-3
-1.148, 7.517e-3
-1.149, 7.560e-3
-1.150, 7.609e-3
-1.151, 7.659e-3
-1.152, 7.705e-3
-1.153, 7.754e-3
-1.154, 7.800e-3
-1.155, 7.850e-3
-1.156, 7.899e-3
-1.157, 7.945e-3
-1.158, 7.992e-3
-1.159, 8.041e-3
-1.160, 8.087e-3
-1.161, 8.130e-3
-1.162, 8.183e-3
-1.163, 8.232e-3
-1.164, 8.281e-3
-1.165, 8.340e-3
-1.166, 8.395e-3
-1.167, 8.454e-3
-1.168, 8.516e-3
-1.169, 8.580e-3
-1.170, 8.642e-3
-1.171, 8.710e-3
-1.172, 8.772e-3
-1.173, 8.830e-3
-1.174, 8.892e-3
-1.175, 8.944e-3
-1.176, 8.994e-3
-1.177, 9.043e-3
-1.178, 9.092e-3
-1.179, 9.129e-3
-1.180, 9.175e-3
-1.181, 9.222e-3
-1.182, 9.271e-3
-1.183, 9.323e-3
-1.184, 9.376e-3
-1.185, 9.434e-3
-1.186, 9.496e-3
-1.187, 9.555e-3
-1.188, 9.610e-3
-1.189, 9.669e-3
-1.190, 9.718e-3
-1.191, 9.771e-3
-1.192, 9.823e-3
-1.193, 9.878e-3
-1.194, 9.925e-3
-1.195, 9.983e-3
-1.196, 1.004e-2
-1.197, 1.010e-2
-1.198, 1.016e-2
-1.199, 1.022e-2
-1.200, 1.029e-2
-1.201, 1.035e-2
-1.202, 1.041e-2
-1.203, 1.046e-2
-1.204, 1.052e-2
-1.205, 1.056e-2
-1.206, 1.061e-2
-1.207, 1.066e-2
-1.208, 1.070e-2
-1.209, 1.074e-2
-1.210, 1.078e-2
-1.211, 1.083e-2
-1.212, 1.088e-2
-1.213, 1.094e-2
-1.214, 1.100e-2
-1.215, 1.106e-2
-1.216, 1.113e-2
-1.217, 1.119e-2
-1.218, 1.125e-2
-1.219, 1.132e-2
-1.220, 1.137e-2
-1.221, 1.142e-2
-1.222, 1.147e-2
-1.223, 1.151e-2
-1.224, 1.156e-2
-1.225, 1.160e-2
-1.226, 1.166e-2
-1.227, 1.171e-2
-1.228, 1.177e-2
-1.229, 1.183e-2
-1.230, 1.189e-2
-1.231, 1.196e-2
-1.232, 1.203e-2
-1.233, 1.210e-2
-1.234, 1.217e-2
-1.235, 1.222e-2
-1.236, 1.228e-2
-1.237, 1.233e-2
-1.238, 1.238e-2
-1.239, 1.242e-2
-1.240, 1.246e-2
-1.241, 1.250e-2
-1.242, 1.255e-2
-1.243, 1.259e-2
-1.244, 1.263e-2
-1.245, 1.268e-2
-1.246, 1.274e-2
-1.247, 1.278e-2
-1.248, 1.283e-2
-1.249, 1.287e-2
-1.250, 1.291e-2
-1.251, 1.295e-2
-1.252, 1.298e-2
-1.253, 1.302e-2
-1.254, 1.306e-2
-1.255, 1.311e-2
-1.256, 1.316e-2
-1.257, 1.321e-2
-1.258, 1.326e-2
-1.259, 1.332e-2
-1.260, 1.337e-2
-1.261, 1.343e-2
-1.262, 1.349e-2
-1.263, 1.354e-2
-1.264, 1.361e-2
-1.265, 1.367e-2
-1.266, 1.372e-2
-1.267, 1.378e-2
-1.268, 1.383e-2
-1.269, 1.388e-2
-1.270, 1.393e-2
-1.271, 1.397e-2
-1.272, 1.402e-2
-1.273, 1.407e-2
-1.274, 1.412e-2
-1.275, 1.418e-2
-1.276, 1.424e-2
-1.277, 1.430e-2
-1.278, 1.435e-2
-1.279, 1.440e-2
-1.280, 1.444e-2
-1.281, 1.448e-2
-1.282, 1.452e-2
-1.283, 1.456e-2
-1.284, 1.460e-2
-1.285, 1.465e-2
-1.286, 1.469e-2
-1.287, 1.475e-2
-1.288, 1.480e-2
-1.289, 1.485e-2
-1.290, 1.490e-2
-1.291, 1.495e-2
-1.292, 1.500e-2
-1.293, 1.504e-2
-1.294, 1.509e-2
-1.295, 1.514e-2
-1.296, 1.519e-2
-1.297, 1.525e-2
-1.298, 1.531e-2
-1.299, 1.536e-2
-1.300, 1.542e-2
-1.301, 1.548e-2
-1.302, 1.554e-2
-1.303, 1.560e-2
-1.304, 1.566e-2
-1.305, 1.572e-2
-1.306, 1.577e-2
-1.307, 1.582e-2
-1.308, 1.587e-2
-1.309, 1.591e-2
-1.310, 1.596e-2
-1.311, 1.599e-2
-1.312, 1.603e-2
-1.313, 1.606e-2
-1.314, 1.609e-2
-1.315, 1.612e-2
-1.316, 1.616e-2
-1.317, 1.619e-2
-1.318, 1.624e-2
-1.319, 1.628e-2
-1.320, 1.633e-2
-1.321, 1.638e-2
-1.322, 1.643e-2
-1.323, 1.648e-2
-1.324, 1.653e-2
-1.325, 1.657e-2
-1.326, 1.661e-2
-1.327, 1.665e-2
-1.328, 1.669e-2
-1.329, 1.672e-2
-1.330, 1.676e-2
-1.331, 1.680e-2
-1.332, 1.686e-2
-1.333, 1.691e-2
-1.334, 1.697e-2
-1.335, 1.703e-2
-1.336, 1.709e-2
-1.337, 1.714e-2
-1.338, 1.719e-2
-1.339, 1.725e-2
-1.340, 1.729e-2
-1.341, 1.733e-2
-1.342, 1.736e-2
-1.343, 1.740e-2
-1.344, 1.742e-2
-1.345, 1.745e-2
-1.346, 1.748e-2
-1.347, 1.750e-2
-1.348, 1.752e-2
-1.349, 1.755e-2
-1.350, 1.758e-2
-1.351, 1.761e-2
-1.352, 1.764e-2
-1.353, 1.766e-2
-1.354, 1.770e-2
-1.355, 1.773e-2
-1.356, 1.777e-2
-1.357, 1.780e-2
-1.358, 1.783e-2
-1.359, 1.786e-2
-1.360, 1.789e-2
-1.361, 1.793e-2
-1.362, 1.797e-2
-1.363, 1.802e-2
-1.364, 1.807e-2
-1.365, 1.812e-2
-1.366, 1.818e-2
-1.367, 1.824e-2
-1.368, 1.830e-2
-1.369, 1.835e-2
-1.370, 1.840e-2
-1.371, 1.844e-2
-1.372, 1.848e-2
-1.373, 1.851e-2
-1.374, 1.854e-2
-1.375, 1.859e-2
-1.376, 1.862e-2
-1.377, 1.866e-2
-1.378, 1.870e-2
-1.379, 1.873e-2
-1.380, 1.876e-2
-1.381, 1.879e-2
-1.382, 1.881e-2
-1.383, 1.883e-2
-1.384, 1.884e-2
-1.385, 1.884e-2
-1.386, 1.884e-2
-1.387, 1.884e-2
-1.388, 1.884e-2
-1.389, 1.885e-2
-1.390, 1.887e-2
-1.391, 1.889e-2
-1.392, 1.892e-2
-1.393, 1.896e-2
-1.394, 1.900e-2
-1.395, 1.905e-2
-1.396, 1.911e-2
-1.397, 1.916e-2
-1.398, 1.921e-2
-1.399, 1.927e-2
-1.400, 1.933e-2
-1.401, 1.938e-2
-1.402, 1.943e-2
-1.403, 1.948e-2
-1.404, 1.952e-2
-1.405, 1.956e-2
-1.406, 1.959e-2
-1.407, 1.962e-2
-1.408, 1.965e-2
-1.409, 1.966e-2
-1.410, 1.968e-2
-1.411, 1.969e-2
-1.412, 1.970e-2
-1.413, 1.970e-2
-1.414, 1.971e-2
-1.415, 1.972e-2
-1.416, 1.972e-2
-1.417, 1.972e-2
-1.418, 1.972e-2
-1.419, 1.972e-2
-1.420, 1.973e-2
-1.421, 1.973e-2
-1.422, 1.975e-2
-1.423, 1.977e-2
-1.424, 1.980e-2
-1.425, 1.984e-2
-1.426, 1.989e-2
-1.427, 1.993e-2
-1.428, 1.997e-2
-1.429, 2.002e-2
-1.430, 2.006e-2
-1.431, 2.009e-2
-1.432, 2.012e-2
-1.433, 2.015e-2
-1.434, 2.017e-2
-1.435, 2.019e-2
-1.436, 2.021e-2
-1.437, 2.023e-2
-1.438, 2.025e-2
-1.439, 2.027e-2
-1.440, 2.029e-2
-1.441, 2.031e-2
-1.442, 2.031e-2
-1.443, 2.031e-2
-1.444, 2.031e-2
-1.445, 2.031e-2
-1.446, 2.030e-2
-1.447, 2.029e-2
-1.448, 2.029e-2
-1.449, 2.028e-2
-1.450, 2.028e-2
-1.451, 2.028e-2
-1.452, 2.028e-2
-1.453, 2.029e-2
-1.454, 2.029e-2
-1.455, 2.030e-2
-1.456, 2.030e-2
-1.457, 2.031e-2
-1.458, 2.033e-2
-1.459, 2.035e-2
-1.460, 2.037e-2
-1.461, 2.039e-2
-1.462, 2.041e-2
-1.463, 2.043e-2
-1.464, 2.045e-2
-1.465, 2.048e-2
-1.466, 2.050e-2
-1.467, 2.052e-2
-1.468, 2.054e-2
-1.469, 2.055e-2
-1.470, 2.057e-2
-1.471, 2.059e-2
-1.472, 2.061e-2
-1.473, 2.063e-2
-1.474, 2.064e-2
-1.475, 2.065e-2
-1.476, 2.065e-2
-1.477, 2.064e-2
-1.478, 2.063e-2
-1.479, 2.061e-2
-1.480, 2.058e-2
-1.481, 2.054e-2
-1.482, 2.053e-2
-1.483, 2.053e-2
-1.484, 2.054e-2
-1.485, 2.056e-2
-1.486, 2.058e-2
-1.487, 2.060e-2
-1.488, 2.061e-2
-1.489, 2.064e-2
-1.490, 2.067e-2
-1.491, 2.069e-2
-1.492, 2.072e-2
-1.493, 2.075e-2
-1.494, 2.077e-2
-1.495, 2.080e-2
-1.496, 2.082e-2
-1.497, 2.085e-2
-1.498, 2.087e-2
-1.499, 2.089e-2
-1.500, 2.081e-2
-1.499, 2.059e-2
-1.498, 2.037e-2
-1.497, 2.015e-2
-1.496, 1.994e-2
-1.495, 1.974e-2
-1.494, 1.955e-2
-1.493, 1.937e-2
-1.492, 1.920e-2
-1.491, 1.903e-2
-1.490, 1.888e-2
-1.489, 1.872e-2
-1.488, 1.858e-2
-1.487, 1.845e-2
-1.486, 1.832e-2
-1.485, 1.820e-2
-1.484, 1.809e-2
-1.483, 1.797e-2
-1.482, 1.787e-2
-1.481, 1.776e-2
-1.480, 1.765e-2
-1.479, 1.752e-2
-1.478, 1.738e-2
-1.477, 1.723e-2
-1.476, 1.707e-2
-1.475, 1.690e-2
-1.474, 1.673e-2
-1.473, 1.655e-2
-1.472, 1.638e-2
-1.471, 1.622e-2
-1.470, 1.606e-2
-1.469, 1.591e-2
-1.468, 1.576e-2
-1.467, 1.562e-2
-1.466, 1.549e-2
-1.465, 1.535e-2
-1.464, 1.521e-2
-1.463, 1.508e-2
-1.462, 1.495e-2
-1.461, 1.483e-2
-1.460, 1.471e-2
-1.459, 1.459e-2
-1.458, 1.448e-2
-1.457, 1.436e-2
-1.456, 1.425e-2
-1.455, 1.414e-2
-1.454, 1.403e-2
-1.453, 1.391e-2
-1.452, 1.379e-2
-1.451, 1.367e-2
-1.450, 1.355e-2
-1.449, 1.342e-2
-1.448, 1.330e-2
-1.447, 1.317e-2
-1.446, 1.305e-2
-1.445, 1.293e-2
-1.444, 1.282e-2
-1.443, 1.271e-2
-1.442, 1.261e-2
-1.441, 1.251e-2
-1.440, 1.241e-2
-1.439, 1.231e-2
-1.438, 1.221e-2
-1.437, 1.212e-2
-1.436, 1.202e-2
-1.435, 1.192e-2
-1.434, 1.182e-2
-1.433, 1.172e-2
-1.432, 1.162e-2
-1.431, 1.152e-2
-1.430, 1.141e-2
-1.429, 1.130e-2
-1.428, 1.120e-2
-1.427, 1.109e-2
-1.426, 1.099e-2
-1.425, 1.088e-2
-1.424, 1.078e-2
-1.423, 1.067e-2
-1.422, 1.056e-2
-1.421, 1.046e-2
-1.420, 1.035e-2
-1.419, 1.025e-2
-1.418, 1.014e-2
-1.417, 1.004e-2
-1.416, 9.937e-3
-1.415, 9.841e-3
-1.414, 9.752e-3
-1.413, 9.669e-3
-1.412, 9.592e-3
-1.411, 9.512e-3
-1.410, 9.431e-3
-1.409, 9.357e-3
-1.408, 9.277e-3
-1.407, 9.191e-3
-1.406, 9.108e-3
-1.405, 9.021e-3
-1.404, 8.932e-3
-1.403, 8.843e-3
-1.402, 8.750e-3
-1.401, 8.654e-3
-1.400, 8.565e-3
-1.399, 8.479e-3
-1.398, 8.392e-3
-1.397, 8.312e-3
-1.396, 8.235e-3
-1.395, 8.155e-3
-1.394, 8.081e-3
-1.393, 8.001e-3
-1.392, 7.924e-3
-1.391, 7.847e-3
-1.390, 7.763e-3
-1.389, 7.674e-3
-1.388, 7.582e-3
-1.387, 7.492e-3
-1.386, 7.393e-3
-1.385, 7.304e-3
-1.384, 7.218e-3
-1.383, 7.134e-3
-1.382, 7.057e-3
-1.381, 6.983e-3
-1.380, 6.906e-3
-1.379, 6.832e-3
-1.378, 6.749e-3
-1.377, 6.660e-3
-1.376, 6.567e-3
-1.375, 6.469e-3
-1.374, 6.367e-3
-1.373, 6.268e-3
-1.372, 6.169e-3
-1.371, 6.077e-3
-1.370, 5.991e-3
-1.369, 5.910e-3
-1.368, 5.840e-3
-1.367, 5.775e-3
-1.366, 5.710e-3
-1.365, 5.651e-3
-1.364, 5.599e-3
-1.363, 5.544e-3
-1.362, 5.491e-3
-1.361, 5.436e-3
-1.360, 5.377e-3
-1.359, 5.312e-3
-1.358, 5.248e-3
-1.357, 5.180e-3
-1.356, 5.103e-3
-1.355, 5.029e-3
-1.354, 4.949e-3
-1.353, 4.871e-3
-1.352, 4.794e-3
-1.351, 4.714e-3
-1.350, 4.637e-3
-1.349, 4.560e-3
-1.348, 4.477e-3
-1.347, 4.397e-3
-1.346, 4.317e-3
-1.345, 4.233e-3
-1.344, 4.147e-3
-1.343, 4.064e-3
-1.342, 3.977e-3
-1.341, 3.897e-3
-1.340, 3.823e-3
-1.339, 3.752e-3
-1.338, 3.688e-3
-1.337, 3.629e-3
-1.336, 3.573e-3
-1.335, 3.518e-3
-1.334, 3.469e-3
-1.333, 3.413e-3
-1.332, 3.355e-3
-1.331, 3.299e-3
-1.330, 3.237e-3
-1.329, 3.170e-3
-1.328, 3.102e-3
-1.327, 3.034e-3
-1.326, 2.963e-3
-1.325, 2.898e-3
-1.324, 2.830e-3
-1.323, 2.769e-3
-1.322, 2.713e-3
-1.321, 2.655e-3
-1.320, 2.599e-3
-1.319, 2.547e-3
-1.318, 2.491e-3
-1.317, 2.436e-3
-1.316, 2.374e-3
-1.315, 2.312e-3
-1.314, 2.248e-3
-1.313, 2.183e-3
-1.312, 2.112e-3
-1.311, 2.044e-3
-1.310, 1.980e-3
-1.309, 1.915e-3
-1.308, 1.853e-3
-1.307, 1.795e-3
-1.306, 1.739e-3
-1.305, 1.684e-3
-1.304, 1.634e-3
-1.303, 1.576e-3
-1.302, 1.520e-3
-1.301, 1.465e-3
-1.300, 1.403e-3
-1.299, 1.341e-3
-1.298, 1.280e-3
-1.297, 1.212e-3
-1.296, 1.150e-3
-1.295, 1.088e-3
-1.294, 1.027e-3
-1.293, 9.744e-4
-1.292, 9.220e-4
-1.291, 8.696e-4
-1.290, 8.233e-4
-1.289, 7.771e-4
-1.288, 7.278e-4
-1.287, 6.784e-4
-1.286, 6.291e-4
-1.285, 5.767e-4
-1.284, 5.181e-4
-1.283, 4.626e-4
-1.282, 4.040e-4
-1.281, 3.424e-4
-1.280, 2.869e-4
-1.279, 2.252e-4
-1.278, 1.759e-4
-1.277, 1.266e-4
-1.276, 7.723e-5
-1.275, 2.790e-5
-1.274, -1.526e-5
-1.273, -6.767e-5
-1.272, -1.201e-4
-1.271, -1.725e-4
-1.270, -2.280e-4
-1.269, -2.866e-4
-1.268, -3.452e-4
-1.267, -4.037e-4
-1.266, -4.623e-4
-1.265, -5.178e-4
-1.264, -5.733e-4
-1.263, -6.226e-4
-1.262, -6.689e-4
-1.261, -7.151e-4
-1.260, -7.614e-4
-1.259, -8.015e-4
-1.258, -8.477e-4
-1.257, -8.970e-4
-1.256, -9.433e-4
-1.255, -9.926e-4
-1.254, -1.048e-3
-1.253, -1.097e-3
-1.252, -1.156e-3
-1.251, -1.212e-3
-1.250, -1.261e-3
-1.249, -1.316e-3
-1.248, -1.363e-3
-1.247, -1.406e-3
-1.246, -1.452e-3
-1.245, -1.492e-3
-1.244, -1.532e-3
-1.243, -1.575e-3
-1.242, -1.618e-3
-1.241, -1.662e-3
-1.240, -1.708e-3
-1.239, -1.757e-3
-1.238, -1.807e-3
-1.237, -1.859e-3
-1.236, -1.914e-3
-1.235, -1.961e-3
-1.234, -2.013e-3
-1.233, -2.059e-3
-1.232, -2.103e-3
-1.231, -2.146e-3
-1.230, -2.186e-3
-1.229, -2.226e-3
-1.228, -2.269e-3
-1.227, -2.309e-3
-1.226, -2.349e-3
-1.225, -2.399e-3
-1.224, -2.445e-3
-1.223, -2.494e-3
-1.222, -2.543e-3
-1.221, -2.596e-3
-1.220, -2.648e-3
-1.219, -2.694e-3
-1.218, -2.738e-3
-1.217, -2.778e-3
-1.216, -2.818e-3
-1.215, -2.855e-3
-1.214, -2.889e-3
-1.213, -2.923e-3
-1.212, -2.963e-3
-1.211, -3.003e-3
-1.210, -3.049e-3
-1.209, -3.095e-3
-1.208, -3.145e-3
-1.207, -3.194e-3
-1.206, -3.246e-3
-1.205, -3.293e-3
-1.204, -3.342e-3
-1.203, -3.385e-3
-1.202, -3.428e-3
-1.201, -3.468e-3
-1.200, -3.508e-3
-1.199, -3.542e-3
-1.198, -3.586e-3
-1.197, -3.622e-3
-1.196, -3.666e-3
-1.195, -3.712e-3
-1.194, -3.755e-3
-1.193, -3.801e-3
-1.192, -3.851e-3
-1.191, -3.897e-3
-1.190, -3.940e-3
-1.189, -3.986e-3
-1.188, -4.023e-3
-1.187, -4.060e-3
-1.186, -4.100e-3
-1.185, -4.140e-3
-1.184, -4.174e-3
-1.183, -4.214e-3
-1.182, -4.255e-3
-1.181, -4.292e-3
-1.180, -4.332e-3
-1.179, -4.369e-3
-1.178, -4.409e-3
-1.177, -4.449e-3
-1.176, -4.486e-3
-1.175, -4.523e-3
-1.174, -4.557e-3
-1.173, -4.584e-3
-1.172, -4.615e-3
-1.171, -4.643e-3
-1.170, -4.674e-3
-1.169, -4.702e-3
-1.168, -4.739e-3
-1.167, -4.779e-3
-1.166, -4.822e-3
-1.165, -4.871e-3
-1.164, -4.927e-3
-1.163, -4.979e-3
-1.162, -5.035e-3
-1.161, -5.090e-3
-1.160, -5.139e-3
-1.159, -5.192e-3
-1.158, -5.235e-3
-1.157, -5.281e-3
-1.156, -5.321e-3
-1.155, -5.368e-3
-1.154, -5.411e-3
-1.153, -5.460e-3
-1.152, -5.506e-3
-1.151, -5.553e-3
-1.150, -5.602e-3
-1.149, -5.654e-3
-1.148, -5.704e-3
-1.147, -5.753e-3
-1.146, -5.805e-3
-1.145, -5.852e-3
-1.144, -5.895e-3
-1.143, -5.926e-3
-1.142, -5.950e-3
-1.141, -5.972e-3
-1.140, -5.987e-3
-1.139, -5.996e-3
-1.138, -6.012e-3
-1.137, -6.030e-3
-1.136, -6.049e-3
-1.135, -6.074e-3
-1.134, -6.101e-3
-1.133, -6.132e-3
-1.132, -6.166e-3
-1.131, -6.200e-3
-1.130, -6.234e-3
-1.129, -6.271e-3
-1.128, -6.311e-3
-1.127, -6.354e-3
-1.126, -6.397e-3
-1.125, -6.437e-3
-1.124, -6.481e-3
-1.123, -6.524e-3
-1.122, -6.573e-3
-1.121, -6.625e-3
-1.120, -6.678e-3
-1.119, -6.736e-3
-1.118, -6.795e-3
-1.117, -6.857e-3
-1.116, -6.912e-3
-1.115, -6.965e-3
-1.114, -7.014e-3
-1.113, -7.054e-3
-1.112, -7.091e-3
-1.111, -7.125e-3
-1.110, -7.153e-3
-1.109, -7.174e-3
-1.108, -7.199e-3
-1.107, -7.217e-3
-1.106, -7.236e-3
-1.105, -7.254e-3
-1.104, -7.273e-3
-1.103, -7.294e-3
-1.102, -7.316e-3
-1.101, -7.341e-3
-1.100, -7.359e-3
-1.099, -7.384e-3
-1.098, -7.409e-3
-1.097, -7.439e-3
-1.096, -7.473e-3
-1.095, -7.513e-3
-1.094, -7.560e-3
-1.093, -7.615e-3
-1.092, -7.677e-3
-1.091, -7.745e-3
-1.090, -7.819e-3
-1.089, -7.896e-3
-1.088, -7.973e-3
-1.087, -8.053e-3
-1.086, -8.130e-3
-1.085, -8.201e-3
-1.084, -8.263e-3
-1.083, -8.309e-3
-1.082, -8.349e-3
-1.081, -8.380e-3
-1.080, -8.398e-3
-1.079, -8.411e-3
-1.078, -8.420e-3
-1.077, -8.429e-3
-1.076, -8.441e-3
-1.075, -8.457e-3
-1.074, -8.472e-3
-1.073, -8.488e-3
-1.072, -8.509e-3
-1.071, -8.531e-3
-1.070, -8.555e-3
-1.069, -8.589e-3
-1.068, -8.623e-3
-1.067, -8.666e-3
-1.066, -8.719e-3
-1.065, -8.777e-3
-1.064, -8.833e-3
-1.063, -8.904e-3
-1.062, -8.972e-3
-1.061, -9.043e-3
-1.060, -9.117e-3
-1.059, -9.191e-3
-1.058, -9.268e-3
-1.057, -9.342e-3
-1.056, -9.406e-3
-1.055, -9.468e-3
-1.054, -9.524e-3
-1.053, -9.567e-3
-1.052, -9.598e-3
-1.051, -9.622e-3
-1.050, -9.631e-3
-1.049, -9.631e-3
-1.048, -9.638e-3
-1.047, -9.644e-3
-1.046, -9.647e-3
-1.045, -9.656e-3
-1.044, -9.672e-3
-1.043, -9.690e-3
-1.042, -9.712e-3
-1.041, -9.736e-3
-1.040, -9.752e-3
-1.039, -9.770e-3
-1.038, -9.789e-3
-1.037, -9.816e-3
-1.036, -9.857e-3
-1.035, -9.903e-3
-1.034, -9.955e-3
-1.033, -1.002e-2
-1.032, -1.008e-2
-1.031, -1.016e-2
-1.030, -1.024e-2
-1.029, -1.030e-2
-1.028, -1.037e-2
-1.027, -1.042e-2
-1.026, -1.047e-2
-1.025, -1.051e-2
-1.024, -1.054e-2
-1.023, -1.056e-2
-1.022, -1.057e-2
-1.021, -1.057e-2
-1.020, -1.058e-2
-1.019, -1.058e-2
-1.018, -1.058e-2
-1.017, -1.059e-2
-1.016, -1.061e-2
-1.015, -1.063e-2
-1.014, -1.067e-2
-1.013, -1.071e-2
-1.012, -1.076e-2
-1.011, -1.081e-2
-1.010, -1.086e-2
-1.009, -1.092e-2
-1.008, -1.098e-2
-1.007, -1.104e-2
-1.006, -1.110e-2
-1.005, -1.116e-2
-1.004, -1.121e-2
-1.003, -1.126e-2
-1.002, -1.131e-2
-1.001, -1.136e-2
