Dec. 28, 2024   01:39:42
Cyclic Voltammetry
File: c:/users/guazh/data/banditlqround7_x0exp136_r20/2024-12-24-exp763\exp763-2024-12-28t01_29_19-h2koh\exp763_cv_sr_300mvs_efin_-1500mv.bin
Data Source:  Experiment
Instrument Model:  CHI760E
Header: CV ran at 300 mVs
Note: 

Init E (V) = -1
High E (V) = -1
Low E (V) = -1.5
Final E (V) = -1
Init P/N = N
Scan Rate (V/s) = 0.3
Segment = 3
Sample Interval (V) = 0.001
Quiet Time (sec) = 2
Sensitivity (A/V) = 0.01
Comp R (ohm) = 1.3

Results:

Channel 1:
Segment 1:

Segment 2:

Segment 3:

Potential/V, Current/A

-1.000, -1.202e-3
-1.001, -1.085e-3
-1.002, -9.895e-4
-1.003, -9.217e-4
-1.004, -8.600e-4
-1.005, -7.860e-4
-1.006, -6.997e-4
-1.007, -6.226e-4
-1.008, -5.671e-4
-1.009, -5.178e-4
-1.010, -4.531e-4
-1.011, -3.760e-4
-1.012, -3.082e-4
-1.013, -2.619e-4
-1.014, -2.218e-4
-1.015, -1.632e-4
-1.016, -8.925e-5
-1.017, -2.451e-5
-1.018, 1.557e-5
-1.019, 5.257e-5
-1.020, 1.081e-4
-1.021, 1.759e-4
-1.022, 2.376e-4
-1.023, 2.746e-4
-1.024, 3.085e-4
-1.025, 3.640e-4
-1.026, 4.287e-4
-1.027, 4.873e-4
-1.028, 5.212e-4
-1.029, 5.520e-4
-1.030, 6.014e-4
-1.031, 6.661e-4
-1.032, 7.185e-4
-1.033, 7.494e-4
-1.034, 7.771e-4
-1.035, 8.233e-4
-1.036, 8.850e-4
-1.037, 9.374e-4
-1.038, 9.713e-4
-1.039, 1.002e-3
-1.040, 1.045e-3
-1.041, 1.104e-3
-1.042, 1.150e-3
-1.043, 1.178e-3
-1.044, 1.203e-3
-1.045, 1.246e-3
-1.046, 1.307e-3
-1.047, 1.360e-3
-1.048, 1.388e-3
-1.049, 1.409e-3
-1.050, 1.452e-3
-1.051, 1.511e-3
-1.052, 1.557e-3
-1.053, 1.585e-3
-1.054, 1.606e-3
-1.055, 1.653e-3
-1.056, 1.711e-3
-1.057, 1.761e-3
-1.058, 1.791e-3
-1.059, 1.810e-3
-1.060, 1.847e-3
-1.061, 1.896e-3
-1.062, 1.939e-3
-1.063, 1.964e-3
-1.064, 1.989e-3
-1.065, 2.038e-3
-1.066, 2.103e-3
-1.067, 2.155e-3
-1.068, 2.186e-3
-1.069, 2.205e-3
-1.070, 2.238e-3
-1.071, 2.282e-3
-1.072, 2.309e-3
-1.073, 2.328e-3
-1.074, 2.356e-3
-1.075, 2.411e-3
-1.076, 2.482e-3
-1.077, 2.538e-3
-1.078, 2.568e-3
-1.079, 2.584e-3
-1.080, 2.615e-3
-1.081, 2.661e-3
-1.082, 2.698e-3
-1.083, 2.723e-3
-1.084, 2.750e-3
-1.085, 2.790e-3
-1.086, 2.849e-3
-1.087, 2.898e-3
-1.088, 2.926e-3
-1.089, 2.945e-3
-1.090, 2.982e-3
-1.091, 3.034e-3
-1.092, 3.080e-3
-1.093, 3.102e-3
-1.094, 3.123e-3
-1.095, 3.170e-3
-1.096, 3.234e-3
-1.097, 3.281e-3
-1.098, 3.302e-3
-1.099, 3.318e-3
-1.100, 3.348e-3
-1.101, 3.398e-3
-1.102, 3.453e-3
-1.103, 3.493e-3
-1.104, 3.524e-3
-1.105, 3.567e-3
-1.106, 3.607e-3
-1.107, 3.629e-3
-1.108, 3.638e-3
-1.109, 3.660e-3
-1.110, 3.721e-3
-1.111, 3.805e-3
-1.112, 3.876e-3
-1.113, 3.913e-3
-1.114, 3.934e-3
-1.115, 3.959e-3
-1.116, 4.002e-3
-1.117, 4.027e-3
-1.118, 4.033e-3
-1.119, 4.042e-3
-1.120, 4.088e-3
-1.121, 4.169e-3
-1.122, 4.243e-3
-1.123, 4.280e-3
-1.124, 4.295e-3
-1.125, 4.326e-3
-1.126, 4.366e-3
-1.127, 4.400e-3
-1.128, 4.418e-3
-1.129, 4.443e-3
-1.130, 4.495e-3
-1.131, 4.563e-3
-1.132, 4.619e-3
-1.133, 4.646e-3
-1.134, 4.665e-3
-1.135, 4.699e-3
-1.136, 4.739e-3
-1.137, 4.773e-3
-1.138, 4.797e-3
-1.139, 4.822e-3
-1.140, 4.875e-3
-1.141, 4.939e-3
-1.142, 4.989e-3
-1.143, 5.007e-3
-1.144, 5.023e-3
-1.145, 5.063e-3
-1.146, 5.109e-3
-1.147, 5.143e-3
-1.148, 5.171e-3
-1.149, 5.208e-3
-1.150, 5.272e-3
-1.151, 5.352e-3
-1.152, 5.408e-3
-1.153, 5.423e-3
-1.154, 5.414e-3
-1.155, 5.423e-3
-1.156, 5.457e-3
-1.157, 5.497e-3
-1.158, 5.531e-3
-1.159, 5.565e-3
-1.160, 5.624e-3
-1.161, 5.698e-3
-1.162, 5.747e-3
-1.163, 5.769e-3
-1.164, 5.778e-3
-1.165, 5.806e-3
-1.166, 5.855e-3
-1.167, 5.904e-3
-1.168, 5.944e-3
-1.169, 5.984e-3
-1.170, 6.034e-3
-1.171, 6.083e-3
-1.172, 6.126e-3
-1.173, 6.154e-3
-1.174, 6.179e-3
-1.175, 6.206e-3
-1.176, 6.256e-3
-1.177, 6.296e-3
-1.178, 6.308e-3
-1.179, 6.324e-3
-1.180, 6.376e-3
-1.181, 6.447e-3
-1.182, 6.493e-3
-1.183, 6.512e-3
-1.184, 6.530e-3
-1.185, 6.573e-3
-1.186, 6.629e-3
-1.187, 6.672e-3
-1.188, 6.697e-3
-1.189, 6.712e-3
-1.190, 6.749e-3
-1.191, 6.798e-3
-1.192, 6.842e-3
-1.193, 6.866e-3
-1.194, 6.885e-3
-1.195, 6.912e-3
-1.196, 6.959e-3
-1.197, 6.990e-3
-1.198, 7.002e-3
-1.199, 7.017e-3
-1.200, 7.064e-3
-1.201, 7.131e-3
-1.202, 7.187e-3
-1.203, 7.218e-3
-1.204, 7.236e-3
-1.205, 7.273e-3
-1.206, 7.310e-3
-1.207, 7.310e-3
-1.208, 7.282e-3
-1.209, 7.276e-3
-1.210, 7.332e-3
-1.211, 7.443e-3
-1.212, 7.545e-3
-1.213, 7.619e-3
-1.214, 7.671e-3
-1.215, 7.696e-3
-1.216, 7.680e-3
-1.217, 7.628e-3
-1.218, 7.578e-3
-1.219, 7.575e-3
-1.220, 7.643e-3
-1.221, 7.757e-3
-1.222, 7.871e-3
-1.223, 7.939e-3
-1.224, 7.964e-3
-1.225, 7.973e-3
-1.226, 7.967e-3
-1.227, 7.936e-3
-1.228, 7.905e-3
-1.229, 7.914e-3
-1.230, 7.958e-3
-1.231, 8.016e-3
-1.232, 8.066e-3
-1.233, 8.106e-3
-1.234, 8.143e-3
-1.235, 8.198e-3
-1.236, 8.260e-3
-1.237, 8.291e-3
-1.238, 8.278e-3
-1.239, 8.251e-3
-1.240, 8.254e-3
-1.241, 8.281e-3
-1.242, 8.309e-3
-1.243, 8.328e-3
-1.244, 8.355e-3
-1.245, 8.408e-3
-1.246, 8.479e-3
-1.247, 8.522e-3
-1.248, 8.531e-3
-1.249, 8.531e-3
-1.250, 8.550e-3
-1.251, 8.584e-3
-1.252, 8.605e-3
-1.253, 8.608e-3
-1.254, 8.611e-3
-1.255, 8.648e-3
-1.256, 8.701e-3
-1.257, 8.735e-3
-1.258, 8.722e-3
-1.259, 8.688e-3
-1.260, 8.682e-3
-1.261, 8.716e-3
-1.262, 8.762e-3
-1.263, 8.806e-3
-1.264, 8.852e-3
-1.265, 8.907e-3
-1.266, 8.954e-3
-1.267, 8.969e-3
-1.268, 8.944e-3
-1.269, 8.917e-3
-1.270, 8.913e-3
-1.271, 8.947e-3
-1.272, 8.997e-3
-1.273, 9.028e-3
-1.274, 9.052e-3
-1.275, 9.083e-3
-1.276, 9.114e-3
-1.277, 9.123e-3
-1.278, 9.111e-3
-1.279, 9.098e-3
-1.280, 9.101e-3
-1.281, 9.111e-3
-1.282, 9.120e-3
-1.283, 9.142e-3
-1.284, 9.182e-3
-1.285, 9.240e-3
-1.286, 9.290e-3
-1.287, 9.299e-3
-1.288, 9.256e-3
-1.289, 9.219e-3
-1.290, 9.212e-3
-1.291, 9.234e-3
-1.292, 9.262e-3
-1.293, 9.277e-3
-1.294, 9.293e-3
-1.295, 9.308e-3
-1.296, 9.320e-3
-1.297, 9.330e-3
-1.298, 9.336e-3
-1.299, 9.342e-3
-1.300, 9.364e-3
-1.301, 9.394e-3
-1.302, 9.416e-3
-1.303, 9.407e-3
-1.304, 9.385e-3
-1.305, 9.391e-3
-1.306, 9.422e-3
-1.307, 9.438e-3
-1.308, 9.397e-3
-1.309, 9.336e-3
-1.310, 9.296e-3
-1.311, 9.277e-3
-1.312, 9.283e-3
-1.313, 9.311e-3
-1.314, 9.373e-3
-1.315, 9.441e-3
-1.316, 9.502e-3
-1.317, 9.561e-3
-1.318, 9.601e-3
-1.319, 9.610e-3
-1.320, 9.601e-3
-1.321, 9.567e-3
-1.322, 9.490e-3
-1.323, 9.394e-3
-1.324, 9.391e-3
-1.325, 9.493e-3
-1.326, 9.623e-3
-1.327, 9.709e-3
-1.328, 9.706e-3
-1.329, 9.650e-3
-1.330, 9.589e-3
-1.331, 9.536e-3
-1.332, 9.487e-3
-1.333, 9.444e-3
-1.334, 9.450e-3
-1.335, 9.502e-3
-1.336, 9.582e-3
-1.337, 9.641e-3
-1.338, 9.650e-3
-1.339, 9.629e-3
-1.340, 9.613e-3
-1.341, 9.598e-3
-1.342, 9.592e-3
-1.343, 9.592e-3
-1.344, 9.589e-3
-1.345, 9.576e-3
-1.346, 9.579e-3
-1.347, 9.570e-3
-1.348, 9.539e-3
-1.349, 9.499e-3
-1.350, 9.515e-3
-1.351, 9.539e-3
-1.352, 9.576e-3
-1.353, 9.644e-3
-1.354, 9.730e-3
-1.355, 9.792e-3
-1.356, 9.758e-3
-1.357, 9.613e-3
-1.358, 9.428e-3
-1.359, 9.296e-3
-1.360, 9.265e-3
-1.361, 9.357e-3
-1.362, 9.468e-3
-1.363, 9.561e-3
-1.364, 9.619e-3
-1.365, 9.641e-3
-1.366, 9.626e-3
-1.367, 9.564e-3
-1.368, 9.471e-3
-1.369, 9.410e-3
-1.370, 9.404e-3
-1.371, 9.438e-3
-1.372, 9.468e-3
-1.373, 9.493e-3
-1.374, 9.536e-3
-1.375, 9.595e-3
-1.376, 9.641e-3
-1.377, 9.644e-3
-1.378, 9.598e-3
-1.379, 9.536e-3
-1.380, 9.496e-3
-1.381, 9.490e-3
-1.382, 9.502e-3
-1.383, 9.518e-3
-1.384, 9.542e-3
-1.385, 9.582e-3
-1.386, 9.616e-3
-1.387, 9.616e-3
-1.388, 9.598e-3
-1.389, 9.598e-3
-1.390, 9.619e-3
-1.391, 9.635e-3
-1.392, 9.632e-3
-1.393, 9.610e-3
-1.394, 9.604e-3
-1.395, 9.610e-3
-1.396, 9.616e-3
-1.397, 9.598e-3
-1.398, 9.573e-3
-1.399, 9.561e-3
-1.400, 9.579e-3
-1.401, 9.616e-3
-1.402, 9.647e-3
-1.403, 9.653e-3
-1.404, 9.650e-3
-1.405, 9.666e-3
-1.406, 9.669e-3
-1.407, 9.650e-3
-1.408, 9.610e-3
-1.409, 9.586e-3
-1.410, 9.607e-3
-1.411, 9.644e-3
-1.412, 9.666e-3
-1.413, 9.669e-3
-1.414, 9.687e-3
-1.415, 9.734e-3
-1.416, 9.774e-3
-1.417, 9.780e-3
-1.418, 9.734e-3
-1.419, 9.681e-3
-1.420, 9.660e-3
-1.421, 9.681e-3
-1.422, 9.706e-3
-1.423, 9.718e-3
-1.424, 9.727e-3
-1.425, 9.758e-3
-1.426, 9.792e-3
-1.427, 9.801e-3
-1.428, 9.777e-3
-1.429, 9.752e-3
-1.430, 9.758e-3
-1.431, 9.789e-3
-1.432, 9.817e-3
-1.433, 9.823e-3
-1.434, 9.823e-3
-1.435, 9.841e-3
-1.436, 9.863e-3
-1.437, 9.869e-3
-1.438, 9.851e-3
-1.439, 9.841e-3
-1.440, 9.863e-3
-1.441, 9.903e-3
-1.442, 9.919e-3
-1.443, 9.906e-3
-1.444, 9.888e-3
-1.445, 9.891e-3
-1.446, 9.909e-3
-1.447, 9.922e-3
-1.448, 9.912e-3
-1.449, 9.909e-3
-1.450, 9.925e-3
-1.451, 9.959e-3
-1.452, 9.974e-3
-1.453, 9.956e-3
-1.454, 9.934e-3
-1.455, 9.940e-3
-1.456, 9.971e-3
-1.457, 1.000e-2
-1.458, 1.002e-2
-1.459, 1.003e-2
-1.460, 1.008e-2
-1.461, 1.010e-2
-1.462, 1.009e-2
-1.463, 1.004e-2
-1.464, 9.999e-3
-1.465, 1.000e-2
-1.466, 1.004e-2
-1.467, 1.006e-2
-1.468, 1.007e-2
-1.469, 1.006e-2
-1.470, 1.009e-2
-1.471, 1.012e-2
-1.472, 1.012e-2
-1.473, 1.011e-2
-1.474, 1.010e-2
-1.475, 1.011e-2
-1.476, 1.013e-2
-1.477, 1.016e-2
-1.478, 1.016e-2
-1.479, 1.016e-2
-1.480, 1.017e-2
-1.481, 1.019e-2
-1.482, 1.020e-2
-1.483, 1.020e-2
-1.484, 1.020e-2
-1.485, 1.021e-2
-1.486, 1.023e-2
-1.487, 1.025e-2
-1.488, 1.025e-2
-1.489, 1.025e-2
-1.490, 1.025e-2
-1.491, 1.026e-2
-1.492, 1.025e-2
-1.493, 1.023e-2
-1.494, 1.022e-2
-1.495, 1.024e-2
-1.496, 1.028e-2
-1.497, 1.031e-2
-1.498, 1.033e-2
-1.499, 1.036e-2
-1.500, 1.031e-2
-1.499, 1.013e-2
-1.498, 9.925e-3
-1.497, 9.727e-3
-1.496, 9.545e-3
-1.495, 9.407e-3
-1.494, 9.327e-3
-1.493, 9.259e-3
-1.492, 9.175e-3
-1.491, 9.052e-3
-1.490, 8.926e-3
-1.489, 8.790e-3
-1.488, 8.627e-3
-1.487, 8.469e-3
-1.486, 8.337e-3
-1.485, 8.241e-3
-1.484, 8.164e-3
-1.483, 8.081e-3
-1.482, 7.982e-3
-1.481, 7.878e-3
-1.480, 7.785e-3
-1.479, 7.696e-3
-1.478, 7.588e-3
-1.477, 7.480e-3
-1.476, 7.390e-3
-1.475, 7.323e-3
-1.474, 7.255e-3
-1.473, 7.159e-3
-1.472, 7.051e-3
-1.471, 6.949e-3
-1.470, 6.875e-3
-1.469, 6.814e-3
-1.468, 6.737e-3
-1.467, 6.647e-3
-1.466, 6.564e-3
-1.465, 6.509e-3
-1.464, 6.456e-3
-1.463, 6.376e-3
-1.462, 6.274e-3
-1.461, 6.176e-3
-1.460, 6.095e-3
-1.459, 6.037e-3
-1.458, 5.963e-3
-1.457, 5.886e-3
-1.456, 5.827e-3
-1.455, 5.803e-3
-1.454, 5.769e-3
-1.453, 5.695e-3
-1.452, 5.581e-3
-1.451, 5.467e-3
-1.450, 5.380e-3
-1.449, 5.340e-3
-1.448, 5.303e-3
-1.447, 5.245e-3
-1.446, 5.174e-3
-1.445, 5.121e-3
-1.444, 5.075e-3
-1.443, 5.007e-3
-1.442, 4.921e-3
-1.441, 4.831e-3
-1.440, 4.767e-3
-1.439, 4.711e-3
-1.438, 4.656e-3
-1.437, 4.591e-3
-1.436, 4.535e-3
-1.435, 4.495e-3
-1.434, 4.455e-3
-1.433, 4.394e-3
-1.432, 4.317e-3
-1.431, 4.246e-3
-1.430, 4.190e-3
-1.429, 4.138e-3
-1.428, 4.073e-3
-1.427, 4.002e-3
-1.426, 3.943e-3
-1.425, 3.906e-3
-1.424, 3.873e-3
-1.423, 3.817e-3
-1.422, 3.743e-3
-1.421, 3.684e-3
-1.420, 3.651e-3
-1.419, 3.629e-3
-1.418, 3.586e-3
-1.417, 3.512e-3
-1.416, 3.432e-3
-1.415, 3.370e-3
-1.414, 3.321e-3
-1.413, 3.262e-3
-1.412, 3.197e-3
-1.411, 3.145e-3
-1.410, 3.117e-3
-1.409, 3.096e-3
-1.408, 3.056e-3
-1.407, 2.988e-3
-1.406, 2.923e-3
-1.405, 2.877e-3
-1.404, 2.843e-3
-1.403, 2.790e-3
-1.402, 2.719e-3
-1.401, 2.658e-3
-1.400, 2.627e-3
-1.399, 2.608e-3
-1.398, 2.575e-3
-1.397, 2.519e-3
-1.396, 2.460e-3
-1.395, 2.423e-3
-1.394, 2.390e-3
-1.393, 2.334e-3
-1.392, 2.263e-3
-1.391, 2.201e-3
-1.390, 2.168e-3
-1.389, 2.149e-3
-1.388, 2.109e-3
-1.387, 2.054e-3
-1.386, 1.998e-3
-1.385, 1.964e-3
-1.384, 1.936e-3
-1.383, 1.893e-3
-1.382, 1.832e-3
-1.381, 1.779e-3
-1.380, 1.745e-3
-1.379, 1.724e-3
-1.378, 1.684e-3
-1.377, 1.625e-3
-1.376, 1.569e-3
-1.375, 1.539e-3
-1.374, 1.517e-3
-1.373, 1.480e-3
-1.372, 1.428e-3
-1.371, 1.375e-3
-1.370, 1.344e-3
-1.369, 1.323e-3
-1.368, 1.283e-3
-1.367, 1.227e-3
-1.366, 1.178e-3
-1.365, 1.147e-3
-1.364, 1.129e-3
-1.363, 1.095e-3
-1.362, 1.042e-3
-1.361, 9.898e-4
-1.360, 9.652e-4
-1.359, 9.467e-4
-1.358, 9.158e-4
-1.357, 8.665e-4
-1.356, 8.172e-4
-1.355, 7.894e-4
-1.354, 7.740e-4
-1.353, 7.432e-4
-1.352, 6.969e-4
-1.351, 6.507e-4
-1.350, 6.260e-4
-1.349, 6.075e-4
-1.348, 5.705e-4
-1.347, 5.181e-4
-1.346, 4.719e-4
-1.345, 4.441e-4
-1.344, 4.287e-4
-1.343, 3.979e-4
-1.342, 3.485e-4
-1.341, 3.054e-4
-1.340, 2.838e-4
-1.339, 2.746e-4
-1.338, 2.437e-4
-1.337, 1.944e-4
-1.336, 1.543e-4
-1.335, 1.327e-4
-1.334, 1.204e-4
-1.333, 8.957e-5
-1.332, 4.332e-5
-1.331, 3.239e-6
-1.330, -1.526e-5
-1.329, -2.759e-5
-1.328, -5.534e-5
-1.327, -1.016e-4
-1.326, -1.417e-4
-1.325, -1.571e-4
-1.324, -1.663e-4
-1.323, -1.910e-4
-1.322, -2.372e-4
-1.321, -2.773e-4
-1.320, -2.927e-4
-1.319, -3.020e-4
-1.318, -3.297e-4
-1.317, -3.729e-4
-1.316, -4.130e-4
-1.315, -4.284e-4
-1.314, -4.346e-4
-1.313, -4.592e-4
-1.312, -4.993e-4
-1.311, -5.332e-4
-1.310, -5.517e-4
-1.309, -5.610e-4
-1.308, -5.887e-4
-1.307, -6.319e-4
-1.306, -6.658e-4
-1.305, -6.781e-4
-1.304, -6.812e-4
-1.303, -7.028e-4
-1.302, -7.429e-4
-1.301, -7.768e-4
-1.300, -7.953e-4
-1.299, -8.015e-4
-1.298, -8.230e-4
-1.297, -8.631e-4
-1.296, -8.970e-4
-1.295, -9.063e-4
-1.294, -9.094e-4
-1.293, -9.340e-4
-1.292, -9.772e-4
-1.291, -1.011e-3
-1.290, -1.027e-3
-1.289, -1.023e-3
-1.288, -1.039e-3
-1.287, -1.070e-3
-1.286, -1.101e-3
-1.285, -1.116e-3
-1.284, -1.128e-3
-1.283, -1.153e-3
-1.282, -1.196e-3
-1.281, -1.230e-3
-1.280, -1.242e-3
-1.279, -1.245e-3
-1.278, -1.267e-3
-1.277, -1.304e-3
-1.276, -1.332e-3
-1.275, -1.338e-3
-1.274, -1.335e-3
-1.273, -1.353e-3
-1.272, -1.390e-3
-1.271, -1.421e-3
-1.270, -1.430e-3
-1.269, -1.433e-3
-1.268, -1.452e-3
-1.267, -1.492e-3
-1.266, -1.526e-3
-1.265, -1.538e-3
-1.264, -1.544e-3
-1.263, -1.566e-3
-1.262, -1.603e-3
-1.261, -1.634e-3
-1.260, -1.643e-3
-1.259, -1.643e-3
-1.258, -1.659e-3
-1.257, -1.686e-3
-1.256, -1.711e-3
-1.255, -1.717e-3
-1.254, -1.714e-3
-1.253, -1.736e-3
-1.252, -1.773e-3
-1.251, -1.800e-3
-1.250, -1.810e-3
-1.249, -1.813e-3
-1.248, -1.834e-3
-1.247, -1.877e-3
-1.246, -1.908e-3
-1.245, -1.911e-3
-1.244, -1.908e-3
-1.243, -1.918e-3
-1.242, -1.948e-3
-1.241, -1.976e-3
-1.240, -1.982e-3
-1.239, -1.988e-3
-1.238, -2.007e-3
-1.237, -2.041e-3
-1.236, -2.069e-3
-1.235, -2.075e-3
-1.234, -2.072e-3
-1.233, -2.084e-3
-1.232, -2.118e-3
-1.231, -2.152e-3
-1.230, -2.164e-3
-1.229, -2.170e-3
-1.228, -2.192e-3
-1.227, -2.226e-3
-1.226, -2.247e-3
-1.225, -2.251e-3
-1.224, -2.247e-3
-1.223, -2.263e-3
-1.222, -2.300e-3
-1.221, -2.328e-3
-1.220, -2.337e-3
-1.219, -2.340e-3
-1.218, -2.362e-3
-1.217, -2.399e-3
-1.216, -2.429e-3
-1.215, -2.432e-3
-1.214, -2.429e-3
-1.213, -2.448e-3
-1.212, -2.485e-3
-1.211, -2.516e-3
-1.210, -2.522e-3
-1.209, -2.522e-3
-1.208, -2.534e-3
-1.207, -2.565e-3
-1.206, -2.593e-3
-1.205, -2.602e-3
-1.204, -2.605e-3
-1.203, -2.627e-3
-1.202, -2.667e-3
-1.201, -2.701e-3
-1.200, -2.710e-3
-1.199, -2.710e-3
-1.198, -2.716e-3
-1.197, -2.744e-3
-1.196, -2.768e-3
-1.195, -2.778e-3
-1.194, -2.775e-3
-1.193, -2.790e-3
-1.192, -2.827e-3
-1.191, -2.858e-3
-1.190, -2.867e-3
-1.189, -2.876e-3
-1.188, -2.907e-3
-1.187, -2.947e-3
-1.186, -2.978e-3
-1.185, -2.975e-3
-1.184, -2.969e-3
-1.183, -2.987e-3
-1.182, -3.031e-3
-1.181, -3.058e-3
-1.180, -3.061e-3
-1.179, -3.058e-3
-1.178, -3.074e-3
-1.177, -3.114e-3
-1.176, -3.148e-3
-1.175, -3.166e-3
-1.174, -3.179e-3
-1.173, -3.203e-3
-1.172, -3.243e-3
-1.171, -3.271e-3
-1.170, -3.274e-3
-1.169, -3.271e-3
-1.168, -3.290e-3
-1.167, -3.330e-3
-1.166, -3.364e-3
-1.165, -3.376e-3
-1.164, -3.376e-3
-1.163, -3.391e-3
-1.162, -3.425e-3
-1.161, -3.456e-3
-1.160, -3.468e-3
-1.159, -3.475e-3
-1.158, -3.508e-3
-1.157, -3.552e-3
-1.156, -3.589e-3
-1.155, -3.601e-3
-1.154, -3.604e-3
-1.153, -3.619e-3
-1.152, -3.650e-3
-1.151, -3.672e-3
-1.150, -3.675e-3
-1.149, -3.672e-3
-1.148, -3.690e-3
-1.147, -3.737e-3
-1.146, -3.780e-3
-1.145, -3.804e-3
-1.144, -3.820e-3
-1.143, -3.851e-3
-1.142, -3.897e-3
-1.141, -3.928e-3
-1.140, -3.928e-3
-1.139, -3.937e-3
-1.138, -3.974e-3
-1.137, -4.029e-3
-1.136, -4.070e-3
-1.135, -4.088e-3
-1.134, -4.091e-3
-1.133, -4.100e-3
-1.132, -4.125e-3
-1.131, -4.150e-3
-1.130, -4.156e-3
-1.129, -4.168e-3
-1.128, -4.202e-3
-1.127, -4.261e-3
-1.126, -4.301e-3
-1.125, -4.313e-3
-1.124, -4.322e-3
-1.123, -4.344e-3
-1.122, -4.384e-3
-1.121, -4.415e-3
-1.120, -4.421e-3
-1.119, -4.427e-3
-1.118, -4.461e-3
-1.117, -4.523e-3
-1.116, -4.578e-3
-1.115, -4.600e-3
-1.114, -4.603e-3
-1.113, -4.621e-3
-1.112, -4.652e-3
-1.111, -4.686e-3
-1.110, -4.692e-3
-1.109, -4.702e-3
-1.108, -4.726e-3
-1.107, -4.772e-3
-1.106, -4.813e-3
-1.105, -4.831e-3
-1.104, -4.850e-3
-1.103, -4.893e-3
-1.102, -4.942e-3
-1.101, -4.973e-3
-1.100, -4.982e-3
-1.099, -4.976e-3
-1.098, -4.994e-3
-1.097, -5.041e-3
-1.096, -5.090e-3
-1.095, -5.127e-3
-1.094, -5.152e-3
-1.093, -5.189e-3
-1.092, -5.235e-3
-1.091, -5.263e-3
-1.090, -5.260e-3
-1.089, -5.253e-3
-1.088, -5.272e-3
-1.087, -5.318e-3
-1.086, -5.358e-3
-1.085, -5.386e-3
-1.084, -5.420e-3
-1.083, -5.479e-3
-1.082, -5.562e-3
-1.081, -5.630e-3
-1.080, -5.657e-3
-1.079, -5.657e-3
-1.078, -5.651e-3
-1.077, -5.651e-3
-1.076, -5.654e-3
-1.075, -5.657e-3
-1.074, -5.679e-3
-1.073, -5.734e-3
-1.072, -5.812e-3
-1.071, -5.886e-3
-1.070, -5.919e-3
-1.069, -5.932e-3
-1.068, -5.950e-3
-1.067, -5.978e-3
-1.066, -6.000e-3
-1.065, -6.003e-3
-1.064, -5.996e-3
-1.063, -6.027e-3
-1.062, -6.077e-3
-1.061, -6.117e-3
-1.060, -6.138e-3
-1.059, -6.157e-3
-1.058, -6.197e-3
-1.057, -6.252e-3
-1.056, -6.302e-3
-1.055, -6.326e-3
-1.054, -6.345e-3
-1.053, -6.379e-3
-1.052, -6.425e-3
-1.051, -6.465e-3
-1.050, -6.474e-3
-1.049, -6.487e-3
-1.048, -6.524e-3
-1.047, -6.576e-3
-1.046, -6.613e-3
-1.045, -6.635e-3
-1.044, -6.659e-3
-1.043, -6.699e-3
-1.042, -6.740e-3
-1.041, -6.752e-3
-1.040, -6.730e-3
-1.039, -6.721e-3
-1.038, -6.770e-3
-1.037, -6.860e-3
-1.036, -6.943e-3
-1.035, -6.995e-3
-1.034, -7.017e-3
-1.033, -7.032e-3
-1.032, -7.051e-3
-1.031, -7.069e-3
-1.030, -7.088e-3
-1.029, -7.097e-3
-1.028, -7.113e-3
-1.027, -7.143e-3
-1.026, -7.183e-3
-1.025, -7.224e-3
-1.024, -7.270e-3
-1.023, -7.335e-3
-1.022, -7.402e-3
-1.021, -7.424e-3
-1.020, -7.405e-3
-1.019, -7.372e-3
-1.018, -7.384e-3
-1.017, -7.436e-3
-1.016, -7.495e-3
-1.015, -7.538e-3
-1.014, -7.566e-3
-1.013, -7.597e-3
-1.012, -7.631e-3
-1.011, -7.664e-3
-1.010, -7.683e-3
-1.009, -7.698e-3
-1.008, -7.726e-3
-1.007, -7.775e-3
-1.006, -7.819e-3
-1.005, -7.828e-3
-1.004, -7.831e-3
-1.003, -7.874e-3
-1.002, -7.933e-3
-1.001, -7.967e-3
