July 12, 2024   02:21:18
Cyclic Voltammetry
File: c:/users/guazh/data/20240709_batch67/2024-07-10-exp17\exp17-2024-07-12t01_59_13-arkoh\exp17_cv_sr_800mvs_efin_-1900mv.bin
Data Source:  Experiment
Instrument Model:  CHI760E
Header: CV ran at 800 mVs
Note: 

Init E (V) = -1
High E (V) = -1
Low E (V) = -1.9
Final E (V) = -1
Init P/N = N
Scan Rate (V/s) = 0.8
Segment = 3
Sample Interval (V) = 0.001
Quiet Time (sec) = 2
Sensitivity (A/V) = 0.01
Comp R (ohm) = 1.7

Results:

Channel 1:
Segment 1:

Segment 2:

Segment 3:

Potential/V, Current/A

-1.000, 1.559e-7
-1.001, 1.559e-7
-1.002, 1.559e-7
-1.003, 3.239e-6
-1.004, 3.239e-6
-1.005, 3.239e-6
-1.006, 3.239e-6
-1.007, 3.239e-6
-1.008, 1.559e-7
-1.009, 3.239e-6
-1.010, 3.239e-6
-1.011, 3.239e-6
-1.012, 1.559e-7
-1.013, 3.239e-6
-1.014, 1.559e-7
-1.015, 3.239e-6
-1.016, 3.239e-6
-1.017, 3.239e-6
-1.018, 3.239e-6
-1.019, 3.239e-6
-1.020, 3.239e-6
-1.021, 3.239e-6
-1.022, 3.239e-6
-1.023, 3.239e-6
-1.024, 3.239e-6
-1.025, 3.239e-6
-1.026, 3.239e-6
-1.027, 3.239e-6
-1.028, 3.239e-6
-1.029, 3.239e-6
-1.030, 3.239e-6
-1.031, 3.239e-6
-1.032, 3.239e-6
-1.033, 3.239e-6
-1.034, 3.239e-6
-1.035, 3.239e-6
-1.036, 3.239e-6
-1.037, 3.239e-6
-1.038, 6.322e-6
-1.039, 3.239e-6
-1.040, 3.239e-6
-1.041, 3.239e-6
-1.042, 3.239e-6
-1.043, 3.239e-6
-1.044, 6.322e-6
-1.045, 3.239e-6
-1.046, 3.239e-6
-1.047, 3.239e-6
-1.048, 3.239e-6
-1.049, 6.322e-6
-1.050, 3.239e-6
-1.051, 3.239e-6
-1.052, 6.322e-6
-1.053, 6.322e-6
-1.054, 3.239e-6
-1.055, 6.322e-6
-1.056, 3.239e-6
-1.057, 6.322e-6
-1.058, 3.239e-6
-1.059, 3.239e-6
-1.060, 3.239e-6
-1.061, 6.322e-6
-1.062, 3.239e-6
-1.063, 6.322e-6
-1.064, 3.239e-6
-1.065, 3.239e-6
-1.066, 3.239e-6
-1.067, 6.322e-6
-1.068, 3.239e-6
-1.069, 6.322e-6
-1.070, 3.239e-6
-1.071, 6.322e-6
-1.072, 6.322e-6
-1.073, 6.322e-6
-1.074, 3.239e-6
-1.075, 6.322e-6
-1.076, 6.322e-6
-1.077, 3.239e-6
-1.078, 3.239e-6
-1.079, 6.322e-6
-1.080, 3.239e-6
-1.081, 6.322e-6
-1.082, 6.322e-6
-1.083, 6.322e-6
-1.084, 6.322e-6
-1.085, 6.322e-6
-1.086, 6.322e-6
-1.087, 6.322e-6
-1.088, 3.239e-6
-1.089, 3.239e-6
-1.090, 6.322e-6
-1.091, 6.322e-6
-1.092, 6.322e-6
-1.093, 3.239e-6
-1.094, 6.322e-6
-1.095, 6.322e-6
-1.096, 6.322e-6
-1.097, 6.322e-6
-1.098, 6.322e-6
-1.099, 6.322e-6
-1.100, 6.322e-6
-1.101, 6.322e-6
-1.102, 6.322e-6
-1.103, 6.322e-6
-1.104, 6.322e-6
-1.105, 6.322e-6
-1.106, 6.322e-6
-1.107, 3.239e-6
-1.108, 6.322e-6
-1.109, 6.322e-6
-1.110, 9.405e-6
-1.111, 6.322e-6
-1.112, 6.322e-6
-1.113, 6.322e-6
-1.114, 6.322e-6
-1.115, 6.322e-6
-1.116, 6.322e-6
-1.117, 6.322e-6
-1.118, 6.322e-6
-1.119, 6.322e-6
-1.120, 6.322e-6
-1.121, 6.322e-6
-1.122, 6.322e-6
-1.123, 6.322e-6
-1.124, 6.322e-6
-1.125, 6.322e-6
-1.126, 3.239e-6
-1.127, 6.322e-6
-1.128, 6.322e-6
-1.129, 6.322e-6
-1.130, 6.322e-6
-1.131, 6.322e-6
-1.132, 6.322e-6
-1.133, 6.322e-6
-1.134, 6.322e-6
-1.135, 6.322e-6
-1.136, 6.322e-6
-1.137, 9.405e-6
-1.138, 6.322e-6
-1.139, 6.322e-6
-1.140, 6.322e-6
-1.141, 6.322e-6
-1.142, 6.322e-6
-1.143, 6.322e-6
-1.144, 6.322e-6
-1.145, 6.322e-6
-1.146, 6.322e-6
-1.147, 9.405e-6
-1.148, 6.322e-6
-1.149, 6.322e-6
-1.150, 6.322e-6
-1.151, 9.405e-6
-1.152, 6.322e-6
-1.153, 6.322e-6
-1.154, 6.322e-6
-1.155, 6.322e-6
-1.156, 6.322e-6
-1.157, 6.322e-6
-1.158, 6.322e-6
-1.159, 6.322e-6
-1.160, 9.405e-6
-1.161, 6.322e-6
-1.162, 6.322e-6
-1.163, 6.322e-6
-1.164, 9.405e-6
-1.165, 9.405e-6
-1.166, 9.405e-6
-1.167, 6.322e-6
-1.168, 9.405e-6
-1.169, 6.322e-6
-1.170, 9.405e-6
-1.171, 9.405e-6
-1.172, 9.405e-6
-1.173, 6.322e-6
-1.174, 9.405e-6
-1.175, 6.322e-6
-1.176, 9.405e-6
-1.177, 6.322e-6
-1.178, 9.405e-6
-1.179, 6.322e-6
-1.180, 9.405e-6
-1.181, 9.405e-6
-1.182, 6.322e-6
-1.183, 9.405e-6
-1.184, 9.405e-6
-1.185, 9.405e-6
-1.186, 6.322e-6
-1.187, 6.322e-6
-1.188, 6.322e-6
-1.189, 9.405e-6
-1.190, 9.405e-6
-1.191, 9.405e-6
-1.192, 6.322e-6
-1.193, 9.405e-6
-1.194, 9.405e-6
-1.195, 9.405e-6
-1.196, 9.405e-6
-1.197, 9.405e-6
-1.198, 6.322e-6
-1.199, 9.405e-6
-1.200, 6.322e-6
-1.201, 9.405e-6
-1.202, 9.405e-6
-1.203, 9.405e-6
-1.204, 9.405e-6
-1.205, 9.405e-6
-1.206, 9.405e-6
-1.207, 9.405e-6
-1.208, 9.405e-6
-1.209, 9.405e-6
-1.210, 9.405e-6
-1.211, 9.405e-6
-1.212, 9.405e-6
-1.213, 9.405e-6
-1.214, 9.405e-6
-1.215, 9.405e-6
-1.216, 9.405e-6
-1.217, 9.405e-6
-1.218, 9.405e-6
-1.219, 9.405e-6
-1.220, 9.405e-6
-1.221, 9.405e-6
-1.222, 9.405e-6
-1.223, 1.249e-5
-1.224, 9.405e-6
-1.225, 9.405e-6
-1.226, 9.405e-6
-1.227, 9.405e-6
-1.228, 9.405e-6
-1.229, 9.405e-6
-1.230, 9.405e-6
-1.231, 9.405e-6
-1.232, 9.405e-6
-1.233, 9.405e-6
-1.234, 9.405e-6
-1.235, 9.405e-6
-1.236, 1.249e-5
-1.237, 9.405e-6
-1.238, 9.405e-6
-1.239, 9.405e-6
-1.240, 9.405e-6
-1.241, 1.249e-5
-1.242, 1.249e-5
-1.243, 1.249e-5
-1.244, 1.249e-5
-1.245, 9.405e-6
-1.246, 9.405e-6
-1.247, 9.405e-6
-1.248, 9.405e-6
-1.249, 9.405e-6
-1.250, 1.249e-5
-1.251, 9.405e-6
-1.252, 9.405e-6
-1.253, 9.405e-6
-1.254, 1.249e-5
-1.255, 1.249e-5
-1.256, 9.405e-6
-1.257, 9.405e-6
-1.258, 1.249e-5
-1.259, 1.249e-5
-1.260, 9.405e-6
-1.261, 9.405e-6
-1.262, 9.405e-6
-1.263, 1.249e-5
-1.264, 1.249e-5
-1.265, 1.249e-5
-1.266, 9.405e-6
-1.267, 9.405e-6
-1.268, 9.405e-6
-1.269, 1.249e-5
-1.270, 1.249e-5
-1.271, 1.249e-5
-1.272, 1.249e-5
-1.273, 1.249e-5
-1.274, 1.249e-5
-1.275, 1.249e-5
-1.276, 9.405e-6
-1.277, 1.249e-5
-1.278, 1.249e-5
-1.279, 1.249e-5
-1.280, 1.249e-5
-1.281, 1.249e-5
-1.282, 1.249e-5
-1.283, 1.249e-5
-1.284, 1.249e-5
-1.285, 1.249e-5
-1.286, 1.249e-5
-1.287, 1.249e-5
-1.288, 1.249e-5
-1.289, 1.249e-5
-1.290, 1.249e-5
-1.291, 1.249e-5
-1.292, 1.249e-5
-1.293, 1.249e-5
-1.294, 1.249e-5
-1.295, 1.249e-5
-1.296, 1.249e-5
-1.297, 1.249e-5
-1.298, 1.557e-5
-1.299, 1.249e-5
-1.300, 1.249e-5
-1.301, 1.249e-5
-1.302, 1.249e-5
-1.303, 1.249e-5
-1.304, 1.249e-5
-1.305, 1.249e-5
-1.306, 1.249e-5
-1.307, 1.249e-5
-1.308, 1.557e-5
-1.309, 1.249e-5
-1.310, 1.249e-5
-1.311, 1.249e-5
-1.312, 1.249e-5
-1.313, 1.249e-5
-1.314, 1.249e-5
-1.315, 1.249e-5
-1.316, 1.249e-5
-1.317, 1.249e-5
-1.318, 1.249e-5
-1.319, 1.249e-5
-1.320, 1.249e-5
-1.321, 1.557e-5
-1.322, 1.249e-5
-1.323, 1.249e-5
-1.324, 1.249e-5
-1.325, 1.249e-5
-1.326, 1.249e-5
-1.327, 1.249e-5
-1.328, 1.249e-5
-1.329, 1.249e-5
-1.330, 1.557e-5
-1.331, 1.557e-5
-1.332, 1.249e-5
-1.333, 1.249e-5
-1.334, 1.249e-5
-1.335, 1.557e-5
-1.336, 1.249e-5
-1.337, 1.557e-5
-1.338, 1.249e-5
-1.339, 1.557e-5
-1.340, 1.557e-5
-1.341, 1.557e-5
-1.342, 1.249e-5
-1.343, 1.557e-5
-1.344, 1.557e-5
-1.345, 1.557e-5
-1.346, 1.557e-5
-1.347, 1.249e-5
-1.348, 1.249e-5
-1.349, 1.557e-5
-1.350, 1.249e-5
-1.351, 1.557e-5
-1.352, 1.557e-5
-1.353, 1.557e-5
-1.354, 1.557e-5
-1.355, 1.557e-5
-1.356, 1.557e-5
-1.357, 1.557e-5
-1.358, 1.557e-5
-1.359, 1.557e-5
-1.360, 1.557e-5
-1.361, 1.249e-5
-1.362, 1.557e-5
-1.363, 1.557e-5
-1.364, 1.557e-5
-1.365, 1.249e-5
-1.366, 1.557e-5
-1.367, 1.557e-5
-1.368, 1.557e-5
-1.369, 1.557e-5
-1.370, 1.557e-5
-1.371, 1.557e-5
-1.372, 1.557e-5
-1.373, 1.557e-5
-1.374, 1.557e-5
-1.375, 1.557e-5
-1.376, 1.557e-5
-1.377, 1.557e-5
-1.378, 1.557e-5
-1.379, 1.557e-5
-1.380, 1.557e-5
-1.381, 1.557e-5
-1.382, 1.557e-5
-1.383, 1.557e-5
-1.384, 1.557e-5
-1.385, 1.557e-5
-1.386, 1.557e-5
-1.387, 1.557e-5
-1.388, 1.557e-5
-1.389, 1.557e-5
-1.390, 1.557e-5
-1.391, 1.865e-5
-1.392, 1.557e-5
-1.393, 1.557e-5
-1.394, 1.557e-5
-1.395, 1.557e-5
-1.396, 1.557e-5
-1.397, 1.557e-5
-1.398, 1.557e-5
-1.399, 1.557e-5
-1.400, 1.557e-5
-1.401, 1.557e-5
-1.402, 1.557e-5
-1.403, 1.557e-5
-1.404, 1.557e-5
-1.405, 1.865e-5
-1.406, 1.557e-5
-1.407, 1.557e-5
-1.408, 1.557e-5
-1.409, 1.557e-5
-1.410, 1.865e-5
-1.411, 1.557e-5
-1.412, 1.557e-5
-1.413, 1.557e-5
-1.414, 1.865e-5
-1.415, 1.865e-5
-1.416, 1.557e-5
-1.417, 1.865e-5
-1.418, 1.865e-5
-1.419, 1.557e-5
-1.420, 1.865e-5
-1.421, 1.865e-5
-1.422, 1.865e-5
-1.423, 1.557e-5
-1.424, 1.865e-5
-1.425, 1.865e-5
-1.426, 1.557e-5
-1.427, 1.557e-5
-1.428, 1.557e-5
-1.429, 1.865e-5
-1.430, 1.865e-5
-1.431, 1.865e-5
-1.432, 1.865e-5
-1.433, 1.557e-5
-1.434, 1.865e-5
-1.435, 1.865e-5
-1.436, 1.865e-5
-1.437, 1.865e-5
-1.438, 1.865e-5
-1.439, 1.865e-5
-1.440, 1.865e-5
-1.441, 1.865e-5
-1.442, 1.865e-5
-1.443, 1.865e-5
-1.444, 1.865e-5
-1.445, 1.865e-5
-1.446, 1.865e-5
-1.447, 1.865e-5
-1.448, 1.865e-5
-1.449, 1.865e-5
-1.450, 1.865e-5
-1.451, 1.557e-5
-1.452, 1.865e-5
-1.453, 1.865e-5
-1.454, 1.865e-5
-1.455, 1.865e-5
-1.456, 1.865e-5
-1.457, 1.865e-5
-1.458, 1.865e-5
-1.459, 1.865e-5
-1.460, 1.557e-5
-1.461, 1.865e-5
-1.462, 1.865e-5
-1.463, 1.865e-5
-1.464, 1.865e-5
-1.465, 1.865e-5
-1.466, 1.865e-5
-1.467, 1.865e-5
-1.468, 1.865e-5
-1.469, 1.865e-5
-1.470, 1.865e-5
-1.471, 1.865e-5
-1.472, 1.865e-5
-1.473, 1.865e-5
-1.474, 1.865e-5
-1.475, 1.865e-5
-1.476, 1.865e-5
-1.477, 1.865e-5
-1.478, 1.865e-5
-1.479, 1.865e-5
-1.480, 1.865e-5
-1.481, 1.865e-5
-1.482, 1.865e-5
-1.483, 1.865e-5
-1.484, 1.865e-5
-1.485, 2.174e-5
-1.486, 2.174e-5
-1.487, 1.865e-5
-1.488, 1.865e-5
-1.489, 1.865e-5
-1.490, 1.865e-5
-1.491, 2.174e-5
-1.492, 1.865e-5
-1.493, 1.865e-5
-1.494, 1.865e-5
-1.495, 1.865e-5
-1.496, 2.174e-5
-1.497, 1.865e-5
-1.498, 2.174e-5
-1.499, 1.865e-5
-1.500, 2.174e-5
-1.501, 1.865e-5
-1.502, 1.865e-5
-1.503, 1.865e-5
-1.504, 2.174e-5
-1.505, 1.865e-5
-1.506, 2.174e-5
-1.507, 1.865e-5
-1.508, 2.174e-5
-1.509, 1.865e-5
-1.510, 2.174e-5
-1.511, 2.174e-5
-1.512, 1.865e-5
-1.513, 2.174e-5
-1.514, 2.174e-5
-1.515, 2.174e-5
-1.516, 2.174e-5
-1.517, 2.174e-5
-1.518, 2.174e-5
-1.519, 2.174e-5
-1.520, 2.174e-5
-1.521, 1.865e-5
-1.522, 2.174e-5
-1.523, 2.174e-5
-1.524, 2.174e-5
-1.525, 2.174e-5
-1.526, 2.174e-5
-1.527, 2.174e-5
-1.528, 2.174e-5
-1.529, 2.174e-5
-1.530, 2.174e-5
-1.531, 2.174e-5
-1.532, 2.174e-5
-1.533, 2.174e-5
-1.534, 2.174e-5
-1.535, 2.174e-5
-1.536, 1.865e-5
-1.537, 2.174e-5
-1.538, 2.174e-5
-1.539, 2.174e-5
-1.540, 2.174e-5
-1.541, 2.174e-5
-1.542, 2.174e-5
-1.543, 2.174e-5
-1.544, 2.174e-5
-1.545, 2.174e-5
-1.546, 2.174e-5
-1.547, 2.174e-5
-1.548, 2.174e-5
-1.549, 2.174e-5
-1.550, 2.174e-5
-1.551, 2.482e-5
-1.552, 2.174e-5
-1.553, 2.174e-5
-1.554, 2.174e-5
-1.555, 2.174e-5
-1.556, 2.174e-5
-1.557, 2.174e-5
-1.558, 2.174e-5
-1.559, 2.174e-5
-1.560, 2.482e-5
-1.561, 2.482e-5
-1.562, 2.482e-5
-1.563, 2.174e-5
-1.564, 2.482e-5
-1.565, 2.482e-5
-1.566, 2.482e-5
-1.567, 2.482e-5
-1.568, 2.174e-5
-1.569, 2.174e-5
-1.570, 2.482e-5
-1.571, 2.482e-5
-1.572, 2.482e-5
-1.573, 2.174e-5
-1.574, 2.482e-5
-1.575, 2.482e-5
-1.576, 2.482e-5
-1.577, 2.482e-5
-1.578, 2.482e-5
-1.579, 2.482e-5
-1.580, 2.482e-5
-1.581, 2.482e-5
-1.582, 2.482e-5
-1.583, 2.482e-5
-1.584, 2.482e-5
-1.585, 2.790e-5
-1.586, 2.482e-5
-1.587, 2.482e-5
-1.588, 2.482e-5
-1.589, 2.482e-5
-1.590, 2.790e-5
-1.591, 2.482e-5
-1.592, 2.482e-5
-1.593, 2.790e-5
-1.594, 2.482e-5
-1.595, 2.790e-5
-1.596, 2.482e-5
-1.597, 2.790e-5
-1.598, 2.790e-5
-1.599, 2.790e-5
-1.600, 2.482e-5
-1.601, 2.790e-5
-1.602, 2.790e-5
-1.603, 2.790e-5
-1.604, 2.790e-5
-1.605, 2.790e-5
-1.606, 2.790e-5
-1.607, 2.790e-5
-1.608, 2.790e-5
-1.609, 2.790e-5
-1.610, 2.790e-5
-1.611, 2.790e-5
-1.612, 2.790e-5
-1.613, 2.790e-5
-1.614, 2.790e-5
-1.615, 2.790e-5
-1.616, 2.790e-5
-1.617, 3.099e-5
-1.618, 3.099e-5
-1.619, 2.790e-5
-1.620, 2.790e-5
-1.621, 3.099e-5
-1.622, 3.099e-5
-1.623, 3.099e-5
-1.624, 3.099e-5
-1.625, 2.790e-5
-1.626, 3.099e-5
-1.627, 3.099e-5
-1.628, 3.099e-5
-1.629, 3.099e-5
-1.630, 3.407e-5
-1.631, 3.099e-5
-1.632, 3.407e-5
-1.633, 3.407e-5
-1.634, 3.099e-5
-1.635, 3.099e-5
-1.636, 3.407e-5
-1.637, 3.407e-5
-1.638, 3.407e-5
-1.639, 3.099e-5
-1.640, 3.407e-5
-1.641, 3.407e-5
-1.642, 3.715e-5
-1.643, 3.407e-5
-1.644, 3.715e-5
-1.645, 3.715e-5
-1.646, 3.715e-5
-1.647, 3.715e-5
-1.648, 3.715e-5
-1.649, 3.715e-5
-1.650, 3.715e-5
-1.651, 3.715e-5
-1.652, 3.715e-5
-1.653, 3.715e-5
-1.654, 3.715e-5
-1.655, 3.715e-5
-1.656, 4.024e-5
-1.657, 4.024e-5
-1.658, 4.024e-5
-1.659, 4.024e-5
-1.660, 4.024e-5
-1.661, 4.024e-5
-1.662, 4.024e-5
-1.663, 4.332e-5
-1.664, 4.332e-5
-1.665, 4.332e-5
-1.666, 4.332e-5
-1.667, 4.332e-5
-1.668, 4.332e-5
-1.669, 4.332e-5
-1.670, 4.640e-5
-1.671, 4.640e-5
-1.672, 4.332e-5
-1.673, 4.640e-5
-1.674, 4.640e-5
-1.675, 4.949e-5
-1.676, 4.949e-5
-1.677, 4.949e-5
-1.678, 4.949e-5
-1.679, 4.949e-5
-1.680, 4.949e-5
-1.681, 5.257e-5
-1.682, 5.257e-5
-1.683, 5.257e-5
-1.684, 5.565e-5
-1.685, 5.257e-5
-1.686, 5.565e-5
-1.687, 5.565e-5
-1.688, 5.873e-5
-1.689, 5.873e-5
-1.690, 5.873e-5
-1.691, 5.873e-5
-1.692, 6.182e-5
-1.693, 6.182e-5
-1.694, 6.182e-5
-1.695, 6.182e-5
-1.696, 6.490e-5
-1.697, 6.798e-5
-1.698, 6.798e-5
-1.699, 6.798e-5
-1.700, 6.798e-5
-1.701, 6.798e-5
-1.702, 7.107e-5
-1.703, 7.107e-5
-1.704, 7.107e-5
-1.705, 7.415e-5
-1.706, 7.415e-5
-1.707, 7.723e-5
-1.708, 7.723e-5
-1.709, 8.032e-5
-1.710, 8.032e-5
-1.711, 8.340e-5
-1.712, 8.340e-5
-1.713, 8.648e-5
-1.714, 8.648e-5
-1.715, 8.648e-5
-1.716, 8.957e-5
-1.717, 9.265e-5
-1.718, 9.265e-5
-1.719, 9.265e-5
-1.720, 9.573e-5
-1.721, 9.882e-5
-1.722, 1.019e-4
-1.723, 1.019e-4
-1.724, 1.050e-4
-1.725, 1.050e-4
-1.726, 1.081e-4
-1.727, 1.111e-4
-1.728, 1.111e-4
-1.729, 1.142e-4
-1.730, 1.173e-4
-1.731, 1.173e-4
-1.732, 1.204e-4
-1.733, 1.204e-4
-1.734, 1.235e-4
-1.735, 1.296e-4
-1.736, 1.296e-4
-1.737, 1.327e-4
-1.738, 1.358e-4
-1.739, 1.389e-4
-1.740, 1.420e-4
-1.741, 1.451e-4
-1.742, 1.481e-4
-1.743, 1.512e-4
-1.744, 1.543e-4
-1.745, 1.574e-4
-1.746, 1.605e-4
-1.747, 1.605e-4
-1.748, 1.666e-4
-1.749, 1.697e-4
-1.750, 1.759e-4
-1.751, 1.790e-4
-1.752, 1.821e-4
-1.753, 1.851e-4
-1.754, 1.913e-4
-1.755, 1.913e-4
-1.756, 1.975e-4
-1.757, 2.006e-4
-1.758, 2.036e-4
-1.759, 2.098e-4
-1.760, 2.129e-4
-1.761, 2.160e-4
-1.762, 2.221e-4
-1.763, 2.283e-4
-1.764, 2.345e-4
-1.765, 2.376e-4
-1.766, 2.406e-4
-1.767, 2.468e-4
-1.768, 2.530e-4
-1.769, 2.561e-4
-1.770, 2.622e-4
-1.771, 2.684e-4
-1.772, 2.715e-4
-1.773, 2.776e-4
-1.774, 2.838e-4
-1.775, 2.900e-4
-1.776, 2.961e-4
-1.777, 3.023e-4
-1.778, 3.085e-4
-1.779, 3.177e-4
-1.780, 3.208e-4
-1.781, 3.300e-4
-1.782, 3.362e-4
-1.783, 3.424e-4
-1.784, 3.485e-4
-1.785, 3.578e-4
-1.786, 3.640e-4
-1.787, 3.732e-4
-1.788, 3.825e-4
-1.789, 3.886e-4
-1.790, 3.979e-4
-1.791, 4.071e-4
-1.792, 4.133e-4
-1.793, 4.225e-4
-1.794, 4.318e-4
-1.795, 4.410e-4
-1.796, 4.503e-4
-1.797, 4.565e-4
-1.798, 4.657e-4
-1.799, 4.750e-4
-1.800, 4.842e-4
-1.801, 4.965e-4
-1.802, 5.089e-4
-1.803, 5.181e-4
-1.804, 5.274e-4
-1.805, 5.397e-4
-1.806, 5.520e-4
-1.807, 5.613e-4
-1.808, 5.736e-4
-1.809, 5.829e-4
-1.810, 5.952e-4
-1.811, 6.075e-4
-1.812, 6.199e-4
-1.813, 6.291e-4
-1.814, 6.414e-4
-1.815, 6.569e-4
-1.816, 6.692e-4
-1.817, 6.846e-4
-1.818, 6.969e-4
-1.819, 7.093e-4
-1.820, 7.278e-4
-1.821, 7.401e-4
-1.822, 7.524e-4
-1.823, 7.648e-4
-1.824, 7.833e-4
-1.825, 7.956e-4
-1.826, 8.110e-4
-1.827, 8.264e-4
-1.828, 8.449e-4
-1.829, 8.603e-4
-1.830, 8.788e-4
-1.831, 8.943e-4
-1.832, 9.097e-4
-1.833, 9.282e-4
-1.834, 9.467e-4
-1.835, 9.652e-4
-1.836, 9.806e-4
-1.837, 9.991e-4
-1.838, 1.018e-3
-1.839, 1.036e-3
-1.840, 1.055e-3
-1.841, 1.073e-3
-1.842, 1.092e-3
-1.843, 1.113e-3
-1.844, 1.135e-3
-1.845, 1.156e-3
-1.846, 1.175e-3
-1.847, 1.196e-3
-1.848, 1.218e-3
-1.849, 1.240e-3
-1.850, 1.261e-3
-1.851, 1.280e-3
-1.852, 1.301e-3
-1.853, 1.326e-3
-1.854, 1.347e-3
-1.855, 1.372e-3
-1.856, 1.394e-3
-1.857, 1.418e-3
-1.858, 1.446e-3
-1.859, 1.471e-3
-1.860, 1.495e-3
-1.861, 1.520e-3
-1.862, 1.542e-3
-1.863, 1.569e-3
-1.864, 1.594e-3
-1.865, 1.619e-3
-1.866, 1.647e-3
-1.867, 1.671e-3
-1.868, 1.699e-3
-1.869, 1.730e-3
-1.870, 1.754e-3
-1.871, 1.785e-3
-1.872, 1.813e-3
-1.873, 1.841e-3
-1.874, 1.872e-3
-1.875, 1.899e-3
-1.876, 1.930e-3
-1.877, 1.958e-3
-1.878, 1.986e-3
-1.879, 2.013e-3
-1.880, 2.044e-3
-1.881, 2.078e-3
-1.882, 2.109e-3
-1.883, 2.140e-3
-1.884, 2.174e-3
-1.885, 2.205e-3
-1.886, 2.238e-3
-1.887, 2.272e-3
-1.888, 2.303e-3
-1.889, 2.337e-3
-1.890, 2.371e-3
-1.891, 2.402e-3
-1.892, 2.436e-3
-1.893, 2.470e-3
-1.894, 2.504e-3
-1.895, 2.541e-3
-1.896, 2.578e-3
-1.897, 2.612e-3
-1.898, 2.649e-3
-1.899, 2.686e-3
-1.900, 2.701e-3
-1.899, 2.689e-3
-1.898, 2.676e-3
-1.897, 2.664e-3
-1.896, 2.652e-3
-1.895, 2.636e-3
-1.894, 2.624e-3
-1.893, 2.608e-3
-1.892, 2.593e-3
-1.891, 2.581e-3
-1.890, 2.568e-3
-1.889, 2.553e-3
-1.888, 2.538e-3
-1.887, 2.522e-3
-1.886, 2.507e-3
-1.885, 2.491e-3
-1.884, 2.470e-3
-1.883, 2.451e-3
-1.882, 2.436e-3
-1.881, 2.417e-3
-1.880, 2.399e-3
-1.879, 2.380e-3
-1.878, 2.362e-3
-1.877, 2.346e-3
-1.876, 2.331e-3
-1.875, 2.312e-3
-1.874, 2.294e-3
-1.873, 2.279e-3
-1.872, 2.257e-3
-1.871, 2.238e-3
-1.870, 2.220e-3
-1.869, 2.201e-3
-1.868, 2.183e-3
-1.867, 2.164e-3
-1.866, 2.146e-3
-1.865, 2.128e-3
-1.864, 2.112e-3
-1.863, 2.094e-3
-1.862, 2.078e-3
-1.861, 2.060e-3
-1.860, 2.041e-3
-1.859, 2.023e-3
-1.858, 2.004e-3
-1.857, 1.986e-3
-1.856, 1.967e-3
-1.855, 1.949e-3
-1.854, 1.930e-3
-1.853, 1.912e-3
-1.852, 1.896e-3
-1.851, 1.878e-3
-1.850, 1.862e-3
-1.849, 1.844e-3
-1.848, 1.828e-3
-1.847, 1.810e-3
-1.846, 1.795e-3
-1.845, 1.776e-3
-1.844, 1.758e-3
-1.843, 1.739e-3
-1.842, 1.721e-3
-1.841, 1.705e-3
-1.840, 1.687e-3
-1.839, 1.671e-3
-1.838, 1.653e-3
-1.837, 1.637e-3
-1.836, 1.622e-3
-1.835, 1.606e-3
-1.834, 1.591e-3
-1.833, 1.576e-3
-1.832, 1.557e-3
-1.831, 1.542e-3
-1.830, 1.523e-3
-1.829, 1.508e-3
-1.828, 1.489e-3
-1.827, 1.474e-3
-1.826, 1.458e-3
-1.825, 1.443e-3
-1.824, 1.428e-3
-1.823, 1.415e-3
-1.822, 1.400e-3
-1.821, 1.384e-3
-1.820, 1.372e-3
-1.819, 1.357e-3
-1.818, 1.338e-3
-1.817, 1.326e-3
-1.816, 1.310e-3
-1.815, 1.298e-3
-1.814, 1.280e-3
-1.813, 1.264e-3
-1.812, 1.249e-3
-1.811, 1.236e-3
-1.810, 1.224e-3
-1.809, 1.212e-3
-1.808, 1.199e-3
-1.807, 1.184e-3
-1.806, 1.172e-3
-1.805, 1.159e-3
-1.804, 1.144e-3
-1.803, 1.129e-3
-1.802, 1.116e-3
-1.801, 1.104e-3
-1.800, 1.092e-3
-1.799, 1.076e-3
-1.798, 1.064e-3
-1.797, 1.051e-3
-1.796, 1.042e-3
-1.795, 1.027e-3
-1.794, 1.018e-3
-1.793, 1.002e-3
-1.792, 9.929e-4
-1.791, 9.806e-4
-1.790, 9.683e-4
-1.789, 9.528e-4
-1.788, 9.436e-4
-1.787, 9.313e-4
-1.786, 9.220e-4
-1.785, 9.066e-4
-1.784, 8.943e-4
-1.783, 8.881e-4
-1.782, 8.758e-4
-1.781, 8.665e-4
-1.780, 8.542e-4
-1.779, 8.418e-4
-1.778, 8.326e-4
-1.777, 8.203e-4
-1.776, 8.110e-4
-1.775, 7.987e-4
-1.774, 7.863e-4
-1.773, 7.771e-4
-1.772, 7.679e-4
-1.771, 7.586e-4
-1.770, 7.494e-4
-1.769, 7.370e-4
-1.768, 7.278e-4
-1.767, 7.185e-4
-1.766, 7.093e-4
-1.765, 7.000e-4
-1.764, 6.908e-4
-1.763, 6.815e-4
-1.762, 6.692e-4
-1.761, 6.599e-4
-1.760, 6.507e-4
-1.759, 6.445e-4
-1.758, 6.353e-4
-1.757, 6.260e-4
-1.756, 6.168e-4
-1.755, 6.106e-4
-1.754, 6.014e-4
-1.753, 5.952e-4
-1.752, 5.859e-4
-1.751, 5.767e-4
-1.750, 5.674e-4
-1.749, 5.613e-4
-1.748, 5.520e-4
-1.747, 5.428e-4
-1.746, 5.335e-4
-1.745, 5.274e-4
-1.744, 5.212e-4
-1.743, 5.120e-4
-1.742, 5.058e-4
-1.741, 4.996e-4
-1.740, 4.904e-4
-1.739, 4.873e-4
-1.738, 4.780e-4
-1.737, 4.688e-4
-1.736, 4.626e-4
-1.735, 4.565e-4
-1.734, 4.503e-4
-1.733, 4.410e-4
-1.732, 4.349e-4
-1.731, 4.287e-4
-1.730, 4.225e-4
-1.729, 4.164e-4
-1.728, 4.102e-4
-1.727, 4.040e-4
-1.726, 3.979e-4
-1.725, 3.917e-4
-1.724, 3.855e-4
-1.723, 3.794e-4
-1.722, 3.732e-4
-1.721, 3.670e-4
-1.720, 3.609e-4
-1.719, 3.547e-4
-1.718, 3.485e-4
-1.717, 3.455e-4
-1.716, 3.424e-4
-1.715, 3.331e-4
-1.714, 3.270e-4
-1.713, 3.239e-4
-1.712, 3.177e-4
-1.711, 3.146e-4
-1.710, 3.085e-4
-1.709, 3.023e-4
-1.708, 2.961e-4
-1.707, 2.931e-4
-1.706, 2.869e-4
-1.705, 2.838e-4
-1.704, 2.776e-4
-1.703, 2.746e-4
-1.702, 2.715e-4
-1.701, 2.653e-4
-1.700, 2.591e-4
-1.699, 2.561e-4
-1.698, 2.499e-4
-1.697, 2.468e-4
-1.696, 2.437e-4
-1.695, 2.376e-4
-1.694, 2.314e-4
-1.693, 2.314e-4
-1.692, 2.283e-4
-1.691, 2.221e-4
-1.690, 2.191e-4
-1.689, 2.160e-4
-1.688, 2.098e-4
-1.687, 2.098e-4
-1.686, 2.036e-4
-1.685, 2.006e-4
-1.684, 1.975e-4
-1.683, 1.944e-4
-1.682, 1.882e-4
-1.681, 1.851e-4
-1.680, 1.821e-4
-1.679, 1.790e-4
-1.678, 1.759e-4
-1.677, 1.728e-4
-1.676, 1.697e-4
-1.675, 1.666e-4
-1.674, 1.636e-4
-1.673, 1.605e-4
-1.672, 1.574e-4
-1.671, 1.543e-4
-1.670, 1.512e-4
-1.669, 1.481e-4
-1.668, 1.451e-4
-1.667, 1.420e-4
-1.666, 1.389e-4
-1.665, 1.389e-4
-1.664, 1.358e-4
-1.663, 1.327e-4
-1.662, 1.296e-4
-1.661, 1.266e-4
-1.660, 1.266e-4
-1.659, 1.235e-4
-1.658, 1.204e-4
-1.657, 1.173e-4
-1.656, 1.173e-4
-1.655, 1.111e-4
-1.654, 1.111e-4
-1.653, 1.081e-4
-1.652, 1.050e-4
-1.651, 1.019e-4
-1.650, 1.019e-4
-1.649, 1.019e-4
-1.648, 9.573e-5
-1.647, 9.573e-5
-1.646, 9.573e-5
-1.645, 9.265e-5
-1.644, 8.957e-5
-1.643, 8.648e-5
-1.642, 8.648e-5
-1.641, 8.340e-5
-1.640, 8.340e-5
-1.639, 8.032e-5
-1.638, 7.723e-5
-1.637, 7.723e-5
-1.636, 7.723e-5
-1.635, 7.415e-5
-1.634, 7.107e-5
-1.633, 7.107e-5
-1.632, 6.798e-5
-1.631, 6.798e-5
-1.630, 6.490e-5
-1.629, 6.182e-5
-1.628, 6.182e-5
-1.627, 6.182e-5
-1.626, 6.182e-5
-1.625, 5.873e-5
-1.624, 5.565e-5
-1.623, 5.873e-5
-1.622, 5.565e-5
-1.621, 5.257e-5
-1.620, 5.257e-5
-1.619, 4.949e-5
-1.618, 4.949e-5
-1.617, 4.949e-5
-1.616, 4.640e-5
-1.615, 4.640e-5
-1.614, 4.332e-5
-1.613, 4.332e-5
-1.612, 4.332e-5
-1.611, 4.024e-5
-1.610, 4.024e-5
-1.609, 4.024e-5
-1.608, 4.024e-5
-1.607, 3.715e-5
-1.606, 3.715e-5
-1.605, 3.407e-5
-1.604, 3.407e-5
-1.603, 3.407e-5
-1.602, 3.407e-5
-1.601, 3.099e-5
-1.600, 3.099e-5
-1.599, 3.099e-5
-1.598, 3.099e-5
-1.597, 2.790e-5
-1.596, 2.790e-5
-1.595, 2.790e-5
-1.594, 2.790e-5
-1.593, 2.482e-5
-1.592, 2.482e-5
-1.591, 2.174e-5
-1.590, 2.482e-5
-1.589, 2.174e-5
-1.588, 2.174e-5
-1.587, 1.865e-5
-1.586, 1.865e-5
-1.585, 1.865e-5
-1.584, 1.865e-5
-1.583, 1.865e-5
-1.582, 1.557e-5
-1.581, 1.865e-5
-1.580, 1.557e-5
-1.579, 1.557e-5
-1.578, 1.557e-5
-1.577, 1.249e-5
-1.576, 1.557e-5
-1.575, 1.249e-5
-1.574, 1.249e-5
-1.573, 1.249e-5
-1.572, 1.249e-5
-1.571, 1.249e-5
-1.570, 1.249e-5
-1.569, 1.249e-5
-1.568, 9.405e-6
-1.567, 9.405e-6
-1.566, 9.405e-6
-1.565, 9.405e-6
-1.564, 6.322e-6
-1.563, 6.322e-6
-1.562, 6.322e-6
-1.561, 6.322e-6
-1.560, 6.322e-6
-1.559, 6.322e-6
-1.558, 6.322e-6
-1.557, 6.322e-6
-1.556, 6.322e-6
-1.555, 6.322e-6
-1.554, 3.239e-6
-1.553, 3.239e-6
-1.552, 3.239e-6
-1.551, 3.239e-6
-1.550, 3.239e-6
-1.549, 1.559e-7
-1.548, 3.239e-6
-1.547, 3.239e-6
-1.546, 3.239e-6
-1.545, 1.559e-7
-1.544, 1.559e-7
-1.543, 1.559e-7
-1.542, 3.239e-6
-1.541, 1.559e-7
-1.540, 1.559e-7
-1.539, -2.927e-6
-1.538, 1.559e-7
-1.537, 1.559e-7
-1.536, 1.559e-7
-1.535, -2.927e-6
-1.534, 1.559e-7
-1.533, 1.559e-7
-1.532, 1.559e-7
-1.531, 1.559e-7
-1.530, -2.927e-6
-1.529, -2.927e-6
-1.528, 1.559e-7
-1.527, -2.927e-6
-1.526, -2.927e-6
-1.525, -2.927e-6
-1.524, -2.927e-6
-1.523, -2.927e-6
-1.522, -2.927e-6
-1.521, -2.927e-6
-1.520, -6.010e-6
-1.519, -2.927e-6
-1.518, -2.927e-6
-1.517, -2.927e-6
-1.516, -2.927e-6
-1.515, -2.927e-6
-1.514, -2.927e-6
-1.513, -2.927e-6
-1.512, -6.010e-6
-1.511, -6.010e-6
-1.510, -6.010e-6
-1.509, -2.927e-6
-1.508, -6.010e-6
-1.507, -6.010e-6
-1.506, -6.010e-6
-1.505, -6.010e-6
-1.504, -6.010e-6
-1.503, -2.927e-6
-1.502, -6.010e-6
-1.501, -2.927e-6
-1.500, -6.010e-6
-1.499, -6.010e-6
-1.498, -6.010e-6
-1.497, -6.010e-6
-1.496, -6.010e-6
-1.495, -6.010e-6
-1.494, -6.010e-6
-1.493, -9.093e-6
-1.492, -9.093e-6
-1.491, -6.010e-6
-1.490, -6.010e-6
-1.489, -6.010e-6
-1.488, -6.010e-6
-1.487, -9.093e-6
-1.486, -6.010e-6
-1.485, -6.010e-6
-1.484, -9.093e-6
-1.483, -9.093e-6
-1.482, -9.093e-6
-1.481, -9.093e-6
-1.480, -6.010e-6
-1.479, -9.093e-6
-1.478, -9.093e-6
-1.477, -6.010e-6
-1.476, -6.010e-6
-1.475, -9.093e-6
-1.474, -9.093e-6
-1.473, -9.093e-6
-1.472, -9.093e-6
-1.471, -9.093e-6
-1.470, -9.093e-6
-1.469, -9.093e-6
-1.468, -9.093e-6
-1.467, -9.093e-6
-1.466, -9.093e-6
-1.465, -9.093e-6
-1.464, -9.093e-6
-1.463, -9.093e-6
-1.462, -9.093e-6
-1.461, -9.093e-6
-1.460, -9.093e-6
-1.459, -9.093e-6
-1.458, -9.093e-6
-1.457, -9.093e-6
-1.456, -9.093e-6
-1.455, -9.093e-6
-1.454, -9.093e-6
-1.453, -9.093e-6
-1.452, -9.093e-6
-1.451, -9.093e-6
-1.450, -9.093e-6
-1.449, -9.093e-6
-1.448, -9.093e-6
-1.447, -9.093e-6
-1.446, -9.093e-6
-1.445, -9.093e-6
-1.444, -9.093e-6
-1.443, -9.093e-6
-1.442, -9.093e-6
-1.441, -9.093e-6
-1.440, -9.093e-6
-1.439, -9.093e-6
-1.438, -9.093e-6
-1.437, -9.093e-6
-1.436, -9.093e-6
-1.435, -9.093e-6
-1.434, -9.093e-6
-1.433, -9.093e-6
-1.432, -9.093e-6
-1.431, -9.093e-6
-1.430, -9.093e-6
-1.429, -9.093e-6
-1.428, -9.093e-6
-1.427, -9.093e-6
-1.426, -9.093e-6
-1.425, -9.093e-6
-1.424, -9.093e-6
-1.423, -9.093e-6
-1.422, -9.093e-6
-1.421, -9.093e-6
-1.420, -9.093e-6
-1.419, -9.093e-6
-1.418, -9.093e-6
-1.417, -1.218e-5
-1.416, -9.093e-6
-1.415, -9.093e-6
-1.414, -9.093e-6
-1.413, -9.093e-6
-1.412, -9.093e-6
-1.411, -9.093e-6
-1.410, -9.093e-6
-1.409, -9.093e-6
-1.408, -9.093e-6
-1.407, -9.093e-6
-1.406, -9.093e-6
-1.405, -9.093e-6
-1.404, -9.093e-6
-1.403, -9.093e-6
-1.402, -9.093e-6
-1.401, -9.093e-6
-1.400, -9.093e-6
-1.399, -9.093e-6
-1.398, -9.093e-6
-1.397, -9.093e-6
-1.396, -9.093e-6
-1.395, -9.093e-6
-1.394, -9.093e-6
-1.393, -9.093e-6
-1.392, -9.093e-6
-1.391, -1.218e-5
-1.390, -9.093e-6
-1.389, -9.093e-6
-1.388, -9.093e-6
-1.387, -9.093e-6
-1.386, -1.218e-5
-1.385, -9.093e-6
-1.384, -1.218e-5
-1.383, -9.093e-6
-1.382, -9.093e-6
-1.381, -9.093e-6
-1.380, -1.218e-5
-1.379, -9.093e-6
-1.378, -9.093e-6
-1.377, -9.093e-6
-1.376, -9.093e-6
-1.375, -9.093e-6
-1.374, -9.093e-6
-1.373, -9.093e-6
-1.372, -9.093e-6
-1.371, -9.093e-6
-1.370, -9.093e-6
-1.369, -9.093e-6
-1.368, -9.093e-6
-1.367, -9.093e-6
-1.366, -1.218e-5
-1.365, -9.093e-6
-1.364, -9.093e-6
-1.363, -9.093e-6
-1.362, -1.218e-5
-1.361, -1.218e-5
-1.360, -9.093e-6
-1.359, -9.093e-6
-1.358, -9.093e-6
-1.357, -9.093e-6
-1.356, -9.093e-6
-1.355, -9.093e-6
-1.354, -9.093e-6
-1.353, -9.093e-6
-1.352, -9.093e-6
-1.351, -9.093e-6
-1.350, -9.093e-6
-1.349, -9.093e-6
-1.348, -9.093e-6
-1.347, -1.218e-5
-1.346, -9.093e-6
-1.345, -9.093e-6
-1.344, -9.093e-6
-1.343, -9.093e-6
-1.342, -9.093e-6
-1.341, -9.093e-6
-1.340, -9.093e-6
-1.339, -9.093e-6
-1.338, -9.093e-6
-1.337, -9.093e-6
-1.336, -9.093e-6
-1.335, -9.093e-6
-1.334, -9.093e-6
-1.333, -1.218e-5
-1.332, -9.093e-6
-1.331, -9.093e-6
-1.330, -9.093e-6
-1.329, -9.093e-6
-1.328, -1.218e-5
-1.327, -9.093e-6
-1.326, -9.093e-6
-1.325, -9.093e-6
-1.324, -9.093e-6
-1.323, -9.093e-6
-1.322, -9.093e-6
-1.321, -9.093e-6
-1.320, -1.218e-5
-1.319, -9.093e-6
-1.318, -1.218e-5
-1.317, -9.093e-6
-1.316, -9.093e-6
-1.315, -9.093e-6
-1.314, -1.218e-5
-1.313, -9.093e-6
-1.312, -9.093e-6
-1.311, -9.093e-6
-1.310, -1.218e-5
-1.309, -9.093e-6
-1.308, -9.093e-6
-1.307, -9.093e-6
-1.306, -9.093e-6
-1.305, -9.093e-6
-1.304, -9.093e-6
-1.303, -9.093e-6
-1.302, -9.093e-6
-1.301, -9.093e-6
-1.300, -1.218e-5
-1.299, -9.093e-6
-1.298, -9.093e-6
-1.297, -9.093e-6
-1.296, -9.093e-6
-1.295, -9.093e-6
-1.294, -9.093e-6
-1.293, -9.093e-6
-1.292, -9.093e-6
-1.291, -1.218e-5
-1.290, -9.093e-6
-1.289, -9.093e-6
-1.288, -9.093e-6
-1.287, -1.218e-5
-1.286, -1.218e-5
-1.285, -9.093e-6
-1.284, -9.093e-6
-1.283, -9.093e-6
-1.282, -9.093e-6
-1.281, -9.093e-6
-1.280, -9.093e-6
-1.279, -9.093e-6
-1.278, -9.093e-6
-1.277, -9.093e-6
-1.276, -9.093e-6
-1.275, -9.093e-6
-1.274, -9.093e-6
-1.273, -9.093e-6
-1.272, -9.093e-6
-1.271, -9.093e-6
-1.270, -9.093e-6
-1.269, -9.093e-6
-1.268, -9.093e-6
-1.267, -1.218e-5
-1.266, -9.093e-6
-1.265, -9.093e-6
-1.264, -9.093e-6
-1.263, -9.093e-6
-1.262, -9.093e-6
-1.261, -1.218e-5
-1.260, -9.093e-6
-1.259, -9.093e-6
-1.258, -1.218e-5
-1.257, -9.093e-6
-1.256, -9.093e-6
-1.255, -9.093e-6
-1.254, -1.218e-5
-1.253, -9.093e-6
-1.252, -9.093e-6
-1.251, -9.093e-6
-1.250, -9.093e-6
-1.249, -9.093e-6
-1.248, -1.218e-5
-1.247, -9.093e-6
-1.246, -9.093e-6
-1.245, -9.093e-6
-1.244, -9.093e-6
-1.243, -9.093e-6
-1.242, -9.093e-6
-1.241, -9.093e-6
-1.240, -9.093e-6
-1.239, -9.093e-6
-1.238, -9.093e-6
-1.237, -9.093e-6
-1.236, -9.093e-6
-1.235, -9.093e-6
-1.234, -1.218e-5
-1.233, -9.093e-6
-1.232, -9.093e-6
-1.231, -9.093e-6
-1.230, -9.093e-6
-1.229, -9.093e-6
-1.228, -9.093e-6
-1.227, -9.093e-6
-1.226, -9.093e-6
-1.225, -9.093e-6
-1.224, -9.093e-6
-1.223, -9.093e-6
-1.222, -9.093e-6
-1.221, -9.093e-6
-1.220, -9.093e-6
-1.219, -1.218e-5
-1.218, -9.093e-6
-1.217, -9.093e-6
-1.216, -9.093e-6
-1.215, -1.218e-5
-1.214, -9.093e-6
-1.213, -9.093e-6
-1.212, -9.093e-6
-1.211, -9.093e-6
-1.210, -9.093e-6
-1.209, -9.093e-6
-1.208, -9.093e-6
-1.207, -9.093e-6
-1.206, -9.093e-6
-1.205, -1.218e-5
-1.204, -9.093e-6
-1.203, -9.093e-6
-1.202, -9.093e-6
-1.201, -1.218e-5
-1.200, -9.093e-6
-1.199, -9.093e-6
-1.198, -9.093e-6
-1.197, -9.093e-6
-1.196, -1.218e-5
-1.195, -9.093e-6
-1.194, -9.093e-6
-1.193, -9.093e-6
-1.192, -9.093e-6
-1.191, -9.093e-6
-1.190, -9.093e-6
-1.189, -9.093e-6
-1.188, -9.093e-6
-1.187, -9.093e-6
-1.186, -1.218e-5
-1.185, -9.093e-6
-1.184, -9.093e-6
-1.183, -9.093e-6
-1.182, -9.093e-6
-1.181, -9.093e-6
-1.180, -9.093e-6
-1.179, -9.093e-6
-1.178, -9.093e-6
-1.177, -9.093e-6
-1.176, -9.093e-6
-1.175, -9.093e-6
-1.174, -9.093e-6
-1.173, -9.093e-6
-1.172, -9.093e-6
-1.171, -9.093e-6
-1.170, -9.093e-6
-1.169, -9.093e-6
-1.168, -9.093e-6
-1.167, -9.093e-6
-1.166, -9.093e-6
-1.165, -9.093e-6
-1.164, -9.093e-6
-1.163, -9.093e-6
-1.162, -9.093e-6
-1.161, -9.093e-6
-1.160, -9.093e-6
-1.159, -1.218e-5
-1.158, -9.093e-6
-1.157, -9.093e-6
-1.156, -9.093e-6
-1.155, -9.093e-6
-1.154, -9.093e-6
-1.153, -1.218e-5
-1.152, -9.093e-6
-1.151, -9.093e-6
-1.150, -9.093e-6
-1.149, -9.093e-6
-1.148, -9.093e-6
-1.147, -9.093e-6
-1.146, -9.093e-6
-1.145, -9.093e-6
-1.144, -9.093e-6
-1.143, -9.093e-6
-1.142, -9.093e-6
-1.141, -9.093e-6
-1.140, -9.093e-6
-1.139, -1.218e-5
-1.138, -9.093e-6
-1.137, -9.093e-6
-1.136, -9.093e-6
-1.135, -9.093e-6
-1.134, -9.093e-6
-1.133, -9.093e-6
-1.132, -9.093e-6
-1.131, -9.093e-6
-1.130, -9.093e-6
-1.129, -6.010e-6
-1.128, -9.093e-6
-1.127, -9.093e-6
-1.126, -1.218e-5
-1.125, -9.093e-6
-1.124, -9.093e-6
-1.123, -9.093e-6
-1.122, -9.093e-6
-1.121, -9.093e-6
-1.120, -9.093e-6
-1.119, -9.093e-6
-1.118, -9.093e-6
-1.117, -9.093e-6
-1.116, -1.218e-5
-1.115, -9.093e-6
-1.114, -9.093e-6
-1.113, -9.093e-6
-1.112, -1.218e-5
-1.111, -9.093e-6
-1.110, -9.093e-6
-1.109, -9.093e-6
-1.108, -9.093e-6
-1.107, -9.093e-6
-1.106, -9.093e-6
-1.105, -9.093e-6
-1.104, -9.093e-6
-1.103, -9.093e-6
-1.102, -9.093e-6
-1.101, -9.093e-6
-1.100, -9.093e-6
-1.099, -9.093e-6
-1.098, -9.093e-6
-1.097, -9.093e-6
-1.096, -9.093e-6
-1.095, -9.093e-6
-1.094, -9.093e-6
-1.093, -1.218e-5
-1.092, -9.093e-6
-1.091, -9.093e-6
-1.090, -9.093e-6
-1.089, -9.093e-6
-1.088, -9.093e-6
-1.087, -9.093e-6
-1.086, -9.093e-6
-1.085, -9.093e-6
-1.084, -9.093e-6
-1.083, -9.093e-6
-1.082, -9.093e-6
-1.081, -9.093e-6
-1.080, -9.093e-6
-1.079, -1.218e-5
-1.078, -9.093e-6
-1.077, -9.093e-6
-1.076, -9.093e-6
-1.075, -9.093e-6
-1.074, -9.093e-6
-1.073, -9.093e-6
-1.072, -9.093e-6
-1.071, -9.093e-6
-1.070, -9.093e-6
-1.069, -9.093e-6
-1.068, -9.093e-6
-1.067, -9.093e-6
-1.066, -9.093e-6
-1.065, -9.093e-6
-1.064, -9.093e-6
-1.063, -9.093e-6
-1.062, -9.093e-6
-1.061, -9.093e-6
-1.060, -9.093e-6
-1.059, -9.093e-6
-1.058, -9.093e-6
-1.057, -9.093e-6
-1.056, -9.093e-6
-1.055, -9.093e-6
-1.054, -9.093e-6
-1.053, -9.093e-6
-1.052, -9.093e-6
-1.051, -9.093e-6
-1.050, -9.093e-6
-1.049, -9.093e-6
-1.048, -9.093e-6
-1.047, -9.093e-6
-1.046, -9.093e-6
-1.045, -9.093e-6
-1.044, -9.093e-6
-1.043, -9.093e-6
-1.042, -9.093e-6
-1.041, -9.093e-6
-1.040, -9.093e-6
-1.039, -9.093e-6
-1.038, -9.093e-6
-1.037, -9.093e-6
-1.036, -9.093e-6
-1.035, -9.093e-6
-1.034, -9.093e-6
-1.033, -9.093e-6
-1.032, -9.093e-6
-1.031, -1.218e-5
-1.030, -9.093e-6
-1.029, -9.093e-6
-1.028, -9.093e-6
-1.027, -9.093e-6
-1.026, -9.093e-6
-1.025, -9.093e-6
-1.024, -9.093e-6
-1.023, -9.093e-6
-1.022, -9.093e-6
-1.021, -9.093e-6
-1.020, -9.093e-6
-1.019, -9.093e-6
-1.018, -9.093e-6
-1.017, -9.093e-6
-1.016, -9.093e-6
-1.015, -9.093e-6
-1.014, -9.093e-6
-1.013, -1.218e-5
-1.012, -9.093e-6
-1.011, -9.093e-6
-1.010, -6.010e-6
-1.009, -9.093e-6
-1.008, -9.093e-6
-1.007, -9.093e-6
-1.006, -9.093e-6
-1.005, -9.093e-6
-1.004, -9.093e-6
-1.003, -9.093e-6
-1.002, -9.093e-6
-1.001, -9.093e-6
