Apr. 3, 2025   21:30:45
Linear Sweep Voltammetry
File: c:/users/guazh/data/banditlqround7_x0exp518_r20/2025-03-28-exp1033\post-regen1-2025-04-03t21_27_31-lsvinphos\post-regen1_lsv_50mvs_efin_-2300mv.bin
Data Source:  Experiment
Instrument Model:  CHI760E
Header: LSV ran at 50 mVs with Efin at -2300mV
Note: 

Init E (V) = -0.6
Final E (V) = -2.3
Scan Rate (V/s) = 0.05
Sample Interval (V) = 0.001
Quiet Time (sec) = 2
Sensitivity (A/V) = 1e-4
Comp R (ohm) = 9.0

Results:

Channel 1:
Ep = -1.935V
ip = 6.964e-4A
Ah = 9.331e-4C

Potential/V, Current/A

-0.600, 3.148e-6
-0.601, 3.266e-6
-0.602, 3.317e-6
-0.603, 3.353e-6
-0.604, 3.387e-6
-0.605, 3.421e-6
-0.606, 3.456e-6
-0.607, 3.489e-6
-0.608, 3.520e-6
-0.609, 3.552e-6
-0.610, 3.581e-6
-0.611, 3.616e-6
-0.612, 3.650e-6
-0.613, 3.680e-6
-0.614, 3.712e-6
-0.615, 3.743e-6
-0.616, 3.776e-6
-0.617, 3.809e-6
-0.618, 3.839e-6
-0.619, 3.872e-6
-0.620, 3.902e-6
-0.621, 3.935e-6
-0.622, 3.968e-6
-0.623, 3.997e-6
-0.624, 4.029e-6
-0.625, 4.059e-6
-0.626, 4.093e-6
-0.627, 4.127e-6
-0.628, 4.157e-6
-0.629, 4.187e-6
-0.630, 4.218e-6
-0.631, 4.251e-6
-0.632, 4.283e-6
-0.633, 4.315e-6
-0.634, 4.345e-6
-0.635, 4.377e-6
-0.636, 4.411e-6
-0.637, 4.444e-6
-0.638, 4.476e-6
-0.639, 4.508e-6
-0.640, 4.544e-6
-0.641, 4.578e-6
-0.642, 4.610e-6
-0.643, 4.641e-6
-0.644, 4.673e-6
-0.645, 4.705e-6
-0.646, 4.740e-6
-0.647, 4.774e-6
-0.648, 4.804e-6
-0.649, 4.836e-6
-0.650, 4.867e-6
-0.651, 4.900e-6
-0.652, 4.934e-6
-0.653, 4.966e-6
-0.654, 4.998e-6
-0.655, 5.031e-6
-0.656, 5.066e-6
-0.657, 5.099e-6
-0.658, 5.129e-6
-0.659, 5.161e-6
-0.660, 5.194e-6
-0.661, 5.228e-6
-0.662, 5.261e-6
-0.663, 5.290e-6
-0.664, 5.322e-6
-0.665, 5.355e-6
-0.666, 5.391e-6
-0.667, 5.423e-6
-0.668, 5.452e-6
-0.669, 5.484e-6
-0.670, 5.517e-6
-0.671, 5.549e-6
-0.672, 5.582e-6
-0.673, 5.612e-6
-0.674, 5.640e-6
-0.675, 5.670e-6
-0.676, 5.704e-6
-0.677, 5.734e-6
-0.678, 5.764e-6
-0.679, 5.795e-6
-0.680, 5.826e-6
-0.681, 5.858e-6
-0.682, 5.885e-6
-0.683, 5.913e-6
-0.684, 5.939e-6
-0.685, 5.969e-6
-0.686, 6.000e-6
-0.687, 6.029e-6
-0.688, 6.057e-6
-0.689, 6.084e-6
-0.690, 6.112e-6
-0.691, 6.142e-6
-0.692, 6.170e-6
-0.693, 6.192e-6
-0.694, 6.218e-6
-0.695, 6.245e-6
-0.696, 6.273e-6
-0.697, 6.299e-6
-0.698, 6.324e-6
-0.699, 6.350e-6
-0.700, 6.376e-6
-0.701, 6.401e-6
-0.702, 6.427e-6
-0.703, 6.449e-6
-0.704, 6.473e-6
-0.705, 6.496e-6
-0.706, 6.522e-6
-0.707, 6.546e-6
-0.708, 6.566e-6
-0.709, 6.588e-6
-0.710, 6.611e-6
-0.711, 6.634e-6
-0.712, 6.655e-6
-0.713, 6.675e-6
-0.714, 6.694e-6
-0.715, 6.715e-6
-0.716, 6.735e-6
-0.717, 6.755e-6
-0.718, 6.773e-6
-0.719, 6.792e-6
-0.720, 6.809e-6
-0.721, 6.831e-6
-0.722, 6.846e-6
-0.723, 6.861e-6
-0.724, 6.877e-6
-0.725, 6.893e-6
-0.726, 6.911e-6
-0.727, 6.926e-6
-0.728, 6.939e-6
-0.729, 6.954e-6
-0.730, 6.968e-6
-0.731, 6.985e-6
-0.732, 6.996e-6
-0.733, 7.006e-6
-0.734, 7.018e-6
-0.735, 7.029e-6
-0.736, 7.042e-6
-0.737, 7.053e-6
-0.738, 7.061e-6
-0.739, 7.070e-6
-0.740, 7.080e-6
-0.741, 7.091e-6
-0.742, 7.101e-6
-0.743, 7.107e-6
-0.744, 7.115e-6
-0.745, 7.123e-6
-0.746, 7.131e-6
-0.747, 7.138e-6
-0.748, 7.142e-6
-0.749, 7.147e-6
-0.750, 7.152e-6
-0.751, 7.158e-6
-0.752, 7.162e-6
-0.753, 7.166e-6
-0.754, 7.168e-6
-0.755, 7.173e-6
-0.756, 7.178e-6
-0.757, 7.178e-6
-0.758, 7.179e-6
-0.759, 7.179e-6
-0.760, 7.181e-6
-0.761, 7.183e-6
-0.762, 7.184e-6
-0.763, 7.183e-6
-0.764, 7.181e-6
-0.765, 7.182e-6
-0.766, 7.183e-6
-0.767, 7.180e-6
-0.768, 7.179e-6
-0.769, 7.178e-6
-0.770, 7.174e-6
-0.771, 7.174e-6
-0.772, 7.170e-6
-0.773, 7.164e-6
-0.774, 7.161e-6
-0.775, 7.157e-6
-0.776, 7.155e-6
-0.777, 7.151e-6
-0.778, 7.144e-6
-0.779, 7.138e-6
-0.780, 7.134e-6
-0.781, 7.130e-6
-0.782, 7.123e-6
-0.783, 7.116e-6
-0.784, 7.108e-6
-0.785, 7.103e-6
-0.786, 7.097e-6
-0.787, 7.089e-6
-0.788, 7.081e-6
-0.789, 7.073e-6
-0.790, 7.066e-6
-0.791, 7.061e-6
-0.792, 7.051e-6
-0.793, 7.041e-6
-0.794, 7.031e-6
-0.795, 7.026e-6
-0.796, 7.019e-6
-0.797, 7.009e-6
-0.798, 6.999e-6
-0.799, 6.989e-6
-0.800, 6.981e-6
-0.801, 6.973e-6
-0.802, 6.962e-6
-0.803, 6.950e-6
-0.804, 6.940e-6
-0.805, 6.931e-6
-0.806, 6.924e-6
-0.807, 6.912e-6
-0.808, 6.901e-6
-0.809, 6.890e-6
-0.810, 6.880e-6
-0.811, 6.871e-6
-0.812, 6.861e-6
-0.813, 6.849e-6
-0.814, 6.837e-6
-0.815, 6.827e-6
-0.816, 6.819e-6
-0.817, 6.806e-6
-0.818, 6.794e-6
-0.819, 6.786e-6
-0.820, 6.777e-6
-0.821, 6.766e-6
-0.822, 6.753e-6
-0.823, 6.740e-6
-0.824, 6.729e-6
-0.825, 6.720e-6
-0.826, 6.710e-6
-0.827, 6.697e-6
-0.828, 6.685e-6
-0.829, 6.672e-6
-0.830, 6.661e-6
-0.831, 6.652e-6
-0.832, 6.641e-6
-0.833, 6.628e-6
-0.834, 6.615e-6
-0.835, 6.605e-6
-0.836, 6.597e-6
-0.837, 6.583e-6
-0.838, 6.571e-6
-0.839, 6.558e-6
-0.840, 6.548e-6
-0.841, 6.540e-6
-0.842, 6.526e-6
-0.843, 6.514e-6
-0.844, 6.502e-6
-0.845, 6.493e-6
-0.846, 6.482e-6
-0.847, 6.470e-6
-0.848, 6.459e-6
-0.849, 6.450e-6
-0.850, 6.439e-6
-0.851, 6.430e-6
-0.852, 6.419e-6
-0.853, 6.406e-6
-0.854, 6.394e-6
-0.855, 6.383e-6
-0.856, 6.375e-6
-0.857, 6.364e-6
-0.858, 6.353e-6
-0.859, 6.342e-6
-0.860, 6.333e-6
-0.861, 6.323e-6
-0.862, 6.310e-6
-0.863, 6.300e-6
-0.864, 6.288e-6
-0.865, 6.281e-6
-0.866, 6.271e-6
-0.867, 6.262e-6
-0.868, 6.250e-6
-0.869, 6.240e-6
-0.870, 6.233e-6
-0.871, 6.226e-6
-0.872, 6.215e-6
-0.873, 6.205e-6
-0.874, 6.195e-6
-0.875, 6.188e-6
-0.876, 6.180e-6
-0.877, 6.169e-6
-0.878, 6.159e-6
-0.879, 6.150e-6
-0.880, 6.142e-6
-0.881, 6.136e-6
-0.882, 6.124e-6
-0.883, 6.114e-6
-0.884, 6.105e-6
-0.885, 6.098e-6
-0.886, 6.091e-6
-0.887, 6.078e-6
-0.888, 6.070e-6
-0.889, 6.061e-6
-0.890, 6.054e-6
-0.891, 6.047e-6
-0.892, 6.036e-6
-0.893, 6.027e-6
-0.894, 6.018e-6
-0.895, 6.013e-6
-0.896, 6.005e-6
-0.897, 5.996e-6
-0.898, 5.986e-6
-0.899, 5.979e-6
-0.900, 5.972e-6
-0.901, 5.964e-6
-0.902, 5.957e-6
-0.903, 5.947e-6
-0.904, 5.940e-6
-0.905, 5.935e-6
-0.906, 5.927e-6
-0.907, 5.920e-6
-0.908, 5.912e-6
-0.909, 5.905e-6
-0.910, 5.901e-6
-0.911, 5.894e-6
-0.912, 5.886e-6
-0.913, 5.879e-6
-0.914, 5.871e-6
-0.915, 5.867e-6
-0.916, 5.862e-6
-0.917, 5.853e-6
-0.918, 5.845e-6
-0.919, 5.838e-6
-0.920, 5.832e-6
-0.921, 5.828e-6
-0.922, 5.820e-6
-0.923, 5.813e-6
-0.924, 5.806e-6
-0.925, 5.801e-6
-0.926, 5.796e-6
-0.927, 5.786e-6
-0.928, 5.781e-6
-0.929, 5.774e-6
-0.930, 5.770e-6
-0.931, 5.765e-6
-0.932, 5.758e-6
-0.933, 5.748e-6
-0.934, 5.744e-6
-0.935, 5.739e-6
-0.936, 5.733e-6
-0.937, 5.727e-6
-0.938, 5.719e-6
-0.939, 5.714e-6
-0.940, 5.710e-6
-0.941, 5.705e-6
-0.942, 5.699e-6
-0.943, 5.692e-6
-0.944, 5.686e-6
-0.945, 5.682e-6
-0.946, 5.676e-6
-0.947, 5.673e-6
-0.948, 5.666e-6
-0.949, 5.659e-6
-0.950, 5.658e-6
-0.951, 5.653e-6
-0.952, 5.646e-6
-0.953, 5.642e-6
-0.954, 5.636e-6
-0.955, 5.633e-6
-0.956, 5.629e-6
-0.957, 5.622e-6
-0.958, 5.618e-6
-0.959, 5.613e-6
-0.960, 5.611e-6
-0.961, 5.607e-6
-0.962, 5.600e-6
-0.963, 5.597e-6
-0.964, 5.593e-6
-0.965, 5.588e-6
-0.966, 5.585e-6
-0.967, 5.579e-6
-0.968, 5.574e-6
-0.969, 5.569e-6
-0.970, 5.566e-6
-0.971, 5.562e-6
-0.972, 5.557e-6
-0.973, 5.553e-6
-0.974, 5.550e-6
-0.975, 5.547e-6
-0.976, 5.544e-6
-0.977, 5.539e-6
-0.978, 5.533e-6
-0.979, 5.531e-6
-0.980, 5.528e-6
-0.981, 5.524e-6
-0.982, 5.520e-6
-0.983, 5.514e-6
-0.984, 5.509e-6
-0.985, 5.508e-6
-0.986, 5.505e-6
-0.987, 5.499e-6
-0.988, 5.495e-6
-0.989, 5.491e-6
-0.990, 5.491e-6
-0.991, 5.486e-6
-0.992, 5.482e-6
-0.993, 5.478e-6
-0.994, 5.474e-6
-0.995, 5.472e-6
-0.996, 5.469e-6
-0.997, 5.462e-6
-0.998, 5.460e-6
-0.999, 5.457e-6
-1.000, 5.456e-6
-1.001, 5.454e-6
-1.002, 5.449e-6
-1.003, 5.446e-6
-1.004, 5.443e-6
-1.005, 5.441e-6
-1.006, 5.438e-6
-1.007, 5.433e-6
-1.008, 5.431e-6
-1.009, 5.429e-6
-1.010, 5.426e-6
-1.011, 5.424e-6
-1.012, 5.419e-6
-1.013, 5.416e-6
-1.014, 5.414e-6
-1.015, 5.413e-6
-1.016, 5.411e-6
-1.017, 5.408e-6
-1.018, 5.404e-6
-1.019, 5.401e-6
-1.020, 5.402e-6
-1.021, 5.398e-6
-1.022, 5.395e-6
-1.023, 5.391e-6
-1.024, 5.391e-6
-1.025, 5.390e-6
-1.026, 5.387e-6
-1.027, 5.382e-6
-1.028, 5.382e-6
-1.029, 5.378e-6
-1.030, 5.379e-6
-1.031, 5.376e-6
-1.032, 5.373e-6
-1.033, 5.370e-6
-1.034, 5.368e-6
-1.035, 5.368e-6
-1.036, 5.367e-6
-1.037, 5.364e-6
-1.038, 5.362e-6
-1.039, 5.360e-6
-1.040, 5.359e-6
-1.041, 5.357e-6
-1.042, 5.354e-6
-1.043, 5.353e-6
-1.044, 5.351e-6
-1.045, 5.350e-6
-1.046, 5.349e-6
-1.047, 5.346e-6
-1.048, 5.344e-6
-1.049, 5.344e-6
-1.050, 5.344e-6
-1.051, 5.342e-6
-1.052, 5.338e-6
-1.053, 5.336e-6
-1.054, 5.335e-6
-1.055, 5.337e-6
-1.056, 5.333e-6
-1.057, 5.331e-6
-1.058, 5.328e-6
-1.059, 5.329e-6
-1.060, 5.331e-6
-1.061, 5.328e-6
-1.062, 5.328e-6
-1.063, 5.325e-6
-1.064, 5.325e-6
-1.065, 5.327e-6
-1.066, 5.324e-6
-1.067, 5.321e-6
-1.068, 5.321e-6
-1.069, 5.320e-6
-1.070, 5.321e-6
-1.071, 5.321e-6
-1.072, 5.318e-6
-1.073, 5.317e-6
-1.074, 5.316e-6
-1.075, 5.319e-6
-1.076, 5.319e-6
-1.077, 5.315e-6
-1.078, 5.316e-6
-1.079, 5.315e-6
-1.080, 5.317e-6
-1.081, 5.316e-6
-1.082, 5.314e-6
-1.083, 5.314e-6
-1.084, 5.314e-6
-1.085, 5.316e-6
-1.086, 5.315e-6
-1.087, 5.312e-6
-1.088, 5.313e-6
-1.089, 5.314e-6
-1.090, 5.315e-6
-1.091, 5.315e-6
-1.092, 5.314e-6
-1.093, 5.312e-6
-1.094, 5.315e-6
-1.095, 5.315e-6
-1.096, 5.317e-6
-1.097, 5.317e-6
-1.098, 5.315e-6
-1.099, 5.317e-6
-1.100, 5.319e-6
-1.101, 5.319e-6
-1.102, 5.318e-6
-1.103, 5.318e-6
-1.104, 5.320e-6
-1.105, 5.323e-6
-1.106, 5.321e-6
-1.107, 5.321e-6
-1.108, 5.322e-6
-1.109, 5.323e-6
-1.110, 5.327e-6
-1.111, 5.326e-6
-1.112, 5.326e-6
-1.113, 5.328e-6
-1.114, 5.329e-6
-1.115, 5.332e-6
-1.116, 5.332e-6
-1.117, 5.331e-6
-1.118, 5.332e-6
-1.119, 5.335e-6
-1.120, 5.340e-6
-1.121, 5.341e-6
-1.122, 5.340e-6
-1.123, 5.342e-6
-1.124, 5.343e-6
-1.125, 5.347e-6
-1.126, 5.348e-6
-1.127, 5.352e-6
-1.128, 5.352e-6
-1.129, 5.356e-6
-1.130, 5.357e-6
-1.131, 5.359e-6
-1.132, 5.361e-6
-1.133, 5.361e-6
-1.134, 5.364e-6
-1.135, 5.368e-6
-1.136, 5.370e-6
-1.137, 5.371e-6
-1.138, 5.372e-6
-1.139, 5.375e-6
-1.140, 5.380e-6
-1.141, 5.381e-6
-1.142, 5.381e-6
-1.143, 5.385e-6
-1.144, 5.388e-6
-1.145, 5.392e-6
-1.146, 5.394e-6
-1.147, 5.397e-6
-1.148, 5.398e-6
-1.149, 5.403e-6
-1.150, 5.407e-6
-1.151, 5.410e-6
-1.152, 5.411e-6
-1.153, 5.414e-6
-1.154, 5.417e-6
-1.155, 5.422e-6
-1.156, 5.426e-6
-1.157, 5.427e-6
-1.158, 5.431e-6
-1.159, 5.435e-6
-1.160, 5.439e-6
-1.161, 5.442e-6
-1.162, 5.444e-6
-1.163, 5.447e-6
-1.164, 5.451e-6
-1.165, 5.458e-6
-1.166, 5.461e-6
-1.167, 5.466e-6
-1.168, 5.468e-6
-1.169, 5.474e-6
-1.170, 5.477e-6
-1.171, 5.480e-6
-1.172, 5.482e-6
-1.173, 5.486e-6
-1.174, 5.492e-6
-1.175, 5.496e-6
-1.176, 5.501e-6
-1.177, 5.504e-6
-1.178, 5.509e-6
-1.179, 5.515e-6
-1.180, 5.521e-6
-1.181, 5.522e-6
-1.182, 5.526e-6
-1.183, 5.529e-6
-1.184, 5.536e-6
-1.185, 5.542e-6
-1.186, 5.545e-6
-1.187, 5.548e-6
-1.188, 5.550e-6
-1.189, 5.556e-6
-1.190, 5.565e-6
-1.191, 5.568e-6
-1.192, 5.571e-6
-1.193, 5.575e-6
-1.194, 5.580e-6
-1.195, 5.587e-6
-1.196, 5.590e-6
-1.197, 5.594e-6
-1.198, 5.598e-6
-1.199, 5.604e-6
-1.200, 5.611e-6
-1.201, 5.615e-6
-1.202, 5.618e-6
-1.203, 5.622e-6
-1.204, 5.629e-6
-1.205, 5.636e-6
-1.206, 5.640e-6
-1.207, 5.644e-6
-1.208, 5.647e-6
-1.209, 5.654e-6
-1.210, 5.660e-6
-1.211, 5.663e-6
-1.212, 5.668e-6
-1.213, 5.672e-6
-1.214, 5.678e-6
-1.215, 5.684e-6
-1.216, 5.688e-6
-1.217, 5.693e-6
-1.218, 5.696e-6
-1.219, 5.702e-6
-1.220, 5.709e-6
-1.221, 5.714e-6
-1.222, 5.718e-6
-1.223, 5.723e-6
-1.224, 5.731e-6
-1.225, 5.738e-6
-1.226, 5.740e-6
-1.227, 5.745e-6
-1.228, 5.751e-6
-1.229, 5.761e-6
-1.230, 5.766e-6
-1.231, 5.770e-6
-1.232, 5.773e-6
-1.233, 5.779e-6
-1.234, 5.785e-6
-1.235, 5.793e-6
-1.236, 5.797e-6
-1.237, 5.802e-6
-1.238, 5.807e-6
-1.239, 5.814e-6
-1.240, 5.823e-6
-1.241, 5.828e-6
-1.242, 5.832e-6
-1.243, 5.837e-6
-1.244, 5.845e-6
-1.245, 5.852e-6
-1.246, 5.858e-6
-1.247, 5.863e-6
-1.248, 5.868e-6
-1.249, 5.875e-6
-1.250, 5.881e-6
-1.251, 5.886e-6
-1.252, 5.891e-6
-1.253, 5.895e-6
-1.254, 5.904e-6
-1.255, 5.911e-6
-1.256, 5.916e-6
-1.257, 5.920e-6
-1.258, 5.923e-6
-1.259, 5.932e-6
-1.260, 5.939e-6
-1.261, 5.944e-6
-1.262, 5.950e-6
-1.263, 5.954e-6
-1.264, 5.964e-6
-1.265, 5.972e-6
-1.266, 5.976e-6
-1.267, 5.983e-6
-1.268, 5.988e-6
-1.269, 5.997e-6
-1.270, 6.007e-6
-1.271, 6.013e-6
-1.272, 6.017e-6
-1.273, 6.023e-6
-1.274, 6.031e-6
-1.275, 6.041e-6
-1.276, 6.046e-6
-1.277, 6.054e-6
-1.278, 6.061e-6
-1.279, 6.069e-6
-1.280, 6.079e-6
-1.281, 6.085e-6
-1.282, 6.089e-6
-1.283, 6.097e-6
-1.284, 6.106e-6
-1.285, 6.113e-6
-1.286, 6.122e-6
-1.287, 6.126e-6
-1.288, 6.134e-6
-1.289, 6.143e-6
-1.290, 6.150e-6
-1.291, 6.157e-6
-1.292, 6.162e-6
-1.293, 6.170e-6
-1.294, 6.181e-6
-1.295, 6.187e-6
-1.296, 6.193e-6
-1.297, 6.201e-6
-1.298, 6.207e-6
-1.299, 6.215e-6
-1.300, 6.224e-6
-1.301, 6.230e-6
-1.302, 6.237e-6
-1.303, 6.244e-6
-1.304, 6.255e-6
-1.305, 6.266e-6
-1.306, 6.272e-6
-1.307, 6.280e-6
-1.308, 6.285e-6
-1.309, 6.293e-6
-1.310, 6.304e-6
-1.311, 6.310e-6
-1.312, 6.319e-6
-1.313, 6.328e-6
-1.314, 6.337e-6
-1.315, 6.347e-6
-1.316, 6.355e-6
-1.317, 6.363e-6
-1.318, 6.371e-6
-1.319, 6.382e-6
-1.320, 6.392e-6
-1.321, 6.401e-6
-1.322, 6.408e-6
-1.323, 6.417e-6
-1.324, 6.428e-6
-1.325, 6.439e-6
-1.326, 6.447e-6
-1.327, 6.455e-6
-1.328, 6.464e-6
-1.329, 6.475e-6
-1.330, 6.486e-6
-1.331, 6.495e-6
-1.332, 6.504e-6
-1.333, 6.511e-6
-1.334, 6.524e-6
-1.335, 6.536e-6
-1.336, 6.543e-6
-1.337, 6.553e-6
-1.338, 6.562e-6
-1.339, 6.574e-6
-1.340, 6.585e-6
-1.341, 6.593e-6
-1.342, 6.602e-6
-1.343, 6.612e-6
-1.344, 6.626e-6
-1.345, 6.639e-6
-1.346, 6.646e-6
-1.347, 6.656e-6
-1.348, 6.667e-6
-1.349, 6.680e-6
-1.350, 6.691e-6
-1.351, 6.701e-6
-1.352, 6.711e-6
-1.353, 6.722e-6
-1.354, 6.735e-6
-1.355, 6.748e-6
-1.356, 6.758e-6
-1.357, 6.767e-6
-1.358, 6.781e-6
-1.359, 6.793e-6
-1.360, 6.807e-6
-1.361, 6.816e-6
-1.362, 6.828e-6
-1.363, 6.840e-6
-1.364, 6.855e-6
-1.365, 6.866e-6
-1.366, 6.877e-6
-1.367, 6.887e-6
-1.368, 6.898e-6
-1.369, 6.914e-6
-1.370, 6.927e-6
-1.371, 6.938e-6
-1.372, 6.948e-6
-1.373, 6.962e-6
-1.374, 6.978e-6
-1.375, 6.991e-6
-1.376, 7.003e-6
-1.377, 7.015e-6
-1.378, 7.028e-6
-1.379, 7.044e-6
-1.380, 7.056e-6
-1.381, 7.068e-6
-1.382, 7.083e-6
-1.383, 7.099e-6
-1.384, 7.114e-6
-1.385, 7.129e-6
-1.386, 7.140e-6
-1.387, 7.155e-6
-1.388, 7.169e-6
-1.389, 7.184e-6
-1.390, 7.201e-6
-1.391, 7.213e-6
-1.392, 7.226e-6
-1.393, 7.242e-6
-1.394, 7.257e-6
-1.395, 7.274e-6
-1.396, 7.288e-6
-1.397, 7.301e-6
-1.398, 7.318e-6
-1.399, 7.335e-6
-1.400, 7.351e-6
-1.401, 7.365e-6
-1.402, 7.381e-6
-1.403, 7.395e-6
-1.404, 7.414e-6
-1.405, 7.431e-6
-1.406, 7.446e-6
-1.407, 7.462e-6
-1.408, 7.480e-6
-1.409, 7.500e-6
-1.410, 7.516e-6
-1.411, 7.530e-6
-1.412, 7.548e-6
-1.413, 7.565e-6
-1.414, 7.586e-6
-1.415, 7.606e-6
-1.416, 7.622e-6
-1.417, 7.640e-6
-1.418, 7.657e-6
-1.419, 7.680e-6
-1.420, 7.700e-6
-1.421, 7.716e-6
-1.422, 7.737e-6
-1.423, 7.754e-6
-1.424, 7.777e-6
-1.425, 7.794e-6
-1.426, 7.813e-6
-1.427, 7.835e-6
-1.428, 7.854e-6
-1.429, 7.875e-6
-1.430, 7.897e-6
-1.431, 7.914e-6
-1.432, 7.935e-6
-1.433, 7.958e-6
-1.434, 7.984e-6
-1.435, 8.004e-6
-1.436, 8.020e-6
-1.437, 8.041e-6
-1.438, 8.062e-6
-1.439, 8.087e-6
-1.440, 8.110e-6
-1.441, 8.132e-6
-1.442, 8.154e-6
-1.443, 8.180e-6
-1.444, 8.207e-6
-1.445, 8.230e-6
-1.446, 8.254e-6
-1.447, 8.278e-6
-1.448, 8.304e-6
-1.449, 8.332e-6
-1.450, 8.354e-6
-1.451, 8.377e-6
-1.452, 8.402e-6
-1.453, 8.426e-6
-1.454, 8.455e-6
-1.455, 8.480e-6
-1.456, 8.505e-6
-1.457, 8.531e-6
-1.458, 8.557e-6
-1.459, 8.588e-6
-1.460, 8.615e-6
-1.461, 8.639e-6
-1.462, 8.666e-6
-1.463, 8.695e-6
-1.464, 8.725e-6
-1.465, 8.757e-6
-1.466, 8.783e-6
-1.467, 8.812e-6
-1.468, 8.843e-6
-1.469, 8.872e-6
-1.470, 8.902e-6
-1.471, 8.931e-6
-1.472, 8.963e-6
-1.473, 8.995e-6
-1.474, 9.028e-6
-1.475, 9.063e-6
-1.476, 9.093e-6
-1.477, 9.123e-6
-1.478, 9.157e-6
-1.479, 9.192e-6
-1.480, 9.228e-6
-1.481, 9.261e-6
-1.482, 9.293e-6
-1.483, 9.332e-6
-1.484, 9.368e-6
-1.485, 9.404e-6
-1.486, 9.436e-6
-1.487, 9.471e-6
-1.488, 9.509e-6
-1.489, 9.551e-6
-1.490, 9.587e-6
-1.491, 9.626e-6
-1.492, 9.663e-6
-1.493, 9.702e-6
-1.494, 9.746e-6
-1.495, 9.787e-6
-1.496, 9.827e-6
-1.497, 9.870e-6
-1.498, 9.911e-6
-1.499, 9.958e-6
-1.500, 9.999e-6
-1.501, 1.004e-5
-1.502, 1.009e-5
-1.503, 1.013e-5
-1.504, 1.018e-5
-1.505, 1.022e-5
-1.506, 1.027e-5
-1.507, 1.031e-5
-1.508, 1.036e-5
-1.509, 1.041e-5
-1.510, 1.046e-5
-1.511, 1.051e-5
-1.512, 1.056e-5
-1.513, 1.062e-5
-1.514, 1.067e-5
-1.515, 1.073e-5
-1.516, 1.078e-5
-1.517, 1.083e-5
-1.518, 1.089e-5
-1.519, 1.095e-5
-1.520, 1.101e-5
-1.521, 1.106e-5
-1.522, 1.112e-5
-1.523, 1.118e-5
-1.524, 1.125e-5
-1.525, 1.131e-5
-1.526, 1.137e-5
-1.527, 1.143e-5
-1.528, 1.150e-5
-1.529, 1.157e-5
-1.530, 1.163e-5
-1.531, 1.170e-5
-1.532, 1.177e-5
-1.533, 1.184e-5
-1.534, 1.192e-5
-1.535, 1.199e-5
-1.536, 1.205e-5
-1.537, 1.212e-5
-1.538, 1.219e-5
-1.539, 1.227e-5
-1.540, 1.235e-5
-1.541, 1.243e-5
-1.542, 1.251e-5
-1.543, 1.260e-5
-1.544, 1.268e-5
-1.545, 1.277e-5
-1.546, 1.285e-5
-1.547, 1.294e-5
-1.548, 1.304e-5
-1.549, 1.313e-5
-1.550, 1.322e-5
-1.551, 1.332e-5
-1.552, 1.341e-5
-1.553, 1.351e-5
-1.554, 1.362e-5
-1.555, 1.372e-5
-1.556, 1.382e-5
-1.557, 1.392e-5
-1.558, 1.403e-5
-1.559, 1.413e-5
-1.560, 1.424e-5
-1.561, 1.436e-5
-1.562, 1.447e-5
-1.563, 1.459e-5
-1.564, 1.471e-5
-1.565, 1.483e-5
-1.566, 1.495e-5
-1.567, 1.507e-5
-1.568, 1.520e-5
-1.569, 1.534e-5
-1.570, 1.546e-5
-1.571, 1.559e-5
-1.572, 1.573e-5
-1.573, 1.587e-5
-1.574, 1.602e-5
-1.575, 1.616e-5
-1.576, 1.630e-5
-1.577, 1.645e-5
-1.578, 1.660e-5
-1.579, 1.676e-5
-1.580, 1.691e-5
-1.581, 1.707e-5
-1.582, 1.723e-5
-1.583, 1.740e-5
-1.584, 1.757e-5
-1.585, 1.773e-5
-1.586, 1.790e-5
-1.587, 1.808e-5
-1.588, 1.826e-5
-1.589, 1.844e-5
-1.590, 1.862e-5
-1.591, 1.881e-5
-1.592, 1.900e-5
-1.593, 1.919e-5
-1.594, 1.939e-5
-1.595, 1.959e-5
-1.596, 1.979e-5
-1.597, 2.000e-5
-1.598, 2.021e-5
-1.599, 2.043e-5
-1.600, 2.065e-5
-1.601, 2.087e-5
-1.602, 2.109e-5
-1.603, 2.132e-5
-1.604, 2.156e-5
-1.605, 2.179e-5
-1.606, 2.203e-5
-1.607, 2.227e-5
-1.608, 2.252e-5
-1.609, 2.278e-5
-1.610, 2.303e-5
-1.611, 2.329e-5
-1.612, 2.356e-5
-1.613, 2.383e-5
-1.614, 2.412e-5
-1.615, 2.439e-5
-1.616, 2.467e-5
-1.617, 2.496e-5
-1.618, 2.526e-5
-1.619, 2.556e-5
-1.620, 2.586e-5
-1.621, 2.617e-5
-1.622, 2.648e-5
-1.623, 2.680e-5
-1.624, 2.713e-5
-1.625, 2.746e-5
-1.626, 2.778e-5
-1.627, 2.811e-5
-1.628, 2.846e-5
-1.629, 2.882e-5
-1.630, 2.918e-5
-1.631, 2.953e-5
-1.632, 2.990e-5
-1.633, 3.027e-5
-1.634, 3.066e-5
-1.635, 3.104e-5
-1.636, 3.142e-5
-1.637, 3.183e-5
-1.638, 3.224e-5
-1.639, 3.266e-5
-1.640, 3.308e-5
-1.641, 3.351e-5
-1.642, 3.394e-5
-1.643, 3.438e-5
-1.644, 3.483e-5
-1.645, 3.528e-5
-1.646, 3.573e-5
-1.647, 3.619e-5
-1.648, 3.667e-5
-1.649, 3.715e-5
-1.650, 3.763e-5
-1.651, 3.812e-5
-1.652, 3.862e-5
-1.653, 3.913e-5
-1.654, 3.966e-5
-1.655, 4.018e-5
-1.656, 4.071e-5
-1.657, 4.126e-5
-1.658, 4.180e-5
-1.659, 4.237e-5
-1.660, 4.293e-5
-1.661, 4.350e-5
-1.662, 4.407e-5
-1.663, 4.466e-5
-1.664, 4.527e-5
-1.665, 4.588e-5
-1.666, 4.648e-5
-1.667, 4.709e-5
-1.668, 4.772e-5
-1.669, 4.837e-5
-1.670, 4.901e-5
-1.671, 4.967e-5
-1.672, 5.034e-5
-1.673, 5.102e-5
-1.674, 5.172e-5
-1.675, 5.241e-5
-1.676, 5.312e-5
-1.677, 5.384e-5
-1.678, 5.457e-5
-1.679, 5.531e-5
-1.680, 5.607e-5
-1.681, 5.683e-5
-1.682, 5.759e-5
-1.683, 5.837e-5
-1.684, 5.917e-5
-1.685, 5.996e-5
-1.686, 6.078e-5
-1.687, 6.160e-5
-1.688, 6.243e-5
-1.689, 6.327e-5
-1.690, 6.413e-5
-1.691, 6.501e-5
-1.692, 6.588e-5
-1.693, 6.678e-5
-1.694, 6.769e-5
-1.695, 6.860e-5
-1.696, 6.952e-5
-1.697, 7.045e-5
-1.698, 7.140e-5
-1.699, 7.237e-5
-1.700, 7.335e-5
-1.701, 7.433e-5
-1.702, 7.532e-5
-1.703, 7.631e-5
-1.704, 7.733e-5
-1.705, 7.836e-5
-1.706, 7.942e-5
-1.707, 8.047e-5
-1.708, 8.154e-5
-1.709, 8.262e-5
-1.710, 8.372e-5
-1.711, 8.481e-5
-1.712, 8.593e-5
-1.713, 8.706e-5
-1.714, 8.822e-5
-1.715, 8.938e-5
-1.716, 9.054e-5
-1.717, 9.169e-5
-1.718, 9.288e-5
-1.719, 9.406e-5
-1.720, 9.527e-5
-1.721, 9.649e-5
-1.722, 9.772e-5
-1.723, 9.900e-5
-1.724, 1.003e-4
-1.725, 1.015e-4
-1.726, 1.028e-4
-1.727, 1.041e-4
-1.728, 1.054e-4
-1.729, 1.068e-4
-1.730, 1.081e-4
-1.731, 1.094e-4
-1.732, 1.108e-4
-1.733, 1.122e-4
-1.734, 1.136e-4
-1.735, 1.150e-4
-1.736, 1.164e-4
-1.737, 1.178e-4
-1.738, 1.193e-4
-1.739, 1.207e-4
-1.740, 1.222e-4
-1.741, 1.236e-4
-1.742, 1.251e-4
-1.743, 1.266e-4
-1.744, 1.281e-4
-1.745, 1.296e-4
-1.746, 1.311e-4
-1.747, 1.326e-4
-1.748, 1.342e-4
-1.749, 1.357e-4
-1.750, 1.372e-4
-1.751, 1.388e-4
-1.752, 1.404e-4
-1.753, 1.420e-4
-1.754, 1.436e-4
-1.755, 1.451e-4
-1.756, 1.467e-4
-1.757, 1.484e-4
-1.758, 1.500e-4
-1.759, 1.516e-4
-1.760, 1.533e-4
-1.761, 1.549e-4
-1.762, 1.566e-4
-1.763, 1.583e-4
-1.764, 1.599e-4
-1.765, 1.617e-4
-1.766, 1.633e-4
-1.767, 1.650e-4
-1.768, 1.668e-4
-1.769, 1.685e-4
-1.770, 1.703e-4
-1.771, 1.720e-4
-1.772, 1.738e-4
-1.773, 1.756e-4
-1.774, 1.775e-4
-1.775, 1.793e-4
-1.776, 1.812e-4
-1.777, 1.832e-4
-1.778, 1.852e-4
-1.779, 1.872e-4
-1.780, 1.893e-4
-1.781, 1.914e-4
-1.782, 1.936e-4
-1.783, 1.958e-4
-1.784, 1.981e-4
-1.785, 2.004e-4
-1.786, 2.028e-4
-1.787, 2.053e-4
-1.788, 2.078e-4
-1.789, 2.104e-4
-1.790, 2.130e-4
-1.791, 2.157e-4
-1.792, 2.184e-4
-1.793, 2.212e-4
-1.794, 2.240e-4
-1.795, 2.268e-4
-1.796, 2.297e-4
-1.797, 2.326e-4
-1.798, 2.356e-4
-1.799, 2.387e-4
-1.800, 2.417e-4
-1.801, 2.448e-4
-1.802, 2.480e-4
-1.803, 2.512e-4
-1.804, 2.545e-4
-1.805, 2.578e-4
-1.806, 2.611e-4
-1.807, 2.644e-4
-1.808, 2.678e-4
-1.809, 2.713e-4
-1.810, 2.748e-4
-1.811, 2.783e-4
-1.812, 2.819e-4
-1.813, 2.855e-4
-1.814, 2.891e-4
-1.815, 2.929e-4
-1.816, 2.966e-4
-1.817, 3.004e-4
-1.818, 3.043e-4
-1.819, 3.082e-4
-1.820, 3.121e-4
-1.821, 3.160e-4
-1.822, 3.201e-4
-1.823, 3.241e-4
-1.824, 3.282e-4
-1.825, 3.324e-4
-1.826, 3.366e-4
-1.827, 3.409e-4
-1.828, 3.451e-4
-1.829, 3.495e-4
-1.830, 3.539e-4
-1.831, 3.582e-4
-1.832, 3.627e-4
-1.833, 3.672e-4
-1.834, 3.717e-4
-1.835, 3.763e-4
-1.836, 3.809e-4
-1.837, 3.856e-4
-1.838, 3.903e-4
-1.839, 3.950e-4
-1.840, 3.998e-4
-1.841, 4.047e-4
-1.842, 4.096e-4
-1.843, 4.146e-4
-1.844, 4.195e-4
-1.845, 4.245e-4
-1.846, 4.296e-4
-1.847, 4.346e-4
-1.848, 4.397e-4
-1.849, 4.450e-4
-1.850, 4.502e-4
-1.851, 4.554e-4
-1.852, 4.607e-4
-1.853, 4.660e-4
-1.854, 4.713e-4
-1.855, 4.768e-4
-1.856, 4.821e-4
-1.857, 4.876e-4
-1.858, 4.931e-4
-1.859, 4.988e-4
-1.860, 5.044e-4
-1.861, 5.099e-4
-1.862, 5.154e-4
-1.863, 5.211e-4
-1.864, 5.269e-4
-1.865, 5.327e-4
-1.866, 5.385e-4
-1.867, 5.443e-4
-1.868, 5.502e-4
-1.869, 5.561e-4
-1.870, 5.620e-4
-1.871, 5.680e-4
-1.872, 5.739e-4
-1.873, 5.799e-4
-1.874, 5.861e-4
-1.875, 5.923e-4
-1.876, 5.984e-4
-1.877, 6.046e-4
-1.878, 6.109e-4
-1.879, 6.171e-4
-1.880, 6.233e-4
-1.881, 6.296e-4
-1.882, 6.361e-4
-1.883, 6.424e-4
-1.884, 6.489e-4
-1.885, 6.554e-4
-1.886, 6.618e-4
-1.887, 6.684e-4
-1.888, 6.750e-4
-1.889, 6.817e-4
-1.890, 6.883e-4
-1.891, 6.950e-4
-1.892, 7.017e-4
-1.893, 7.084e-4
-1.894, 7.151e-4
-1.895, 7.219e-4
-1.896, 7.287e-4
-1.897, 7.356e-4
-1.898, 7.424e-4
-1.899, 7.493e-4
-1.900, 7.563e-4
-1.901, 7.632e-4
-1.902, 7.702e-4
-1.903, 7.773e-4
-1.904, 7.844e-4
-1.905, 7.915e-4
-1.906, 7.986e-4
-1.907, 8.058e-4
-1.908, 8.130e-4
-1.909, 8.202e-4
-1.910, 8.275e-4
-1.911, 8.346e-4
-1.912, 8.418e-4
-1.913, 8.492e-4
-1.914, 8.565e-4
-1.915, 8.639e-4
-1.916, 8.713e-4
-1.917, 8.788e-4
-1.918, 8.862e-4
-1.919, 8.938e-4
-1.920, 9.013e-4
-1.921, 9.088e-4
-1.922, 9.165e-4
-1.923, 9.241e-4
-1.924, 9.316e-4
-1.925, 9.393e-4
-1.926, 9.470e-4
-1.927, 9.547e-4
-1.928, 9.624e-4
-1.929, 9.702e-4
-1.930, 9.779e-4
-1.931, 9.857e-4
-1.932, 9.936e-4
-1.933, 1.001e-3
-1.934, 1.009e-3
-1.935, 1.011e-3
-1.936, 1.011e-3
-1.937, 1.011e-3
-1.938, 1.011e-3
-1.939, 1.011e-3
-1.940, 1.011e-3
-1.941, 1.011e-3
-1.942, 1.011e-3
-1.943, 1.011e-3
-1.944, 1.011e-3
-1.945, 1.011e-3
-1.946, 1.011e-3
-1.947, 1.011e-3
-1.948, 1.011e-3
-1.949, 1.011e-3
-1.950, 1.011e-3
-1.951, 1.011e-3
-1.952, 1.011e-3
-1.953, 1.011e-3
-1.954, 1.011e-3
-1.955, 1.011e-3
-1.956, 1.011e-3
-1.957, 1.011e-3
-1.958, 1.011e-3
-1.959, 1.011e-3
-1.960, 1.011e-3
-1.961, 1.011e-3
-1.962, 1.011e-3
-1.963, 1.011e-3
-1.964, 1.011e-3
-1.965, 1.011e-3
-1.966, 1.011e-3
-1.967, 1.011e-3
-1.968, 1.011e-3
-1.969, 1.011e-3
-1.970, 1.011e-3
-1.971, 1.011e-3
-1.972, 1.011e-3
-1.973, 1.011e-3
-1.974, 1.011e-3
-1.975, 1.011e-3
-1.976, 1.011e-3
-1.977, 1.011e-3
-1.978, 1.011e-3
-1.979, 1.011e-3
-1.980, 1.011e-3
-1.981, 1.011e-3
-1.982, 1.011e-3
-1.983, 1.011e-3
-1.984, 1.011e-3
-1.985, 1.011e-3
-1.986, 1.011e-3
-1.987, 1.011e-3
-1.988, 1.011e-3
-1.989, 1.011e-3
-1.990, 1.011e-3
-1.991, 1.011e-3
-1.992, 1.011e-3
-1.993, 1.011e-3
-1.994, 1.011e-3
-1.995, 1.011e-3
-1.996, 1.011e-3
-1.997, 1.011e-3
-1.998, 1.011e-3
-1.999, 1.011e-3
-2.000, 1.011e-3
-2.001, 1.011e-3
-2.002, 1.011e-3
-2.003, 1.011e-3
-2.004, 1.011e-3
-2.005, 1.011e-3
-2.006, 1.011e-3
-2.007, 1.011e-3
-2.008, 1.011e-3
-2.009, 1.011e-3
-2.010, 1.011e-3
-2.011, 1.011e-3
-2.012, 1.011e-3
-2.013, 1.011e-3
-2.014, 1.011e-3
-2.015, 1.011e-3
-2.016, 1.011e-3
-2.017, 1.011e-3
-2.018, 1.011e-3
-2.019, 1.011e-3
-2.020, 1.011e-3
-2.021, 1.011e-3
-2.022, 1.011e-3
-2.023, 1.011e-3
-2.024, 1.011e-3
-2.025, 1.011e-3
-2.026, 1.011e-3
-2.027, 1.011e-3
-2.028, 1.011e-3
-2.029, 1.011e-3
-2.030, 1.011e-3
-2.031, 1.011e-3
-2.032, 1.011e-3
-2.033, 1.011e-3
-2.034, 1.011e-3
-2.035, 1.011e-3
-2.036, 1.011e-3
-2.037, 1.011e-3
-2.038, 1.011e-3
-2.039, 1.011e-3
-2.040, 1.011e-3
-2.041, 1.011e-3
-2.042, 1.011e-3
-2.043, 1.011e-3
-2.044, 1.011e-3
-2.045, 1.011e-3
-2.046, 1.011e-3
-2.047, 1.011e-3
-2.048, 1.011e-3
-2.049, 1.011e-3
-2.050, 1.011e-3
-2.051, 1.011e-3
-2.052, 1.011e-3
-2.053, 1.011e-3
-2.054, 1.011e-3
-2.055, 1.011e-3
-2.056, 1.011e-3
-2.057, 1.011e-3
-2.058, 1.011e-3
-2.059, 1.011e-3
-2.060, 1.011e-3
-2.061, 1.011e-3
-2.062, 1.011e-3
-2.063, 1.011e-3
-2.064, 1.011e-3
-2.065, 1.011e-3
-2.066, 1.011e-3
-2.067, 1.011e-3
-2.068, 1.011e-3
-2.069, 1.011e-3
-2.070, 1.011e-3
-2.071, 1.011e-3
-2.072, 1.011e-3
-2.073, 1.011e-3
-2.074, 1.011e-3
-2.075, 1.011e-3
-2.076, 1.011e-3
-2.077, 1.011e-3
-2.078, 1.011e-3
-2.079, 1.011e-3
-2.080, 1.011e-3
-2.081, 1.011e-3
-2.082, 1.011e-3
-2.083, 1.011e-3
-2.084, 1.011e-3
-2.085, 1.011e-3
-2.086, 1.011e-3
-2.087, 1.011e-3
-2.088, 1.011e-3
-2.089, 1.011e-3
-2.090, 1.011e-3
-2.091, 1.011e-3
-2.092, 1.011e-3
-2.093, 1.011e-3
-2.094, 1.011e-3
-2.095, 1.011e-3
-2.096, 1.011e-3
-2.097, 1.011e-3
-2.098, 1.011e-3
-2.099, 1.011e-3
-2.100, 1.011e-3
-2.101, 1.011e-3
-2.102, 1.011e-3
-2.103, 1.011e-3
-2.104, 1.011e-3
-2.105, 1.011e-3
-2.106, 1.011e-3
-2.107, 1.011e-3
-2.108, 1.011e-3
-2.109, 1.011e-3
-2.110, 1.011e-3
-2.111, 1.011e-3
-2.112, 1.011e-3
-2.113, 1.011e-3
-2.114, 1.011e-3
-2.115, 1.011e-3
-2.116, 1.011e-3
-2.117, 1.011e-3
-2.118, 1.011e-3
-2.119, 1.011e-3
-2.120, 1.011e-3
-2.121, 1.011e-3
-2.122, 1.011e-3
-2.123, 1.011e-3
-2.124, 1.011e-3
-2.125, 1.011e-3
-2.126, 1.011e-3
-2.127, 1.011e-3
-2.128, 1.011e-3
-2.129, 1.011e-3
-2.130, 1.011e-3
-2.131, 1.011e-3
-2.132, 1.011e-3
-2.133, 1.011e-3
-2.134, 1.011e-3
-2.135, 1.011e-3
-2.136, 1.011e-3
-2.137, 1.011e-3
-2.138, 1.011e-3
-2.139, 1.011e-3
-2.140, 1.011e-3
-2.141, 1.011e-3
-2.142, 1.011e-3
-2.143, 1.011e-3
-2.144, 1.011e-3
-2.145, 1.011e-3
-2.146, 1.011e-3
-2.147, 1.011e-3
-2.148, 1.011e-3
-2.149, 1.011e-3
-2.150, 1.011e-3
-2.151, 1.011e-3
-2.152, 1.011e-3
-2.153, 1.011e-3
-2.154, 1.011e-3
-2.155, 1.011e-3
-2.156, 1.011e-3
-2.157, 1.011e-3
-2.158, 1.011e-3
-2.159, 1.011e-3
-2.160, 1.011e-3
-2.161, 1.011e-3
-2.162, 1.011e-3
-2.163, 1.011e-3
-2.164, 1.011e-3
-2.165, 1.011e-3
-2.166, 1.011e-3
-2.167, 1.011e-3
-2.168, 1.011e-3
-2.169, 1.011e-3
-2.170, 1.011e-3
-2.171, 1.011e-3
-2.172, 1.011e-3
-2.173, 1.011e-3
-2.174, 1.011e-3
-2.175, 1.011e-3
-2.176, 1.011e-3
-2.177, 1.011e-3
-2.178, 1.011e-3
-2.179, 1.011e-3
-2.180, 1.011e-3
-2.181, 1.011e-3
-2.182, 1.011e-3
-2.183, 1.011e-3
-2.184, 1.011e-3
-2.185, 1.011e-3
-2.186, 1.011e-3
-2.187, 1.011e-3
-2.188, 1.011e-3
-2.189, 1.011e-3
-2.190, 1.011e-3
-2.191, 1.011e-3
-2.192, 1.011e-3
-2.193, 1.011e-3
-2.194, 1.011e-3
-2.195, 1.011e-3
-2.196, 1.011e-3
-2.197, 1.011e-3
-2.198, 1.011e-3
-2.199, 1.011e-3
-2.200, 1.011e-3
-2.201, 1.011e-3
-2.202, 1.011e-3
-2.203, 1.011e-3
-2.204, 1.011e-3
-2.205, 1.011e-3
-2.206, 1.011e-3
-2.207, 1.011e-3
-2.208, 1.011e-3
-2.209, 1.011e-3
-2.210, 1.011e-3
-2.211, 1.011e-3
-2.212, 1.011e-3
-2.213, 1.011e-3
-2.214, 1.011e-3
-2.215, 1.011e-3
-2.216, 1.011e-3
-2.217, 1.011e-3
-2.218, 1.011e-3
-2.219, 1.011e-3
-2.220, 1.011e-3
-2.221, 1.011e-3
-2.222, 1.011e-3
-2.223, 1.011e-3
-2.224, 1.011e-3
-2.225, 1.011e-3
-2.226, 1.011e-3
-2.227, 1.011e-3
-2.228, 1.011e-3
-2.229, 1.011e-3
-2.230, 1.011e-3
-2.231, 1.011e-3
-2.232, 1.011e-3
-2.233, 1.011e-3
-2.234, 1.011e-3
-2.235, 1.011e-3
-2.236, 1.011e-3
-2.237, 1.011e-3
-2.238, 1.011e-3
-2.239, 1.011e-3
-2.240, 1.011e-3
-2.241, 1.011e-3
-2.242, 1.011e-3
-2.243, 1.011e-3
-2.244, 1.011e-3
-2.245, 1.011e-3
-2.246, 1.011e-3
-2.247, 1.011e-3
-2.248, 1.011e-3
-2.249, 1.011e-3
-2.250, 1.011e-3
-2.251, 1.011e-3
-2.252, 1.011e-3
-2.253, 1.011e-3
-2.254, 1.011e-3
-2.255, 1.011e-3
-2.256, 1.011e-3
-2.257, 1.011e-3
-2.258, 1.011e-3
-2.259, 1.011e-3
-2.260, 1.011e-3
-2.261, 1.011e-3
-2.262, 1.011e-3
-2.263, 1.011e-3
-2.264, 1.011e-3
-2.265, 1.011e-3
-2.266, 1.011e-3
-2.267, 1.011e-3
-2.268, 1.011e-3
-2.269, 1.011e-3
-2.270, 1.011e-3
-2.271, 1.011e-3
-2.272, 1.011e-3
-2.273, 1.011e-3
-2.274, 1.011e-3
-2.275, 1.011e-3
-2.276, 1.011e-3
-2.277, 1.011e-3
-2.278, 1.011e-3
-2.279, 1.011e-3
-2.280, 1.011e-3
-2.281, 1.011e-3
-2.282, 1.011e-3
-2.283, 1.011e-3
-2.284, 1.011e-3
-2.285, 1.011e-3
-2.286, 1.011e-3
-2.287, 1.011e-3
-2.288, 1.011e-3
-2.289, 1.011e-3
-2.290, 1.011e-3
-2.291, 1.011e-3
-2.292, 1.011e-3
-2.293, 1.011e-3
-2.294, 1.011e-3
-2.295, 1.011e-3
-2.296, 1.011e-3
-2.297, 1.011e-3
-2.298, 1.011e-3
-2.299, 1.011e-3
