Jan. 12, 2025   20:24:02
Cyclic Voltammetry
File: c:/users/guazh/data/banditlqround7_x0exp772_r5/2025-01-10-exp826\exp826-2025-01-12t20_14_21-arkoh\exp826_cv_sr_100mvs_efin_-1500mv.bin
Data Source:  Experiment
Instrument Model:  CHI760E
Header: CV ran at 100 mVs
Note: 

Init E (V) = -1
High E (V) = -1
Low E (V) = -1.5
Final E (V) = -1
Init P/N = N
Scan Rate (V/s) = 0.1
Segment = 3
Sample Interval (V) = 0.001
Quiet Time (sec) = 2
Sensitivity (A/V) = 0.01
Comp R (ohm) = 1.3

Results:

Channel 1:
Segment 1:

Segment 2:

Segment 3:

Potential/V, Current/A

-1.000, -3.212e-4
-1.001, -2.656e-4
-1.002, -2.065e-4
-1.003, -1.689e-4
-1.004, -1.241e-4
-1.005, -8.635e-5
-1.006, -5.737e-5
-1.007, -1.718e-5
-1.008, 4.526e-6
-1.009, 3.718e-5
-1.010, 6.406e-5
-1.011, 8.418e-5
-1.012, 1.161e-4
-1.013, 1.309e-4
-1.014, 1.573e-4
-1.015, 1.785e-4
-1.016, 1.929e-4
-1.017, 2.195e-4
-1.018, 2.306e-4
-1.019, 2.527e-4
-1.020, 2.711e-4
-1.021, 2.823e-4
-1.022, 3.062e-4
-1.023, 3.140e-4
-1.024, 3.341e-4
-1.025, 3.492e-4
-1.026, 3.576e-4
-1.027, 3.787e-4
-1.028, 3.861e-4
-1.029, 4.038e-4
-1.030, 4.156e-4
-1.031, 4.229e-4
-1.032, 4.424e-4
-1.033, 4.462e-4
-1.034, 4.627e-4
-1.035, 4.743e-4
-1.036, 4.807e-4
-1.037, 4.995e-4
-1.038, 5.025e-4
-1.039, 5.174e-4
-1.040, 5.267e-4
-1.041, 5.325e-4
-1.042, 5.501e-4
-1.043, 5.523e-4
-1.044, 5.667e-4
-1.045, 5.757e-4
-1.046, 5.803e-4
-1.047, 5.968e-4
-1.048, 5.978e-4
-1.049, 6.117e-4
-1.050, 6.208e-4
-1.051, 6.241e-4
-1.052, 6.400e-4
-1.053, 6.398e-4
-1.054, 6.523e-4
-1.055, 6.604e-4
-1.056, 6.629e-4
-1.057, 6.783e-4
-1.058, 6.778e-4
-1.059, 6.903e-4
-1.060, 6.984e-4
-1.061, 7.018e-4
-1.062, 7.169e-4
-1.063, 7.170e-4
-1.064, 7.296e-4
-1.065, 7.363e-4
-1.066, 7.393e-4
-1.067, 7.546e-4
-1.068, 7.529e-4
-1.069, 7.651e-4
-1.070, 7.728e-4
-1.071, 7.757e-4
-1.072, 7.899e-4
-1.073, 7.889e-4
-1.074, 8.016e-4
-1.075, 8.095e-4
-1.076, 8.110e-4
-1.077, 8.251e-4
-1.078, 8.240e-4
-1.079, 8.355e-4
-1.080, 8.417e-4
-1.081, 8.447e-4
-1.082, 8.570e-4
-1.083, 8.570e-4
-1.084, 8.674e-4
-1.085, 8.733e-4
-1.086, 8.776e-4
-1.087, 8.906e-4
-1.088, 8.902e-4
-1.089, 9.034e-4
-1.090, 9.094e-4
-1.091, 9.120e-4
-1.092, 9.248e-4
-1.093, 9.239e-4
-1.094, 9.354e-4
-1.095, 9.405e-4
-1.096, 9.431e-4
-1.097, 9.559e-4
-1.098, 9.522e-4
-1.099, 9.647e-4
-1.100, 9.702e-4
-1.101, 9.724e-4
-1.102, 9.869e-4
-1.103, 9.854e-4
-1.104, 9.974e-4
-1.105, 1.004e-3
-1.106, 1.005e-3
-1.107, 1.017e-3
-1.108, 1.015e-3
-1.109, 1.026e-3
-1.110, 1.032e-3
-1.111, 1.034e-3
-1.112, 1.047e-3
-1.113, 1.044e-3
-1.114, 1.055e-3
-1.115, 1.060e-3
-1.116, 1.062e-3
-1.117, 1.075e-3
-1.118, 1.074e-3
-1.119, 1.085e-3
-1.120, 1.090e-3
-1.121, 1.091e-3
-1.122, 1.102e-3
-1.123, 1.100e-3
-1.124, 1.110e-3
-1.125, 1.114e-3
-1.126, 1.116e-3
-1.127, 1.128e-3
-1.128, 1.124e-3
-1.129, 1.136e-3
-1.130, 1.140e-3
-1.131, 1.144e-3
-1.132, 1.159e-3
-1.133, 1.153e-3
-1.134, 1.163e-3
-1.135, 1.167e-3
-1.136, 1.169e-3
-1.137, 1.181e-3
-1.138, 1.180e-3
-1.139, 1.190e-3
-1.140, 1.194e-3
-1.141, 1.194e-3
-1.142, 1.207e-3
-1.143, 1.203e-3
-1.144, 1.215e-3
-1.145, 1.219e-3
-1.146, 1.221e-3
-1.147, 1.232e-3
-1.148, 1.230e-3
-1.149, 1.241e-3
-1.150, 1.245e-3
-1.151, 1.248e-3
-1.152, 1.260e-3
-1.153, 1.256e-3
-1.154, 1.267e-3
-1.155, 1.270e-3
-1.156, 1.270e-3
-1.157, 1.281e-3
-1.158, 1.277e-3
-1.159, 1.285e-3
-1.160, 1.290e-3
-1.161, 1.293e-3
-1.162, 1.305e-3
-1.163, 1.305e-3
-1.164, 1.316e-3
-1.165, 1.319e-3
-1.166, 1.322e-3
-1.167, 1.333e-3
-1.168, 1.328e-3
-1.169, 1.339e-3
-1.170, 1.341e-3
-1.171, 1.345e-3
-1.172, 1.358e-3
-1.173, 1.355e-3
-1.174, 1.364e-3
-1.175, 1.369e-3
-1.176, 1.371e-3
-1.177, 1.382e-3
-1.178, 1.381e-3
-1.179, 1.390e-3
-1.180, 1.393e-3
-1.181, 1.396e-3
-1.182, 1.406e-3
-1.183, 1.402e-3
-1.184, 1.413e-3
-1.185, 1.416e-3
-1.186, 1.421e-3
-1.187, 1.432e-3
-1.188, 1.428e-3
-1.189, 1.436e-3
-1.190, 1.439e-3
-1.191, 1.441e-3
-1.192, 1.453e-3
-1.193, 1.451e-3
-1.194, 1.463e-3
-1.195, 1.467e-3
-1.196, 1.469e-3
-1.197, 1.480e-3
-1.198, 1.478e-3
-1.199, 1.488e-3
-1.200, 1.490e-3
-1.201, 1.493e-3
-1.202, 1.504e-3
-1.203, 1.499e-3
-1.204, 1.509e-3
-1.205, 1.508e-3
-1.206, 1.511e-3
-1.207, 1.523e-3
-1.208, 1.524e-3
-1.209, 1.535e-3
-1.210, 1.538e-3
-1.211, 1.540e-3
-1.212, 1.550e-3
-1.213, 1.548e-3
-1.214, 1.555e-3
-1.215, 1.558e-3
-1.216, 1.557e-3
-1.217, 1.569e-3
-1.218, 1.566e-3
-1.219, 1.576e-3
-1.220, 1.574e-3
-1.221, 1.576e-3
-1.222, 1.590e-3
-1.223, 1.584e-3
-1.224, 1.597e-3
-1.225, 1.595e-3
-1.226, 1.595e-3
-1.227, 1.606e-3
-1.228, 1.599e-3
-1.229, 1.611e-3
-1.230, 1.613e-3
-1.231, 1.613e-3
-1.232, 1.622e-3
-1.233, 1.618e-3
-1.234, 1.629e-3
-1.235, 1.629e-3
-1.236, 1.628e-3
-1.237, 1.637e-3
-1.238, 1.633e-3
-1.239, 1.640e-3
-1.240, 1.639e-3
-1.241, 1.638e-3
-1.242, 1.639e-3
-1.243, 1.639e-3
-1.244, 1.643e-3
-1.245, 1.647e-3
-1.246, 1.639e-3
-1.247, 1.650e-3
-1.248, 1.643e-3
-1.249, 1.652e-3
-1.250, 1.649e-3
-1.251, 1.650e-3
-1.252, 1.660e-3
-1.253, 1.651e-3
-1.254, 1.657e-3
-1.255, 1.656e-3
-1.256, 1.654e-3
-1.257, 1.659e-3
-1.258, 1.652e-3
-1.259, 1.659e-3
-1.260, 1.659e-3
-1.261, 1.654e-3
-1.262, 1.664e-3
-1.263, 1.656e-3
-1.264, 1.663e-3
-1.265, 1.661e-3
-1.266, 1.656e-3
-1.267, 1.660e-3
-1.268, 1.649e-3
-1.269, 1.652e-3
-1.270, 1.647e-3
-1.271, 1.641e-3
-1.272, 1.647e-3
-1.273, 1.636e-3
-1.274, 1.644e-3
-1.275, 1.642e-3
-1.276, 1.637e-3
-1.277, 1.642e-3
-1.278, 1.632e-3
-1.279, 1.634e-3
-1.280, 1.631e-3
-1.281, 1.628e-3
-1.282, 1.630e-3
-1.283, 1.621e-3
-1.284, 1.626e-3
-1.285, 1.622e-3
-1.286, 1.615e-3
-1.287, 1.617e-3
-1.288, 1.609e-3
-1.289, 1.615e-3
-1.290, 1.606e-3
-1.291, 1.604e-3
-1.292, 1.605e-3
-1.293, 1.595e-3
-1.294, 1.603e-3
-1.295, 1.596e-3
-1.296, 1.592e-3
-1.297, 1.597e-3
-1.298, 1.584e-3
-1.299, 1.589e-3
-1.300, 1.587e-3
-1.301, 1.583e-3
-1.302, 1.590e-3
-1.303, 1.581e-3
-1.304, 1.578e-3
-1.305, 1.573e-3
-1.306, 1.570e-3
-1.307, 1.576e-3
-1.308, 1.573e-3
-1.309, 1.575e-3
-1.310, 1.572e-3
-1.311, 1.568e-3
-1.312, 1.570e-3
-1.313, 1.561e-3
-1.314, 1.568e-3
-1.315, 1.562e-3
-1.316, 1.562e-3
-1.317, 1.567e-3
-1.318, 1.561e-3
-1.319, 1.570e-3
-1.320, 1.570e-3
-1.321, 1.567e-3
-1.322, 1.573e-3
-1.323, 1.562e-3
-1.324, 1.568e-3
-1.325, 1.567e-3
-1.326, 1.569e-3
-1.327, 1.574e-3
-1.328, 1.569e-3
-1.329, 1.577e-3
-1.330, 1.572e-3
-1.331, 1.574e-3
-1.332, 1.581e-3
-1.333, 1.573e-3
-1.334, 1.583e-3
-1.335, 1.582e-3
-1.336, 1.581e-3
-1.337, 1.590e-3
-1.338, 1.587e-3
-1.339, 1.602e-3
-1.340, 1.609e-3
-1.341, 1.620e-3
-1.342, 1.628e-3
-1.343, 1.621e-3
-1.344, 1.635e-3
-1.345, 1.633e-3
-1.346, 1.640e-3
-1.347, 1.651e-3
-1.348, 1.650e-3
-1.349, 1.662e-3
-1.350, 1.664e-3
-1.351, 1.667e-3
-1.352, 1.682e-3
-1.353, 1.680e-3
-1.354, 1.696e-3
-1.355, 1.703e-3
-1.356, 1.709e-3
-1.357, 1.731e-3
-1.358, 1.729e-3
-1.359, 1.741e-3
-1.360, 1.749e-3
-1.361, 1.753e-3
-1.362, 1.770e-3
-1.363, 1.775e-3
-1.364, 1.793e-3
-1.365, 1.800e-3
-1.366, 1.808e-3
-1.367, 1.825e-3
-1.368, 1.833e-3
-1.369, 1.854e-3
-1.370, 1.862e-3
-1.371, 1.874e-3
-1.372, 1.892e-3
-1.373, 1.896e-3
-1.374, 1.918e-3
-1.375, 1.932e-3
-1.376, 1.941e-3
-1.377, 1.966e-3
-1.378, 1.970e-3
-1.379, 1.989e-3
-1.380, 2.001e-3
-1.381, 2.010e-3
-1.382, 2.034e-3
-1.383, 2.041e-3
-1.384, 2.069e-3
-1.385, 2.084e-3
-1.386, 2.099e-3
-1.387, 2.122e-3
-1.388, 2.134e-3
-1.389, 2.156e-3
-1.390, 2.172e-3
-1.391, 2.187e-3
-1.392, 2.212e-3
-1.393, 2.222e-3
-1.394, 2.246e-3
-1.395, 2.262e-3
-1.396, 2.282e-3
-1.397, 2.310e-3
-1.398, 2.324e-3
-1.399, 2.352e-3
-1.400, 2.365e-3
-1.401, 2.382e-3
-1.402, 2.407e-3
-1.403, 2.415e-3
-1.404, 2.445e-3
-1.405, 2.460e-3
-1.406, 2.476e-3
-1.407, 2.506e-3
-1.408, 2.524e-3
-1.409, 2.561e-3
-1.410, 2.594e-3
-1.411, 2.610e-3
-1.412, 2.639e-3
-1.413, 2.654e-3
-1.414, 2.683e-3
-1.415, 2.702e-3
-1.416, 2.723e-3
-1.417, 2.748e-3
-1.418, 2.772e-3
-1.419, 2.799e-3
-1.420, 2.818e-3
-1.421, 2.844e-3
-1.422, 2.871e-3
-1.423, 2.895e-3
-1.424, 2.930e-3
-1.425, 2.951e-3
-1.426, 2.995e-3
-1.427, 3.008e-3
-1.428, 3.037e-3
-1.429, 3.069e-3
-1.430, 3.094e-3
-1.431, 3.114e-3
-1.432, 3.150e-3
-1.433, 3.168e-3
-1.434, 3.206e-3
-1.435, 3.229e-3
-1.436, 3.260e-3
-1.437, 3.298e-3
-1.438, 3.323e-3
-1.439, 3.362e-3
-1.440, 3.386e-3
-1.441, 3.416e-3
-1.442, 3.449e-3
-1.443, 3.470e-3
-1.444, 3.507e-3
-1.445, 3.534e-3
-1.446, 3.563e-3
-1.447, 3.598e-3
-1.448, 3.625e-3
-1.449, 3.658e-3
-1.450, 3.687e-3
-1.451, 3.723e-3
-1.452, 3.762e-3
-1.453, 3.787e-3
-1.454, 3.829e-3
-1.455, 3.862e-3
-1.456, 3.889e-3
-1.457, 3.925e-3
-1.458, 3.943e-3
-1.459, 3.989e-3
-1.460, 4.021e-3
-1.461, 4.055e-3
-1.462, 4.097e-3
-1.463, 4.121e-3
-1.464, 4.159e-3
-1.465, 4.191e-3
-1.466, 4.234e-3
-1.467, 4.288e-3
-1.468, 4.314e-3
-1.469, 4.353e-3
-1.470, 4.382e-3
-1.471, 4.429e-3
-1.472, 4.483e-3
-1.473, 4.512e-3
-1.474, 4.541e-3
-1.475, 4.564e-3
-1.476, 4.594e-3
-1.477, 4.638e-3
-1.478, 4.667e-3
-1.479, 4.710e-3
-1.480, 4.749e-3
-1.481, 4.787e-3
-1.482, 4.828e-3
-1.483, 4.862e-3
-1.484, 4.902e-3
-1.485, 4.931e-3
-1.486, 4.972e-3
-1.487, 5.023e-3
-1.488, 5.061e-3
-1.489, 5.102e-3
-1.490, 5.122e-3
-1.491, 5.169e-3
-1.492, 5.222e-3
-1.493, 5.249e-3
-1.494, 5.292e-3
-1.495, 5.326e-3
-1.496, 5.351e-3
-1.497, 5.390e-3
-1.498, 5.421e-3
-1.499, 5.468e-3
-1.500, 5.420e-3
-1.499, 5.356e-3
-1.498, 5.299e-3
-1.497, 5.249e-3
-1.496, 5.181e-3
-1.495, 5.120e-3
-1.494, 5.067e-3
-1.493, 5.018e-3
-1.492, 4.977e-3
-1.491, 4.944e-3
-1.490, 4.881e-3
-1.489, 4.823e-3
-1.488, 4.787e-3
-1.487, 4.736e-3
-1.486, 4.705e-3
-1.485, 4.648e-3
-1.484, 4.619e-3
-1.483, 4.587e-3
-1.482, 4.497e-3
-1.481, 4.465e-3
-1.480, 4.420e-3
-1.479, 4.369e-3
-1.478, 4.334e-3
-1.477, 4.289e-3
-1.476, 4.247e-3
-1.475, 4.174e-3
-1.474, 4.148e-3
-1.473, 4.095e-3
-1.472, 4.053e-3
-1.471, 4.028e-3
-1.470, 3.999e-3
-1.469, 3.940e-3
-1.468, 3.897e-3
-1.467, 3.846e-3
-1.466, 3.817e-3
-1.465, 3.770e-3
-1.464, 3.737e-3
-1.463, 3.712e-3
-1.462, 3.655e-3
-1.461, 3.611e-3
-1.460, 3.570e-3
-1.459, 3.527e-3
-1.458, 3.487e-3
-1.457, 3.442e-3
-1.456, 3.419e-3
-1.455, 3.383e-3
-1.454, 3.348e-3
-1.453, 3.300e-3
-1.452, 3.250e-3
-1.451, 3.224e-3
-1.450, 3.180e-3
-1.449, 3.137e-3
-1.448, 3.114e-3
-1.447, 3.080e-3
-1.446, 3.053e-3
-1.445, 3.003e-3
-1.444, 2.967e-3
-1.443, 2.939e-3
-1.442, 2.889e-3
-1.441, 2.859e-3
-1.440, 2.826e-3
-1.439, 2.806e-3
-1.438, 2.771e-3
-1.437, 2.724e-3
-1.436, 2.695e-3
-1.435, 2.655e-3
-1.434, 2.622e-3
-1.433, 2.593e-3
-1.432, 2.556e-3
-1.431, 2.533e-3
-1.430, 2.490e-3
-1.429, 2.459e-3
-1.428, 2.435e-3
-1.427, 2.393e-3
-1.426, 2.370e-3
-1.425, 2.330e-3
-1.424, 2.293e-3
-1.423, 2.266e-3
-1.422, 2.239e-3
-1.421, 2.206e-3
-1.420, 2.181e-3
-1.419, 2.148e-3
-1.418, 2.119e-3
-1.417, 2.080e-3
-1.416, 2.061e-3
-1.415, 2.030e-3
-1.414, 1.999e-3
-1.413, 1.975e-3
-1.412, 1.940e-3
-1.411, 1.920e-3
-1.410, 1.902e-3
-1.409, 1.860e-3
-1.408, 1.833e-3
-1.407, 1.806e-3
-1.406, 1.783e-3
-1.405, 1.747e-3
-1.404, 1.726e-3
-1.403, 1.698e-3
-1.402, 1.675e-3
-1.401, 1.658e-3
-1.400, 1.628e-3
-1.399, 1.595e-3
-1.398, 1.570e-3
-1.397, 1.543e-3
-1.396, 1.525e-3
-1.395, 1.495e-3
-1.394, 1.471e-3
-1.393, 1.450e-3
-1.392, 1.415e-3
-1.391, 1.397e-3
-1.390, 1.364e-3
-1.389, 1.346e-3
-1.388, 1.334e-3
-1.387, 1.301e-3
-1.386, 1.283e-3
-1.385, 1.254e-3
-1.384, 1.230e-3
-1.383, 1.221e-3
-1.382, 1.195e-3
-1.381, 1.177e-3
-1.380, 1.149e-3
-1.379, 1.124e-3
-1.378, 1.106e-3
-1.377, 1.078e-3
-1.376, 1.068e-3
-1.375, 1.044e-3
-1.374, 1.031e-3
-1.373, 1.002e-3
-1.372, 9.765e-4
-1.371, 9.646e-4
-1.370, 9.380e-4
-1.369, 9.241e-4
-1.368, 9.065e-4
-1.367, 8.817e-4
-1.366, 8.710e-4
-1.365, 8.477e-4
-1.364, 8.306e-4
-1.363, 8.157e-4
-1.362, 7.905e-4
-1.361, 7.819e-4
-1.360, 7.616e-4
-1.359, 7.410e-4
-1.358, 7.248e-4
-1.357, 7.024e-4
-1.356, 6.928e-4
-1.355, 6.708e-4
-1.354, 6.560e-4
-1.353, 6.463e-4
-1.352, 6.230e-4
-1.351, 6.145e-4
-1.350, 5.924e-4
-1.349, 5.783e-4
-1.348, 5.649e-4
-1.347, 5.431e-4
-1.346, 5.347e-4
-1.345, 5.131e-4
-1.344, 5.019e-4
-1.343, 4.913e-4
-1.342, 4.702e-4
-1.341, 4.622e-4
-1.340, 4.422e-4
-1.339, 4.308e-4
-1.338, 4.200e-4
-1.337, 4.006e-4
-1.336, 3.955e-4
-1.335, 3.766e-4
-1.334, 3.659e-4
-1.333, 3.553e-4
-1.332, 3.363e-4
-1.331, 3.313e-4
-1.330, 3.126e-4
-1.329, 3.038e-4
-1.328, 2.951e-4
-1.327, 2.754e-4
-1.326, 2.705e-4
-1.325, 2.539e-4
-1.324, 2.456e-4
-1.323, 2.369e-4
-1.322, 2.199e-4
-1.321, 2.156e-4
-1.320, 1.988e-4
-1.319, 1.910e-4
-1.318, 1.825e-4
-1.317, 1.662e-4
-1.316, 1.631e-4
-1.315, 1.469e-4
-1.314, 1.395e-4
-1.313, 1.313e-4
-1.312, 1.161e-4
-1.311, 1.144e-4
-1.310, 9.862e-5
-1.309, 9.207e-5
-1.308, 8.438e-5
-1.307, 6.965e-5
-1.306, 6.783e-5
-1.305, 5.259e-5
-1.304, 4.675e-5
-1.303, 4.018e-5
-1.302, 2.529e-5
-1.301, 2.475e-5
-1.300, 9.578e-6
-1.299, 3.974e-6
-1.298, -1.758e-6
-1.297, -1.588e-5
-1.296, -1.583e-5
-1.295, -3.008e-5
-1.294, -3.541e-5
-1.293, -4.093e-5
-1.292, -5.451e-5
-1.291, -5.399e-5
-1.290, -6.770e-5
-1.289, -7.210e-5
-1.288, -7.727e-5
-1.287, -9.051e-5
-1.286, -9.008e-5
-1.285, -1.032e-4
-1.284, -1.074e-4
-1.283, -1.123e-4
-1.282, -1.246e-4
-1.281, -1.237e-4
-1.280, -1.370e-4
-1.279, -1.407e-4
-1.278, -1.455e-4
-1.277, -1.571e-4
-1.276, -1.559e-4
-1.275, -1.683e-4
-1.274, -1.716e-4
-1.273, -1.759e-4
-1.272, -1.869e-4
-1.271, -1.852e-4
-1.270, -1.973e-4
-1.269, -2.000e-4
-1.268, -2.043e-4
-1.267, -2.160e-4
-1.266, -2.142e-4
-1.265, -2.265e-4
-1.264, -2.285e-4
-1.263, -2.325e-4
-1.262, -2.438e-4
-1.261, -2.415e-4
-1.260, -2.535e-4
-1.259, -2.555e-4
-1.258, -2.588e-4
-1.257, -2.702e-4
-1.256, -2.676e-4
-1.255, -2.800e-4
-1.254, -2.813e-4
-1.253, -2.841e-4
-1.252, -2.949e-4
-1.251, -2.921e-4
-1.250, -3.021e-4
-1.249, -3.045e-4
-1.248, -3.073e-4
-1.247, -3.178e-4
-1.246, -3.154e-4
-1.245, -3.268e-4
-1.244, -3.287e-4
-1.243, -3.319e-4
-1.242, -3.417e-4
-1.241, -3.395e-4
-1.240, -3.507e-4
-1.239, -3.523e-4
-1.238, -3.552e-4
-1.237, -3.649e-4
-1.236, -3.627e-4
-1.235, -3.732e-4
-1.234, -3.739e-4
-1.233, -3.765e-4
-1.232, -3.849e-4
-1.231, -3.820e-4
-1.230, -3.927e-4
-1.229, -3.949e-4
-1.228, -3.985e-4
-1.227, -4.081e-4
-1.226, -4.048e-4
-1.225, -4.175e-4
-1.224, -4.161e-4
-1.223, -4.186e-4
-1.222, -4.284e-4
-1.221, -4.245e-4
-1.220, -4.359e-4
-1.219, -4.367e-4
-1.218, -4.397e-4
-1.217, -4.487e-4
-1.216, -4.458e-4
-1.215, -4.570e-4
-1.214, -4.575e-4
-1.213, -4.611e-4
-1.212, -4.706e-4
-1.211, -4.672e-4
-1.210, -4.783e-4
-1.209, -4.796e-4
-1.208, -4.824e-4
-1.207, -4.922e-4
-1.206, -4.898e-4
-1.205, -5.007e-4
-1.204, -5.024e-4
-1.203, -5.051e-4
-1.202, -5.142e-4
-1.201, -5.118e-4
-1.200, -5.228e-4
-1.199, -5.237e-4
-1.198, -5.284e-4
-1.197, -5.385e-4
-1.196, -5.355e-4
-1.195, -5.461e-4
-1.194, -5.471e-4
-1.193, -5.509e-4
-1.192, -5.597e-4
-1.191, -5.568e-4
-1.190, -5.693e-4
-1.189, -5.657e-4
-1.188, -5.729e-4
-1.187, -5.840e-4
-1.186, -5.808e-4
-1.185, -5.932e-4
-1.184, -5.934e-4
-1.183, -5.983e-4
-1.182, -6.080e-4
-1.181, -6.070e-4
-1.180, -6.198e-4
-1.179, -6.204e-4
-1.178, -6.257e-4
-1.177, -6.368e-4
-1.176, -6.341e-4
-1.175, -6.455e-4
-1.174, -6.463e-4
-1.173, -6.511e-4
-1.172, -6.612e-4
-1.171, -6.601e-4
-1.170, -6.730e-4
-1.169, -6.751e-4
-1.168, -6.802e-4
-1.167, -6.905e-4
-1.166, -6.898e-4
-1.165, -7.029e-4
-1.164, -7.048e-4
-1.163, -7.100e-4
-1.162, -7.210e-4
-1.161, -7.203e-4
-1.160, -7.341e-4
-1.159, -7.361e-4
-1.158, -7.428e-4
-1.157, -7.552e-4
-1.156, -7.535e-4
-1.155, -7.681e-4
-1.154, -7.687e-4
-1.153, -7.754e-4
-1.152, -7.868e-4
-1.151, -7.858e-4
-1.150, -7.984e-4
-1.149, -8.003e-4
-1.148, -8.069e-4
-1.147, -8.184e-4
-1.146, -8.180e-4
-1.145, -8.326e-4
-1.144, -8.355e-4
-1.143, -8.409e-4
-1.142, -8.515e-4
-1.141, -8.519e-4
-1.140, -8.689e-4
-1.139, -8.724e-4
-1.138, -8.793e-4
-1.137, -8.929e-4
-1.136, -8.924e-4
-1.135, -9.088e-4
-1.134, -9.097e-4
-1.133, -9.174e-4
-1.132, -9.296e-4
-1.131, -9.311e-4
-1.130, -9.476e-4
-1.129, -9.511e-4
-1.128, -9.586e-4
-1.127, -9.695e-4
-1.126, -9.683e-4
-1.125, -9.846e-4
-1.124, -9.881e-4
-1.123, -9.971e-4
-1.122, -1.010e-3
-1.121, -1.011e-3
-1.120, -1.028e-3
-1.119, -1.033e-3
-1.118, -1.043e-3
-1.117, -1.055e-3
-1.116, -1.057e-3
-1.115, -1.074e-3
-1.114, -1.079e-3
-1.113, -1.088e-3
-1.112, -1.101e-3
-1.111, -1.104e-3
-1.110, -1.120e-3
-1.109, -1.124e-3
-1.108, -1.135e-3
-1.107, -1.148e-3
-1.106, -1.149e-3
-1.105, -1.166e-3
-1.104, -1.171e-3
-1.103, -1.182e-3
-1.102, -1.196e-3
-1.101, -1.197e-3
-1.100, -1.215e-3
-1.099, -1.220e-3
-1.098, -1.231e-3
-1.097, -1.246e-3
-1.096, -1.248e-3
-1.095, -1.265e-3
-1.094, -1.267e-3
-1.093, -1.278e-3
-1.092, -1.294e-3
-1.091, -1.302e-3
-1.090, -1.317e-3
-1.089, -1.322e-3
-1.088, -1.333e-3
-1.087, -1.345e-3
-1.086, -1.350e-3
-1.085, -1.368e-3
-1.084, -1.372e-3
-1.083, -1.384e-3
-1.082, -1.398e-3
-1.081, -1.405e-3
-1.080, -1.429e-3
-1.079, -1.434e-3
-1.078, -1.445e-3
-1.077, -1.460e-3
-1.076, -1.465e-3
-1.075, -1.484e-3
-1.074, -1.489e-3
-1.073, -1.502e-3
-1.072, -1.515e-3
-1.071, -1.519e-3
-1.070, -1.537e-3
-1.069, -1.542e-3
-1.068, -1.555e-3
-1.067, -1.572e-3
-1.066, -1.577e-3
-1.065, -1.594e-3
-1.064, -1.599e-3
-1.063, -1.614e-3
-1.062, -1.625e-3
-1.061, -1.628e-3
-1.060, -1.647e-3
-1.059, -1.654e-3
-1.058, -1.666e-3
-1.057, -1.680e-3
-1.056, -1.687e-3
-1.055, -1.707e-3
-1.054, -1.712e-3
-1.053, -1.724e-3
-1.052, -1.739e-3
-1.051, -1.741e-3
-1.050, -1.760e-3
-1.049, -1.763e-3
-1.048, -1.777e-3
-1.047, -1.793e-3
-1.046, -1.797e-3
-1.045, -1.817e-3
-1.044, -1.822e-3
-1.043, -1.833e-3
-1.042, -1.847e-3
-1.041, -1.879e-3
-1.040, -1.890e-3
-1.039, -1.893e-3
-1.038, -1.905e-3
-1.037, -1.918e-3
-1.036, -1.921e-3
-1.035, -1.939e-3
-1.034, -1.943e-3
-1.033, -1.954e-3
-1.032, -1.970e-3
-1.031, -1.975e-3
-1.030, -1.995e-3
-1.029, -2.000e-3
-1.028, -2.011e-3
-1.027, -2.021e-3
-1.026, -2.026e-3
-1.025, -2.044e-3
-1.024, -2.052e-3
-1.023, -2.063e-3
-1.022, -2.078e-3
-1.021, -2.081e-3
-1.020, -2.102e-3
-1.019, -2.105e-3
-1.018, -2.117e-3
-1.017, -2.132e-3
-1.016, -2.136e-3
-1.015, -2.152e-3
-1.014, -2.160e-3
-1.013, -2.171e-3
-1.012, -2.185e-3
-1.011, -2.188e-3
-1.010, -2.204e-3
-1.009, -2.213e-3
-1.008, -2.226e-3
-1.007, -2.240e-3
-1.006, -2.243e-3
-1.005, -2.263e-3
-1.004, -2.267e-3
-1.003, -2.278e-3
-1.002, -2.292e-3
-1.001, -2.297e-3
