Potential V vs RHE, Current mA cm-2
0.013299999999999867,5.18774633660509
0.012299999999999978,4.140859974704963
0.011299999999999866,3.1816857133964676
0.010299999999999976,2.352664891675556
0.009299999999999864,1.655212220842093
0.008299999999999974,0.9573351366186703
0.007299999999999862,0.21588494435940458
0.006299999999999972,-0.6128529351015338
0.00529999999999986,-1.3980177065266295
0.0042999999999999705,-2.095187435100119
0.0032999999999998586,-2.662486666345999
0.0022999999999999687,-3.1859298472960624
0.0012999999999998568,-3.7532290785419424
0.00029999999999996696,-4.364384360083638
-0.000700000000000145,-5.0618370309171015
-0.0017000000000000348,-5.715433651454749
-0.0027000000000001467,-6.238876832404812
-0.0037000000000000366,-6.719878674358924
-0.0047000000000001485,-7.155609754717355
-0.005700000000000038,-7.635196885371603
-0.00670000000000015,-8.202496116617484
-0.00770000000000004,-8.769795347863363
-0.008700000000000152,-9.293238528813426
-0.009700000000000042,-9.728969609171857
-0.010700000000000154,-10.120844639234473
-0.011700000000000044,-10.470278330301136
-0.012700000000000156,-10.949865460955383
-0.013700000000000045,-11.473308641905447
-0.014700000000000157,-11.996751822855511
-0.015700000000000047,-12.432482903213943
-0.01670000000000016,-12.781916594280606
-0.01770000000000005,-13.087494235051453
-0.01870000000000016,-13.436927926118118
-0.01970000000000005,-13.872659006476551
-0.020700000000000163,-14.345172580631472
-0.021700000000000053,-14.783733083589633
-0.022700000000000164,-15.137410908555893
-0.023700000000000054,-15.3920589425316
-0.024700000000000166,-15.70329542850191
-0.025700000000000056,-16.014531914472215
-0.026700000000000168,-16.396503965435777
-0.027700000000000058,-16.835064468393938
-0.02870000000000017,-17.231183632356142
-0.02970000000000006,-17.542420118326454
-0.03070000000000017,-17.75462681330621
-0.03170000000000006,-17.966833508285966
-0.03270000000000017,-18.27806999425627
-0.03370000000000006,-18.674189158218486
-0.034700000000000175,-19.056161209182044
-0.035700000000000065,-19.409839034148305
-0.03670000000000018,-19.678634181122664
-0.03770000000000007,-19.848399537106463
-0.03870000000000018,-20.10304757108217
-0.03970000000000007,-20.414284057052477
-0.04070000000000018,-20.85284456001064
-0.04170000000000007,-21.149933932982297
-0.04270000000000018,-21.461170418952605
-0.04370000000000007,-21.63093577493641
-0.044700000000000184,-21.814848243918867
-0.045700000000000074,-22.069496277894572
-0.046700000000000186,-22.38073276386488
-0.047700000000000076,-22.72026347583249
-0.04870000000000019,-23.031499961802798
-0.04970000000000008,-23.300295108777156
-0.05070000000000019,-23.51250180375691
-0.05170000000000008,-23.639825820744765
-0.05270000000000019,-23.908620967719123
-0.05370000000000008,-24.20571034069078
-0.05470000000000019,-24.559388165657033
-0.05570000000000008,-24.814036199632742
-0.056700000000000195,-24.997948668615198
-0.057700000000000085,-25.167714024599
-0.058700000000000196,-25.295038041586857
-0.059700000000000086,-25.563833188561212
-0.0607000000000002,-25.91751101352747
-0.06170000000000009,-26.257041725495082
-0.0627000000000002,-26.483395533473487
-0.06370000000000009,-26.65316088945729
-0.0647000000000002,-26.780484906445146
-0.06570000000000009,-27.00683871442355
-0.0667000000000002,-27.303928087395207
-0.0677000000000001,-27.65760591236147
-0.0687000000000002,-27.912253946337174
-0.0697000000000001,-28.05372507632368
-0.07070000000000021,-28.18104909331153
-0.0717000000000001,-28.308373110299385
-0.07270000000000021,-28.53472691827779
-0.0737000000000001,-28.789374952253496
-0.07470000000000021,-29.100611438223805
-0.0757000000000001,-29.35525947219951
-0.07670000000000021,-29.525024828183312
-0.0777000000000001,-29.66649595816982
-0.07870000000000021,-29.836261314153624
-0.0797000000000001,-30.147497800123933
-0.08070000000000022,-30.402145834099635
-0.0817000000000001,-30.71338232006995
-0.08270000000000022,-30.88314767605375
-0.08370000000000011,-31.052913032037555
-0.08470000000000022,-31.19438416202406
-0.08570000000000011,-31.36414951800786
-0.08670000000000022,-31.618797551983565
-0.08770000000000011,-31.887592698957924
-0.08870000000000022,-32.14224073293363
-0.08970000000000011,-32.283711862920136
-0.09070000000000022,-32.41103587990799
-0.09170000000000011,-32.49591855789989
-0.09270000000000023,-32.70812525287965
-0.09370000000000012,-33.01936173884996
-0.09470000000000023,-33.373039563816214
-0.09570000000000012,-33.58524625879597
-0.09670000000000023,-33.712570275783825
-0.09770000000000012,-33.81160006677438
-0.09870000000000023,-33.98136542275818
-0.09970000000000012,-34.236013456733886
-0.10070000000000023,-34.50480860370825
-0.10170000000000012,-34.75945663768395
-0.10270000000000024,-34.94336910666641
-0.10370000000000013,-35.07069312365426
-0.10470000000000024,-35.198017140642115
-0.10570000000000013,-35.38192960962457
-0.10670000000000024,-35.636577643600276
-0.10770000000000013,-35.99025546856653
-0.10870000000000024,-36.244903502542236
-0.10970000000000013,-36.4288159715247
-0.11070000000000024,-36.55613998851254
-0.11170000000000013,-36.64102266650445
-0.11270000000000002,-36.8532293614842
-0.11370000000000013,-37.122024508458566
-0.11470000000000002,-37.41911388143023
-0.11570000000000014,-37.687909028404576
-0.11670000000000003,-37.77279170639648
-0.11770000000000014,-37.81523304539243
-0.11870000000000003,-37.94255706238028
-0.11970000000000014,-38.16891087035869
-0.12070000000000003,-38.46600024333035
-0.12170000000000014,-38.777236729300654
-0.12270000000000003,-38.98944342428042
-0.12370000000000014,-39.173355893262865
-0.12470000000000003,-39.258238571254765
-0.12570000000000014,-39.47044526623452
-0.12670000000000003,-39.696799074212926
-0.12770000000000015,-39.95144710818864
-0.12870000000000004,-40.177800916167044
-0.12970000000000015,-40.30512493315489
-0.13070000000000004,-40.43244895014274
-0.13170000000000015,-40.559772967130606
-0.13270000000000004,-40.743685436113054
-0.13370000000000015,-41.04077480908471
-0.13470000000000004,-41.352011295055014
-0.13570000000000015,-41.606659329030734
-0.13670000000000004,-41.79057179801318
-0.13770000000000016,-41.87545447600508
-0.13870000000000005,-42.04521983198889
-0.13970000000000016,-42.3564563179592
-0.14070000000000005,-42.653545690930855
-0.14170000000000016,-42.96478217690117
-0.14270000000000005,-43.134547532884966
-0.14370000000000016,-43.23357732387552
-0.14470000000000005,-43.27601866287147
-0.14570000000000016,-43.44578401885527
-0.14670000000000005,-43.70043205283099
-0.14770000000000016,-44.011668538801295
-0.14870000000000005,-44.28046368577565
-0.14970000000000017,-44.4926703807554
-0.15070000000000006,-44.577553058747306
-0.15170000000000017,-44.704877075735155
-0.15270000000000006,-44.88878954471762
-0.15370000000000017,-45.10099623969737
-0.15470000000000006,-45.412232725667685
-0.15570000000000017,-45.666880759643384
-0.15670000000000006,-45.79420477663124
-0.15770000000000017,-45.89323456762179
-0.15870000000000006,-45.97811724561369
-0.15970000000000018,-46.147882601597495
-0.16070000000000007,-46.45911908756781
-0.16170000000000018,-46.75620846053947
-0.16270000000000007,-46.94012092952192
-0.16370000000000018,-47.10988628550572
-0.16470000000000007,-47.19476896349763
-0.16570000000000018,-47.40697565847737
-0.16670000000000007,-47.71821214444768
-0.16770000000000018,-47.987007291422046
-0.16870000000000007,-48.24165532539775
-0.16970000000000018,-48.36897934238561
-0.17070000000000007,-48.45386202037751
-0.17170000000000019,-48.59533315036401
-0.17270000000000008,-48.80753984534376
-0.1737000000000002,-49.076334992318124
-0.17470000000000008,-49.33098302629383
-0.1757000000000002,-49.557336834272235
-0.17670000000000008,-49.59977817326819
-0.1777000000000002,-49.68466085126009
-0.17870000000000008,-49.76954352925199
-0.1797000000000002,-49.98175022423175
-0.18070000000000008,-50.335428049198
-0.1817000000000002,-50.547634744177756
-0.18270000000000008,-50.73154721316022
-0.1837000000000002,-50.85887123014807
-0.1847000000000001,-50.943753908139975
-0.1857000000000002,-51.071077925127824
-0.1867000000000001,-51.29743173310623
-0.1877000000000002,-51.594521106077885
-0.1887000000000001,-51.82087491405629
-0.1897000000000002,-51.948198931044146
-0.1907000000000001,-52.033081609036046
-0.1917000000000001,-52.11796428702795
-0.19269999999999998,-52.30187675601041
-0.1937000000000001,-52.55652478998611
-0.19469999999999998,-52.86776127595642
-0.1957000000000001,-53.03752663194023
-0.19669999999999999,-53.03752663194023
-0.1977000000000001,-53.079967970936174
-0.1987,-53.30632177891458
-0.1997000000000001,-53.56096981289029
-0.2007,-53.872206298860604
-0.2017000000000001,-54.1268543328363
-0.2027,-54.26832546282281
-0.2037000000000001,-54.35320814081471
-0.2047,-54.35320814081471
-0.2057000000000001,-54.43809081880661
-0.2067,-54.56541483579447
-0.2077000000000001,-54.834209982768826
-0.2087,-55.13129935574048
-0.2097000000000001,-55.31521182472294
-0.2107,-55.400094502714836
-0.2117000000000001,-55.484977180706736
-0.2127,-55.612301197694585
-0.2137000000000001,-55.881096344668954
-0.2147,-56.13574437864466
-0.2157000000000001,-56.36209818662306
-0.2167,-56.44698086461496
-0.21770000000000012,-56.53186354260687
-0.2187,-56.65918755959472
-0.21970000000000012,-56.927982706569075
-0.2207,-57.182630740544774
-0.22170000000000012,-57.352396096528594
-0.2227,-57.493867226515086
-0.22370000000000012,-57.57874990450699
-0.2247,-57.62119124350295
-0.22570000000000012,-57.7485152604908
-0.2267,-57.87583927747865
-0.22770000000000012,-58.10219308545706
-0.22870000000000001,-58.31439978043681
-0.22970000000000013,-58.498312249419264
-0.23070000000000002,-58.54075358841522
-0.23170000000000013,-58.62563626640712
-0.23270000000000002,-58.79540162239092
-0.23370000000000013,-58.97931409137338
-0.23470000000000002,-59.19152078635314
-0.23570000000000013,-59.403727481332886
-0.23670000000000002,-59.54519861131939
-0.2376999999999999,-59.587639950315335
-0.23870000000000002,-59.7149639673032
-0.2396999999999999,-59.884729323287
-0.24070000000000003,-60.19596580925731
-0.24169999999999991,-60.32328982624517
-0.24270000000000003,-60.36573116524111
-0.24369999999999992,-60.45061384323302
-0.24470000000000003,-60.54964363422357
-0.24569999999999992,-60.761850329203334
-0.24670000000000003,-60.93161568518713
-0.24769999999999992,-61.07308681517363
-0.24870000000000003,-61.15796949316553
-0.24969999999999992,-61.28529351015339
-0.25070000000000003,-61.327734849149344
-0.2516999999999999,-61.412617527141244
-0.25270000000000004,-61.455058866137186
-0.2536999999999999,-61.6814126741156
-0.25470000000000004,-61.851178030099405
-0.2556999999999999,-61.936060708091304
-0.25670000000000004,-61.851178030099405
-0.25769999999999993,-61.72385401311155
-0.25870000000000004,-61.6814126741156
-0.25969999999999993,-61.851178030099405
-0.26070000000000004,-62.20485585506566
-0.26169999999999993,-62.459503889041365
-0.26270000000000004,-62.544386567033264
-0.26369999999999993,-62.58682790602922
-0.26470000000000005,-62.64341635802381
-0.26569999999999994,-62.72829903601572
-0.26670000000000005,-62.94050573099548
-0.26769999999999994,-63.11027108697928
-0.26870000000000005,-63.251742216965795
-0.26969999999999994,-63.251742216965795
-0.27070000000000005,-63.251742216965795
-0.27169999999999994,-63.15271242597524
-0.27270000000000005,-63.20930087796983
-0.27369999999999994,-63.3366248949577
-0.27470000000000006,-63.633714267929356
-0.27569999999999995,-63.860068075907755
-0.27670000000000006,-63.860068075907755
-0.27769999999999995,-63.732744058919906
-0.27870000000000006,-63.6761556069253
-0.27969999999999995,-63.77518539791585
-0.28070000000000006,-63.944950753899654
-0.28169999999999995,-64.11471610988345
-0.28270000000000006,-64.19959878787537
-0.28369999999999995,-64.19959878787537
-0.28470000000000006,-63.944950753899654
-0.28569999999999995,-63.944950753899654
-0.28670000000000007,-64.0722747708875
-0.28769999999999996,-64.19959878787537
-0.28870000000000007,-64.25618723986996
-0.28969999999999996,-64.34106991786187
-0.29070000000000007,-64.34106991786187
-0.29169999999999996,-64.38351125685783
-0.29270000000000007,-64.46839393484973
-0.29369999999999996,-64.59571795183757
-0.2947000000000001,-64.77963042082003
-0.29569999999999996,-64.86451309881193
-0.2967000000000001,-64.90695443780788
-0.29769999999999996,-64.82207175981598
-0.2987000000000001,-64.72304196882543
-0.29969999999999997,-64.72304196882543
-0.3007000000000001,-64.82207175981598
-0.30169999999999997,-64.86451309881193
-0.3027000000000001,-64.82207175981598
-0.30369999999999997,-64.82207175981598
-0.3047000000000001,-64.86451309881193
-0.30569999999999997,-64.94939577680383
-0.3067000000000001,-65.11916113278764
-0.3077,-65.3030736017701
-0.3087000000000001,-65.3030736017701
-0.3097,-65.20404381077954
-0.3107000000000001,-65.0767197937917
-0.3117,-64.99183711579978
-0.3127000000000001,-64.90695443780788
-0.3137,-64.99183711579978
-0.3147000000000001,-65.03427845479574
-0.3157,-65.0767197937917
-0.3167000000000001,-65.03427845479574
-0.3177,-64.94939577680383
-0.3187000000000001,-64.90695443780788
-0.3197,-64.99183711579978
-0.3207000000000001,-64.99183711579978
-0.3217,-65.03427845479574
-0.3227000000000001,-65.03427845479574
-0.3237,-64.86451309881193
-0.3247000000000001,-64.77963042082003
-0.3257,-64.77963042082003
-0.3267000000000001,-64.82207175981598
-0.3277,-64.86451309881193
-0.3287000000000001,-64.90695443780788
-0.3297,-64.90695443780788
-0.3307000000000001,-64.77963042082003
-0.3317,-64.68060062982947
-0.3327000000000001,-64.72304196882543
-0.3337,-64.82207175981598
-0.3347000000000001,-64.82207175981598
-0.3357,-64.59571795183757
-0.3367000000000001,-64.51083527384567
-0.3377,-64.46839393484973
-0.3387000000000001,-64.51083527384567
-0.3397,-64.63815929083353
-0.3407000000000001,-64.72304196882543
-0.3417,-64.72304196882543
-0.3427000000000001,-64.63815929083353
-0.3437,-64.55327661284163
-0.3447000000000001,-64.51083527384567
-0.3457,-64.38351125685783
-0.3467000000000001,-64.19959878787537
-0.3477,-64.38351125685783
-0.3487000000000001,-64.46839393484973
-0.3497,-64.51083527384567
-0.3507000000000001,-64.46839393484973
-0.3517,-64.46839393484973
-0.3527000000000001,-64.46839393484973
-0.3537,-64.63815929083353
-0.3547000000000001,-64.82207175981598
-0.3557,-64.77963042082003
-0.35670000000000013,-64.51083527384567
-0.3577,-64.19959878787537
-0.35870000000000013,-64.02983343189156
-0.3597,-64.11471610988345
-0.36070000000000013,-64.29862857886593
-0.3617,-64.51083527384567
-0.3626999999999999,-64.63815929083353
-0.3637,-64.51083527384567
-0.3646999999999999,-64.19959878787537
-0.3657,-64.02983343189156
-0.3666999999999999,-63.902509414903705
-0.3677,-63.902509414903705
-0.3686999999999999,-64.02983343189156
-0.36970000000000003,-64.15715744887942
-0.3706999999999999,-64.19959878787537
-0.37170000000000003,-64.11471610988345
-0.3726999999999999,-64.0722747708875
-0.37370000000000003,-64.0722747708875
-0.3746999999999999,-64.0722747708875
-0.37570000000000003,-64.02983343189156
-0.3766999999999999,-63.902509414903705
-0.37770000000000004,-63.732744058919906
-0.3786999999999999,-63.6761556069253
-0.37970000000000004,-63.81762673691181
-0.3806999999999999,-64.02983343189156
-0.38170000000000004,-64.11471610988345
-0.38269999999999993,-64.11471610988345
-0.38370000000000004,-64.11471610988345
-0.38469999999999993,-64.11471610988345
-0.38570000000000004,-64.0722747708875
-0.38669999999999993,-64.0722747708875
-0.38770000000000004,-64.11471610988345
-0.38869999999999993,-64.19959878787537
-0.38970000000000005,-64.29862857886593
-0.39069999999999994,-64.29862857886593
-0.39170000000000005,-64.29862857886593
-0.39269999999999994,-64.42595259585376
-0.39370000000000005,-64.59571795183757
-0.39469999999999994,-64.77963042082003
-0.39570000000000005,-64.90695443780788
-0.39669999999999994,-64.94939577680383
-0.39770000000000005,-64.94939577680383
-0.39869999999999994,-64.99183711579978
-0.39970000000000006,-65.16160247178358
-0.40069999999999995,-65.43039761875795
-0.40170000000000006,-65.64260431373769
-0.40269999999999995,-65.82651678272015
-0.40370000000000006,-65.86895812171612
-0.40469999999999995,-65.76992833072556
-0.40570000000000006,-65.86895812171612
-0.40669999999999995,-66.03872347769992
-0.40770000000000006,-66.25093017267966
-0.40869999999999995,-66.47728398065809
-0.40970000000000006,-66.68949067563783
-0.41069999999999995,-66.73193201463377
-0.41170000000000007,-66.81681469262568
-0.41269999999999996,-66.87340314462028
-0.41370000000000007,-66.9582858226122
-0.41469999999999996,-67.08560983960004
-0.41570000000000007,-67.2978165345798
-0.41669999999999996,-67.43928766456631
-0.41770000000000007,-67.52417034255821
-0.41869999999999996,-67.6090530205501
-0.4197000000000001,-67.7788183765339
-0.42069999999999996,-68.0051721845123
-0.4217000000000001,-68.17493754049613
-0.42269999999999996,-68.34470289647993
-0.4237000000000001,-68.38714423547587
-0.42469999999999997,-68.48617402646643
-0.4257000000000001,-68.69838072144618
-0.42669999999999997,-68.96717586842054
-0.4277000000000001,-69.30670658038814
-0.42869999999999997,-69.57550172736251
-0.4297000000000001,-69.74526708334632
-0.43069999999999997,-69.87259110033416
-0.4317000000000001,-69.95747377832606
-0.4327,-70.18382758630447
-0.4337000000000001,-70.43847562028017
-0.4347,-70.74971210625048
-0.4357000000000001,-71.10338993121674
-0.4367,-71.31559662619651
-0.4377000000000001,-71.52780332117625
-0.4387,-71.7965984681506
-0.4397000000000001,-72.05124650212633
-0.4407,-72.40492432709259
-0.4417000000000001,-72.71616081306288
-0.4427,-72.97080884703858
-0.4437000000000001,-73.15472131602105
-0.4447,-73.3669280110008
-0.4457000000000001,-73.57913470598055
-0.4467,-73.93281253094682
-0.4477000000000001,-74.41381437290093
-0.4487,-74.80993353686314
-0.4497000000000001,-75.19190558782671
-0.4507,-75.46070073480107
-0.4517000000000001,-75.77193722077136
-0.4527,-76.06902659374302
-0.4537000000000001,-76.50758709670117
-0.4547,-76.94614759965934
-0.4557000000000001,-77.34226676362155
-0.4567,-77.59691479759726
-0.4577000000000001,-77.80912149257702
-0.4587,-78.03547530055542
-0.4597000000000001,-78.43159446451764
-0.4607,-78.85600785447714
-0.4617000000000001,-79.2945683574353
-0.4627,-79.64824618240156
-0.4637000000000001,-79.86045287738132
-0.4647,-80.17168936335163
-0.4657000000000001,-80.56780852731384
-0.4667,-80.99222191727335
-0.4677000000000001,-81.47322375922747
-0.4687,-81.95422560118158
-0.4697000000000001,-82.39278610413973
-0.4707,-82.746463929106
-0.4717000000000001,-83.04355330207765
-0.4727,-83.39723112704392
-0.4737000000000001,-83.92067430799398
-0.4747,-84.48655882793999
-0.4757000000000001,-84.92511933089816
-0.4767,-85.32123849486035
-0.4777000000000001,-85.66076920682796
-0.4787,-86.01444703179425
-0.4797000000000001,-86.58033155174023
-0.4807,-87.14621607168625
-0.48170000000000013,-87.66965925263632
-0.4827,-88.06577841659853
-0.48370000000000013,-88.46189758056073
-0.4847,-88.7589869535324
-0.48570000000000013,-89.19754745649055
-0.4867,-89.02778210050676
-0.48570000000000013,-87.62721791364037
-0.4847,-86.36812485676049
-0.48370000000000013,-85.09488468688197
-0.4827,-84.04799832498183
-0.48170000000000013,-83.0011119630817
-0.4807,-82.09569673116808
-0.4797000000000001,-81.1761343862558
-0.4787,-80.25657204134353
-0.4777000000000001,-79.37945103542721
-0.4767,-78.47403580351359
-0.4757000000000001,-77.55447345860131
-0.4747,-76.67735245268499
-0.4737000000000001,-75.8992612377592
-0.4727,-75.19190558782671
-0.4717000000000001,-74.37137303390499
-0.4707,-73.57913470598055
-0.4697000000000001,-72.71616081306288
-0.4687,-71.8814811461425
-0.4677000000000001,-71.1458312702127
-0.4667,-70.48091695927613
-0.4657000000000001,-69.8301497613382
-0.4647,-69.1793825634003
-0.4637000000000001,-68.44373268747047
-0.4627,-67.6090530205501
-0.4617000000000001,-66.77437335362974
-0.4607,-66.08116481669586
