Potential V vs RHE, Current mA cm-2
0.013299999999999867,4.752015256246658
0.012299999999999978,3.7928409949381634
0.011299999999999866,2.8761080726256196
0.010299999999999976,1.9169338113171246
0.009299999999999864,1.0010497157844997
0.008299999999999974,0.12863969849672777
0.007299999999999862,-0.7001406223032067
0.006299999999999972,-1.4415908145624723
0.00529999999999986,-2.1390434853959355
0.0042999999999999705,-2.794054817233447
0.0032999999999998586,-3.447651437771094
0.0022999999999999687,-4.102662769608606
0.0012999999999998568,-4.800115440442069
0.00029999999999996696,-5.5414241615713475
-0.000700000000000145,-6.238876832404812
-0.0017000000000000348,-6.93774421453814
-0.0027000000000001467,-7.591340835075788
-0.0037000000000000366,-8.158640066321666
-0.0047000000000001485,-8.725939297567548
-0.005700000000000038,-9.205526428221793
-0.00670000000000015,-9.772825659467674
-0.00770000000000004,-10.296268840417738
-0.008700000000000152,-10.863568071663616
-0.009700000000000042,-11.473308641905447
-0.010700000000000154,-12.084463923447142
-0.011700000000000044,-12.651763154693022
-0.012700000000000156,-13.217647674639037
-0.013700000000000045,-13.698649516593148
-0.014700000000000157,-14.13438059695158
-0.015700000000000047,-14.529085049613924
-0.01670000000000016,-14.967645552572087
-0.01770000000000005,-15.3920589425316
-0.01870000000000016,-15.91550212348166
-0.01970000000000005,-16.396503965435777
-0.020700000000000163,-16.919947146385837
-0.021700000000000053,-17.40094898833995
-0.022700000000000164,-17.881950830294063
-0.023700000000000054,-18.320511333252224
-0.024700000000000166,-18.674189158218486
-0.025700000000000056,-19.01371987018609
-0.026700000000000168,-19.367397695152352
-0.027700000000000058,-19.763516859114564
-0.02870000000000017,-20.202077362072725
-0.02970000000000006,-20.626490752032236
-0.03070000000000017,-21.149933932982297
-0.03170000000000006,-21.58849443594046
-0.03270000000000017,-21.98461359990267
-0.03370000000000006,-22.33829142486893
-0.034700000000000175,-22.67782213683654
-0.035700000000000065,-22.989058622806844
-0.03670000000000018,-23.300295108777156
-0.03770000000000007,-23.639825820744765
-0.03870000000000018,-24.035944984706973
-0.03970000000000007,-24.432064148669184
-0.04070000000000018,-24.870624651627345
-0.04170000000000007,-25.295038041586857
-0.04270000000000018,-25.648715866553115
-0.04370000000000007,-26.002393691519377
-0.044700000000000184,-26.257041725495082
-0.045700000000000074,-26.525836872469437
-0.046700000000000186,-26.780484906445146
-0.047700000000000076,-27.091721392415455
-0.04870000000000019,-27.38881076538711
-0.04970000000000008,-27.78492992934932
-0.05070000000000019,-28.18104909331153
-0.05170000000000008,-28.53472691827779
-0.05270000000000019,-28.8742576302454
-0.05370000000000008,-29.22793545521166
-0.05470000000000019,-29.440142150191413
-0.05570000000000008,-29.66649595816982
-0.056700000000000195,-29.96358533114148
-0.057700000000000085,-30.232380478115836
-0.058700000000000196,-30.571911190083444
-0.059700000000000086,-30.925589015049702
-0.0607000000000002,-31.27926684001596
-0.06170000000000009,-31.618797551983565
-0.0627000000000002,-31.972475376949827
-0.06370000000000009,-32.184682071929586
-0.0647000000000002,-32.45347721890394
-0.06570000000000009,-32.62324257488775
-0.0667000000000002,-32.84959638286615
-0.0677000000000001,-33.10424441684186
-0.0687000000000002,-33.373039563816214
-0.0697000000000001,-33.712570275783825
-0.07070000000000021,-34.02380676175414
-0.0717000000000001,-34.33504324772444
-0.07270000000000021,-34.632132620696105
-0.0737000000000001,-34.85848642867451
-0.07470000000000021,-35.07069312365426
-0.0757000000000001,-35.240458479638065
-0.07670000000000021,-35.46681228761647
-0.0777000000000001,-35.679018982596226
-0.07870000000000021,-35.99025546856653
-0.0797000000000001,-36.28734484153819
-0.08070000000000022,-36.64102266650445
-0.0817000000000001,-36.99470049147071
-0.08270000000000022,-37.291789864442364
-0.08370000000000011,-37.51814367242077
-0.08470000000000022,-37.73035036740053
-0.08570000000000011,-37.90011572338433
-0.08670000000000022,-38.16891087035869
-0.08770000000000011,-38.38111756533845
-0.08870000000000022,-38.607471373316855
-0.08970000000000011,-38.86211940729255
-0.09070000000000022,-39.130914554266916
-0.09170000000000011,-39.42800392723857
-0.09270000000000023,-39.739240413208876
-0.09370000000000012,-39.95144710818864
-0.09470000000000023,-40.177800916167044
-0.09570000000000012,-40.3900076111468
-0.09670000000000023,-40.616361419125205
-0.09770000000000012,-40.87100945310091
-0.09870000000000023,-41.139804600075266
-0.09970000000000012,-41.43689397304693
-0.10070000000000023,-41.79057179801318
-0.10170000000000012,-42.04521983198889
-0.10270000000000024,-42.31401497896325
-0.10370000000000013,-42.526221673943
-0.10470000000000024,-42.653545690930855
-0.10570000000000013,-42.837458159913304
-0.10670000000000024,-43.007223515897124
-0.10770000000000013,-43.27601866287147
-0.10870000000000024,-43.53066669684718
-0.10970000000000013,-43.92678586080939
-0.11070000000000024,-44.28046368577565
-0.11170000000000013,-44.577553058747306
-0.11270000000000002,-44.84634820572166
-0.11370000000000013,-45.05855490070142
-0.11470000000000002,-45.143437578693316
-0.11570000000000014,-45.27076159568118
-0.11670000000000003,-45.36979138667173
-0.11770000000000014,-45.581998081651484
-0.11870000000000003,-45.79420477663124
-0.11970000000000014,-46.10544126260155
-0.12070000000000003,-46.41667774857186
-0.12170000000000014,-46.713767121543505
-0.12270000000000003,-46.982562268517874
-0.12370000000000014,-47.19476896349763
-0.12470000000000003,-47.36453431948143
-0.12570000000000014,-47.590888127459834
-0.12670000000000003,-47.76065348344364
-0.12770000000000015,-47.987007291422046
-0.12870000000000004,-48.24165532539775
-0.12970000000000015,-48.59533315036401
-0.13070000000000004,-48.89242252333566
-0.13170000000000015,-49.24610034830193
-0.13270000000000004,-49.458307043281685
-0.13370000000000015,-49.68466085126009
-0.13470000000000004,-49.85442620724389
-0.13570000000000015,-49.98175022423175
-0.13670000000000004,-50.1656626932142
-0.13770000000000016,-50.335428049198
-0.13870000000000005,-50.547634744177756
-0.13970000000000016,-50.81642989115212
-0.14070000000000005,-51.071077925127824
-0.14170000000000016,-51.424755750094086
-0.14270000000000005,-51.73599223606439
-0.14370000000000016,-51.990640270040096
-0.14470000000000005,-52.17455273902255
-0.14570000000000016,-52.386759434002315
-0.14670000000000005,-52.55652478998611
-0.14770000000000016,-52.78287859796452
-0.14870000000000005,-52.995085292944275
-0.14970000000000017,-53.30632177891458
-0.15070000000000006,-53.64585249088219
-0.15170000000000017,-53.9570889768525
-0.15270000000000006,-54.2117370108282
-0.15370000000000017,-54.43809081880661
-0.15470000000000006,-54.65029751378637
-0.15570000000000017,-54.834209982768826
-0.15670000000000006,-55.046416677748574
-0.15770000000000017,-55.21618203373238
-0.15870000000000006,-55.527418519702685
-0.15970000000000018,-55.7820665536784
-0.16070000000000007,-56.13574437864466
-0.16170000000000018,-56.404539525619015
-0.16270000000000007,-56.65918755959472
-0.16370000000000018,-56.88554136757313
-0.16470000000000007,-57.05530672355693
-0.16570000000000018,-57.22507207954074
-0.16670000000000007,-57.45142588751914
-0.16770000000000018,-57.66363258249889
-0.16870000000000007,-57.93242772947325
-0.16970000000000018,-58.22951710244491
-0.17070000000000007,-58.54075358841522
-0.17170000000000019,-58.880284300382826
-0.17270000000000008,-59.19152078635314
-0.1737000000000002,-59.36128614233694
-0.17470000000000008,-59.54519861131939
-0.1757000000000002,-59.67252262830725
-0.17670000000000008,-59.842287984291055
-0.1777000000000002,-60.02620045327351
-0.17870000000000008,-60.23840714825326
-0.1797000000000002,-60.54964363422357
-0.18070000000000008,-60.84673300719523
-0.1817000000000002,-61.15796949316553
-0.18270000000000008,-61.37017618814529
-0.1837000000000002,-61.5965299961237
-0.1847000000000001,-61.6814126741156
-0.1857000000000002,-61.80873669110345
-0.1867000000000001,-61.97850204708726
-0.1877000000000002,-62.28973853305756
-0.1887000000000001,-62.501945228037314
-0.1897000000000002,-62.855623053003576
-0.1907000000000001,-63.15271242597524
-0.1917000000000001,-63.46394891194555
-0.19269999999999998,-63.732744058919906
-0.1937000000000001,-63.944950753899654
-0.19469999999999998,-64.0722747708875
-0.1957000000000001,-64.25618723986996
-0.19669999999999999,-64.34106991786187
-0.1977000000000001,-64.55327661284163
-0.1987,-64.77963042082003
-0.1997000000000001,-65.03427845479574
-0.2007,-65.38795627976201
-0.2017000000000001,-65.64260431373769
-0.2027,-65.86895812171612
-0.2037000000000001,-66.12360615569182
-0.2047,-66.29337151167562
-0.2057000000000001,-66.43484264166212
-0.2067,-66.68949067563783
-0.2077000000000001,-66.81681469262568
-0.2087,-67.08560983960004
-0.2097000000000001,-67.39684632557035
-0.2107,-67.693935698542
-0.2117000000000001,-67.96273084551636
-0.2127,-68.25982021848802
-0.2137000000000001,-68.48617402646643
-0.2147,-68.69838072144618
-0.2157000000000001,-68.96717586842054
-0.2167,-69.1793825634003
-0.21770000000000012,-69.39158925838004
-0.2187,-69.6603844053544
-0.21970000000000012,-69.95747377832606
-0.2207,-70.22626892530042
-0.22170000000000012,-70.43847562028017
-0.2227,-70.62238808926263
-0.22370000000000012,-70.79215344524643
-0.2247,-70.96191880123024
-0.22570000000000012,-71.18827260920865
-0.2267,-71.31559662619651
-0.22770000000000012,-71.48536198218031
-0.22870000000000001,-71.7117157901587
-0.22970000000000013,-71.96636382413442
-0.23070000000000002,-72.19271763211282
-0.23170000000000013,-72.44736566608852
-0.23270000000000002,-72.71616081306288
-0.23370000000000013,-72.92836750804264
-0.23470000000000002,-73.0556915250305
-0.23570000000000013,-73.2820453330089
-0.23670000000000002,-73.3669280110008
-0.2376999999999999,-73.53669336698461
-0.23870000000000002,-73.6781644969711
-0.2396999999999999,-73.89037119195086
-0.24070000000000003,-74.06013654793468
-0.24169999999999991,-74.24404901691713
-0.24270000000000003,-74.41381437290093
-0.24369999999999992,-74.62602106788069
-0.24470000000000003,-74.8523748758591
-0.24569999999999992,-75.1070229098348
-0.24670000000000003,-75.33337671781321
-0.24769999999999992,-75.54558341279296
-0.24870000000000003,-75.71534876877676
-0.24969999999999992,-75.98414391575112
-0.25070000000000003,-76.23879194972683
-0.2516999999999999,-76.42270441870929
-0.25270000000000004,-76.5924697746931
-0.2536999999999999,-76.71979379168094
-0.25470000000000004,-76.86126492166746
-0.2556999999999999,-76.9037062606634
-0.25670000000000004,-77.03103027765125
-0.25769999999999993,-77.0734716166472
-0.25870000000000004,-77.28567831162695
-0.25969999999999993,-77.51203211960537
-0.26070000000000004,-77.76668015358106
-0.26169999999999993,-77.99303396155948
-0.26270000000000004,-78.24768199553519
-0.26369999999999993,-78.43159446451764
-0.26470000000000005,-78.60135982050144
-0.26569999999999994,-78.72868383748929
-0.26670000000000005,-78.85600785447714
-0.26769999999999994,-79.08236166245555
-0.26870000000000005,-79.2945683574353
-0.26969999999999994,-79.52092216541372
-0.27070000000000005,-79.73312886039348
-0.27169999999999994,-79.94533555537322
-0.27270000000000005,-80.17168936335163
-0.27369999999999994,-80.34145471933543
-0.27470000000000006,-80.46877873632329
-0.27569999999999995,-80.65269120530574
-0.27670000000000006,-80.69513254430169
-0.27769999999999995,-80.69513254430169
-0.27870000000000006,-80.7800152222936
-0.27969999999999995,-80.90733923928146
-0.28070000000000006,-81.13369304725985
-0.28169999999999995,-81.38834108123557
-0.28270000000000006,-81.61469488921396
-0.28369999999999995,-81.78446024519776
-0.28470000000000006,-81.86934292318966
-0.28569999999999995,-81.99666694017753
-0.28670000000000007,-82.03910827917348
-0.28769999999999996,-82.18057940915998
-0.28870000000000007,-82.35034476514379
-0.28969999999999996,-82.52011012112759
-0.29070000000000007,-82.6615812511141
-0.29169999999999996,-82.8313466070979
-0.29270000000000007,-83.0011119630817
-0.29369999999999996,-83.14258309306821
-0.2947000000000001,-83.18502443206415
-0.29569999999999996,-83.22746577106011
-0.2967000000000001,-83.22746577106011
-0.29769999999999996,-83.31234844905201
-0.2987000000000001,-83.39723112704392
-0.29969999999999997,-83.60943782202366
-0.3007000000000001,-83.83579163000208
-0.30169999999999997,-84.00555698598588
-0.3027000000000001,-84.18946945496833
-0.30369999999999997,-84.31679347195619
-0.3047000000000001,-84.35923481095215
-0.30569999999999997,-84.40167614994809
-0.3067000000000001,-84.44411748894404
-0.3077,-84.48655882793999
-0.3087000000000001,-84.6563241839238
-0.3097,-84.8826779919022
-0.3107000000000001,-85.13732602587791
-0.3117,-85.27879715586442
-0.3127000000000001,-85.44856251184822
-0.3137,-85.44856251184822
-0.3147000000000001,-85.53344518984011
-0.3157,-85.53344518984011
-0.3167000000000001,-85.61832786783202
-0.3177,-85.61832786783202
-0.3187000000000001,-85.70321054582392
-0.3197,-85.80224033681448
-0.3207000000000001,-85.92956435380233
-0.3217,-85.97200569279828
-0.3227000000000001,-86.05688837079018
-0.3237,-86.01444703179425
-0.3247000000000001,-86.09932970978613
-0.3257,-86.01444703179425
-0.3267000000000001,-86.01444703179425
-0.3277,-85.97200569279828
-0.3287000000000001,-86.01444703179425
-0.3297,-86.05688837079018
-0.3307000000000001,-86.22665372677399
-0.3317,-86.36812485676049
-0.3327000000000001,-86.5378902127443
-0.3337,-86.6227728907362
-0.3347000000000001,-86.66521422973216
-0.3357,-86.66521422973216
-0.3367000000000001,-86.66521422973216
-0.3377,-86.66521422973216
-0.3387000000000001,-86.6227728907362
-0.3397,-86.75009690772404
-0.3407000000000001,-86.80668535971866
-0.3417,-86.84912669871461
-0.3427000000000001,-86.84912669871461
-0.3437,-86.84912669871461
-0.3447000000000001,-86.66521422973216
-0.3457,-86.5378902127443
-0.3467000000000001,-86.41056619575643
-0.3477,-86.36812485676049
-0.3487000000000001,-86.36812485676049
-0.3497,-86.49544887374834
-0.3507000000000001,-86.66521422973216
-0.3517,-86.80668535971866
-0.3527000000000001,-86.93400937670651
-0.3537,-87.01889205469841
-0.3547000000000001,-86.97645071570246
-0.3557,-86.93400937670651
-0.35670000000000013,-86.89156803771054
-0.3577,-86.89156803771054
-0.35870000000000013,-86.84912669871461
-0.3597,-86.89156803771054
-0.36070000000000013,-86.97645071570246
-0.3617,-87.10377473269031
-0.3626999999999999,-87.23109874967815
-0.3637,-87.27354008867411
-0.3646999999999999,-87.23109874967815
-0.3657,-87.18865741068221
-0.3666999999999999,-86.93400937670651
-0.3677,-86.80668535971866
-0.3686999999999999,-86.75009690772404
-0.36970000000000003,-86.97645071570246
-0.3706999999999999,-87.14621607168625
-0.37170000000000003,-87.37256987966467
-0.3726999999999999,-87.54233523564847
-0.37370000000000003,-87.62721791364037
-0.3746999999999999,-87.49989389665252
-0.37570000000000003,-87.41501121866061
-0.3766999999999999,-87.23109874967815
-0.37770000000000004,-87.01889205469841
-0.3786999999999999,-86.93400937670651
-0.37970000000000004,-86.97645071570246
-0.3806999999999999,-87.01889205469841
-0.38170000000000004,-87.06133339369435
-0.38269999999999993,-87.10377473269031
-0.38370000000000004,-87.10377473269031
-0.38469999999999993,-87.10377473269031
-0.38570000000000004,-87.10377473269031
-0.38669999999999993,-87.14621607168625
-0.38770000000000004,-87.14621607168625
-0.38869999999999993,-87.18865741068221
-0.38970000000000005,-87.23109874967815
-0.39069999999999994,-87.23109874967815
-0.39170000000000005,-87.23109874967815
-0.39269999999999994,-87.33012854066871
-0.39370000000000005,-87.33012854066871
-0.39469999999999994,-87.41501121866061
-0.39570000000000005,-87.37256987966467
-0.39669999999999994,-87.33012854066871
-0.39770000000000005,-87.23109874967815
-0.39869999999999994,-87.23109874967815
-0.39970000000000006,-87.27354008867411
-0.40069999999999995,-87.37256987966467
-0.40170000000000006,-87.49989389665252
-0.40269999999999995,-87.62721791364037
-0.40370000000000006,-87.71210059163228
-0.40469999999999995,-87.66965925263632
-0.40570000000000006,-87.62721791364037
-0.40669999999999995,-87.62721791364037
-0.40770000000000006,-87.62721791364037
-0.40869999999999995,-87.66965925263632
-0.40970000000000006,-87.71210059163228
-0.41069999999999995,-87.79698326962418
-0.41170000000000007,-87.89601306061473
-0.41269999999999996,-87.89601306061473
-0.41370000000000007,-87.93845439961068
-0.41469999999999996,-87.93845439961068
-0.41570000000000007,-87.98089573860662
-0.41669999999999996,-88.06577841659853
-0.41770000000000007,-88.15066109459043
-0.41869999999999996,-88.19310243358639
-0.4197000000000001,-88.4194562415648
-0.42069999999999996,-88.54678025855264
-0.4217000000000001,-88.6741042755405
-0.42269999999999996,-88.7589869535324
-0.4237000000000001,-88.7589869535324
-0.42469999999999997,-88.7589869535324
-0.4257000000000001,-88.7589869535324
-0.42669999999999997,-88.71654561453644
-0.4277000000000001,-88.71654561453644
-0.42869999999999997,-88.8438696315243
-0.4297000000000001,-88.94289942251486
-0.43069999999999997,-89.11266477849867
-0.4317000000000001,-89.15510611749461
-0.4327,-89.32487147347842
-0.4337000000000001,-89.36731281247435
-0.4347,-89.46634260346492
-0.4357000000000001,-89.55122528145681
-0.4367,-89.59366662045278
-0.4377000000000001,-89.72099063744062
-0.4387,-89.80587331543254
-0.4397000000000001,-89.80587331543254
-0.4407,-89.89075599342443
-0.4417000000000001,-90.07466846240689
-0.4427,-90.24443381839069
-0.4437000000000001,-90.37175783537855
-0.4447,-90.51322896536506
-0.4457000000000001,-90.6405529823529
-0.4467,-90.68299432134886
-0.4477000000000001,-90.81031833833671
-0.4487,-90.99423080731917
-0.4497000000000001,-91.20643750229891
-0.4507,-91.46108553627462
-0.4517000000000001,-91.85720470023682
-0.4527,-92.16844118620713
-0.4537000000000001,-92.25332386419905
-0.4547,-92.3806478811869
-0.4557000000000001,-92.56456035016936
-0.4567,-92.64944302816124
-0.4577000000000001,-92.81920838414506
-0.4587,-92.98897374012887
-0.4597000000000001,-93.21532754810727
-0.4607,-93.42753424308701
-0.4617000000000001,-93.65388805106544
-0.4627,-93.86609474604518
-0.4637000000000001,-94.03586010202899
-0.4647,-94.30465524900335
-0.4657000000000001,-94.47442060498715
-0.4667,-94.70077441296557
-0.4677000000000001,-94.95542244694126
-0.4687,-95.30910027190752
-0.4697000000000001,-95.69107232287108
-0.4707,-96.0871914868333
-0.4717000000000001,-96.3984279728036
-0.4727,-96.69551734577524
-0.4737000000000001,-96.87942981475771
-0.4747,-97.13407784873341
-0.4757000000000001,-97.26140186572127
-0.4767,-97.44531433470372
-0.4777000000000001,-97.69996236867944
-0.4787,-98.01119885464975
-0.4797000000000001,-98.364876679616
-0.4807,-98.7044073915836
-0.48170000000000013,-99.05808521654988
-0.4827,-99.35517458952152
-0.48370000000000013,-99.66641107549184
-0.4847,-99.97764756146215
-0.48570000000000013,-100.2747369344338
-0.4867,-99.87861777047159
-0.48570000000000013,-98.3082882276214
-0.4847,-96.83698847576176
-0.48370000000000013,-95.52130696688728
-0.4827,-94.30465524900335
-0.48170000000000013,-93.17288620911131
-0.4807,-92.04111716921928
-0.4797000000000001,-90.93764235532454
-0.4787,-89.80587331543254
-0.4777000000000001,-88.71654561453644
-0.4767,-87.58477657464444
-0.4757000000000001,-86.5378902127443
-0.4747,-85.49100385084417
-0.4737000000000001,-84.57144150593189
-0.4727,-83.70846761301424
-0.4717000000000001,-82.8313466070979
-0.4707,-81.91178426218562
-0.4697000000000001,-80.99222191727335
-0.4687,-80.04436534636378
-0.4677000000000001,-79.1248030014515
-0.4667,-78.20524065653922
-0.4657000000000001,-77.28567831162695
-0.4647,-76.46514575770523
-0.4637000000000001,-75.63046609078486
-0.4627,-74.89481621485504
-0.4617000000000001,-74.10257788693062
-0.4607,-73.3669280110008
-0.4597000000000001,-72.57468968307639
-0.4587,-71.75415712915466
