Sept. 2, 2024   07:02:18
Cyclic Voltammetry
File: c:/users/guazh/data/20240829_batch_215_500/2024-08-29-exp245\exp245-2024-09-02t06_45_58-arkoh\exp245_cv_sr_700mvs_efin_-1600mv.bin
Data Source:  Experiment
Instrument Model:  CHI760E
Header: CV ran at 700 mVs
Note: 

Init E (V) = -1
High E (V) = -1
Low E (V) = -1.6
Final E (V) = -1
Init P/N = N
Scan Rate (V/s) = 0.7
Segment = 3
Sample Interval (V) = 0.001
Quiet Time (sec) = 2
Sensitivity (A/V) = 0.01
Comp R (ohm) = 2.0

Results:

Channel 1:
Segment 1:

Segment 2:

Segment 3:

Potential/V, Current/A

-1.000, 2.790e-5
-1.001, 6.182e-5
-1.002, 6.490e-5
-1.003, 6.798e-5
-1.004, 6.798e-5
-1.005, 6.798e-5
-1.006, 6.798e-5
-1.007, 7.107e-5
-1.008, 7.107e-5
-1.009, 7.107e-5
-1.010, 7.107e-5
-1.011, 7.107e-5
-1.012, 7.415e-5
-1.013, 7.415e-5
-1.014, 7.415e-5
-1.015, 7.415e-5
-1.016, 7.107e-5
-1.017, 7.415e-5
-1.018, 7.415e-5
-1.019, 7.415e-5
-1.020, 7.415e-5
-1.021, 7.415e-5
-1.022, 7.415e-5
-1.023, 7.415e-5
-1.024, 7.415e-5
-1.025, 7.415e-5
-1.026, 7.415e-5
-1.027, 7.415e-5
-1.028, 7.415e-5
-1.029, 7.415e-5
-1.030, 7.415e-5
-1.031, 7.723e-5
-1.032, 7.415e-5
-1.033, 7.415e-5
-1.034, 7.415e-5
-1.035, 7.415e-5
-1.036, 7.723e-5
-1.037, 7.723e-5
-1.038, 7.723e-5
-1.039, 7.415e-5
-1.040, 7.415e-5
-1.041, 7.415e-5
-1.042, 7.723e-5
-1.043, 7.723e-5
-1.044, 7.723e-5
-1.045, 7.723e-5
-1.046, 7.723e-5
-1.047, 7.723e-5
-1.048, 7.723e-5
-1.049, 7.723e-5
-1.050, 7.723e-5
-1.051, 7.723e-5
-1.052, 7.723e-5
-1.053, 7.723e-5
-1.054, 7.723e-5
-1.055, 7.723e-5
-1.056, 7.723e-5
-1.057, 7.723e-5
-1.058, 7.723e-5
-1.059, 7.723e-5
-1.060, 7.723e-5
-1.061, 7.723e-5
-1.062, 7.723e-5
-1.063, 7.723e-5
-1.064, 7.723e-5
-1.065, 7.723e-5
-1.066, 7.723e-5
-1.067, 7.723e-5
-1.068, 7.723e-5
-1.069, 7.723e-5
-1.070, 7.723e-5
-1.071, 7.723e-5
-1.072, 7.723e-5
-1.073, 7.723e-5
-1.074, 7.723e-5
-1.075, 7.723e-5
-1.076, 7.723e-5
-1.077, 7.723e-5
-1.078, 7.723e-5
-1.079, 7.723e-5
-1.080, 7.723e-5
-1.081, 7.723e-5
-1.082, 7.723e-5
-1.083, 7.723e-5
-1.084, 7.723e-5
-1.085, 7.723e-5
-1.086, 7.723e-5
-1.087, 7.723e-5
-1.088, 7.723e-5
-1.089, 8.032e-5
-1.090, 8.032e-5
-1.091, 7.723e-5
-1.092, 7.723e-5
-1.093, 7.723e-5
-1.094, 7.723e-5
-1.095, 7.723e-5
-1.096, 7.723e-5
-1.097, 7.723e-5
-1.098, 7.723e-5
-1.099, 7.723e-5
-1.100, 8.032e-5
-1.101, 7.723e-5
-1.102, 7.723e-5
-1.103, 7.723e-5
-1.104, 7.723e-5
-1.105, 7.723e-5
-1.106, 8.032e-5
-1.107, 8.032e-5
-1.108, 8.032e-5
-1.109, 7.723e-5
-1.110, 7.723e-5
-1.111, 7.723e-5
-1.112, 8.032e-5
-1.113, 8.032e-5
-1.114, 8.032e-5
-1.115, 8.032e-5
-1.116, 8.032e-5
-1.117, 8.032e-5
-1.118, 7.723e-5
-1.119, 8.032e-5
-1.120, 8.032e-5
-1.121, 8.032e-5
-1.122, 8.032e-5
-1.123, 8.032e-5
-1.124, 8.032e-5
-1.125, 8.032e-5
-1.126, 8.032e-5
-1.127, 8.032e-5
-1.128, 8.032e-5
-1.129, 8.032e-5
-1.130, 8.032e-5
-1.131, 8.032e-5
-1.132, 8.032e-5
-1.133, 8.032e-5
-1.134, 8.032e-5
-1.135, 8.032e-5
-1.136, 8.032e-5
-1.137, 8.032e-5
-1.138, 8.032e-5
-1.139, 8.032e-5
-1.140, 8.340e-5
-1.141, 8.032e-5
-1.142, 8.032e-5
-1.143, 8.340e-5
-1.144, 8.340e-5
-1.145, 8.340e-5
-1.146, 8.032e-5
-1.147, 8.032e-5
-1.148, 8.340e-5
-1.149, 8.340e-5
-1.150, 8.340e-5
-1.151, 8.340e-5
-1.152, 8.340e-5
-1.153, 8.340e-5
-1.154, 8.340e-5
-1.155, 8.340e-5
-1.156, 8.340e-5
-1.157, 8.340e-5
-1.158, 8.340e-5
-1.159, 8.340e-5
-1.160, 8.340e-5
-1.161, 8.340e-5
-1.162, 8.340e-5
-1.163, 8.340e-5
-1.164, 8.340e-5
-1.165, 8.648e-5
-1.166, 8.648e-5
-1.167, 8.648e-5
-1.168, 8.340e-5
-1.169, 8.648e-5
-1.170, 8.648e-5
-1.171, 8.648e-5
-1.172, 8.648e-5
-1.173, 8.648e-5
-1.174, 8.648e-5
-1.175, 8.648e-5
-1.176, 8.648e-5
-1.177, 8.648e-5
-1.178, 8.648e-5
-1.179, 8.648e-5
-1.180, 8.957e-5
-1.181, 8.648e-5
-1.182, 8.648e-5
-1.183, 8.648e-5
-1.184, 8.648e-5
-1.185, 8.957e-5
-1.186, 8.957e-5
-1.187, 8.957e-5
-1.188, 8.957e-5
-1.189, 8.957e-5
-1.190, 8.957e-5
-1.191, 8.957e-5
-1.192, 8.957e-5
-1.193, 8.957e-5
-1.194, 8.957e-5
-1.195, 8.957e-5
-1.196, 9.265e-5
-1.197, 9.265e-5
-1.198, 9.265e-5
-1.199, 9.265e-5
-1.200, 9.265e-5
-1.201, 9.265e-5
-1.202, 9.265e-5
-1.203, 9.265e-5
-1.204, 9.265e-5
-1.205, 9.573e-5
-1.206, 9.573e-5
-1.207, 9.573e-5
-1.208, 9.573e-5
-1.209, 9.573e-5
-1.210, 9.573e-5
-1.211, 9.573e-5
-1.212, 9.573e-5
-1.213, 9.882e-5
-1.214, 9.882e-5
-1.215, 9.882e-5
-1.216, 9.573e-5
-1.217, 9.882e-5
-1.218, 9.882e-5
-1.219, 9.882e-5
-1.220, 9.882e-5
-1.221, 1.019e-4
-1.222, 1.019e-4
-1.223, 1.019e-4
-1.224, 1.019e-4
-1.225, 1.050e-4
-1.226, 1.019e-4
-1.227, 1.019e-4
-1.228, 1.050e-4
-1.229, 1.050e-4
-1.230, 1.050e-4
-1.231, 1.050e-4
-1.232, 1.050e-4
-1.233, 1.081e-4
-1.234, 1.081e-4
-1.235, 1.081e-4
-1.236, 1.081e-4
-1.237, 1.081e-4
-1.238, 1.111e-4
-1.239, 1.111e-4
-1.240, 1.111e-4
-1.241, 1.111e-4
-1.242, 1.142e-4
-1.243, 1.142e-4
-1.244, 1.142e-4
-1.245, 1.142e-4
-1.246, 1.173e-4
-1.247, 1.173e-4
-1.248, 1.173e-4
-1.249, 1.173e-4
-1.250, 1.173e-4
-1.251, 1.204e-4
-1.252, 1.204e-4
-1.253, 1.204e-4
-1.254, 1.235e-4
-1.255, 1.235e-4
-1.256, 1.266e-4
-1.257, 1.266e-4
-1.258, 1.266e-4
-1.259, 1.266e-4
-1.260, 1.296e-4
-1.261, 1.296e-4
-1.262, 1.296e-4
-1.263, 1.327e-4
-1.264, 1.327e-4
-1.265, 1.327e-4
-1.266, 1.358e-4
-1.267, 1.358e-4
-1.268, 1.389e-4
-1.269, 1.389e-4
-1.270, 1.420e-4
-1.271, 1.420e-4
-1.272, 1.420e-4
-1.273, 1.451e-4
-1.274, 1.451e-4
-1.275, 1.481e-4
-1.276, 1.481e-4
-1.277, 1.481e-4
-1.278, 1.512e-4
-1.279, 1.543e-4
-1.280, 1.543e-4
-1.281, 1.574e-4
-1.282, 1.574e-4
-1.283, 1.605e-4
-1.284, 1.605e-4
-1.285, 1.605e-4
-1.286, 1.636e-4
-1.287, 1.666e-4
-1.288, 1.666e-4
-1.289, 1.697e-4
-1.290, 1.728e-4
-1.291, 1.728e-4
-1.292, 1.759e-4
-1.293, 1.759e-4
-1.294, 1.790e-4
-1.295, 1.821e-4
-1.296, 1.821e-4
-1.297, 1.851e-4
-1.298, 1.882e-4
-1.299, 1.882e-4
-1.300, 1.913e-4
-1.301, 1.944e-4
-1.302, 1.975e-4
-1.303, 2.006e-4
-1.304, 2.006e-4
-1.305, 2.036e-4
-1.306, 2.067e-4
-1.307, 2.098e-4
-1.308, 2.098e-4
-1.309, 2.129e-4
-1.310, 2.160e-4
-1.311, 2.191e-4
-1.312, 2.191e-4
-1.313, 2.221e-4
-1.314, 2.252e-4
-1.315, 2.283e-4
-1.316, 2.314e-4
-1.317, 2.345e-4
-1.318, 2.376e-4
-1.319, 2.406e-4
-1.320, 2.406e-4
-1.321, 2.437e-4
-1.322, 2.499e-4
-1.323, 2.499e-4
-1.324, 2.561e-4
-1.325, 2.591e-4
-1.326, 2.591e-4
-1.327, 2.653e-4
-1.328, 2.684e-4
-1.329, 2.715e-4
-1.330, 2.746e-4
-1.331, 2.776e-4
-1.332, 2.807e-4
-1.333, 2.838e-4
-1.334, 2.900e-4
-1.335, 2.931e-4
-1.336, 2.961e-4
-1.337, 2.992e-4
-1.338, 3.054e-4
-1.339, 3.085e-4
-1.340, 3.115e-4
-1.341, 3.177e-4
-1.342, 3.208e-4
-1.343, 3.239e-4
-1.344, 3.270e-4
-1.345, 3.331e-4
-1.346, 3.362e-4
-1.347, 3.393e-4
-1.348, 3.455e-4
-1.349, 3.485e-4
-1.350, 3.547e-4
-1.351, 3.578e-4
-1.352, 3.640e-4
-1.353, 3.701e-4
-1.354, 3.732e-4
-1.355, 3.763e-4
-1.356, 3.825e-4
-1.357, 3.855e-4
-1.358, 3.917e-4
-1.359, 3.979e-4
-1.360, 4.010e-4
-1.361, 4.040e-4
-1.362, 4.133e-4
-1.363, 4.164e-4
-1.364, 4.225e-4
-1.365, 4.256e-4
-1.366, 4.318e-4
-1.367, 4.380e-4
-1.368, 4.410e-4
-1.369, 4.472e-4
-1.370, 4.534e-4
-1.371, 4.565e-4
-1.372, 4.657e-4
-1.373, 4.719e-4
-1.374, 4.750e-4
-1.375, 4.811e-4
-1.376, 4.873e-4
-1.377, 4.935e-4
-1.378, 4.996e-4
-1.379, 5.058e-4
-1.380, 5.120e-4
-1.381, 5.181e-4
-1.382, 5.243e-4
-1.383, 5.335e-4
-1.384, 5.366e-4
-1.385, 5.428e-4
-1.386, 5.489e-4
-1.387, 5.582e-4
-1.388, 5.644e-4
-1.389, 5.705e-4
-1.390, 5.767e-4
-1.391, 5.829e-4
-1.392, 5.890e-4
-1.393, 5.952e-4
-1.394, 6.044e-4
-1.395, 6.106e-4
-1.396, 6.199e-4
-1.397, 6.260e-4
-1.398, 6.322e-4
-1.399, 6.384e-4
-1.400, 6.476e-4
-1.401, 6.538e-4
-1.402, 6.630e-4
-1.403, 6.692e-4
-1.404, 6.754e-4
-1.405, 6.846e-4
-1.406, 6.908e-4
-1.407, 7.000e-4
-1.408, 7.093e-4
-1.409, 7.154e-4
-1.410, 7.247e-4
-1.411, 7.309e-4
-1.412, 7.401e-4
-1.413, 7.494e-4
-1.414, 7.555e-4
-1.415, 7.648e-4
-1.416, 7.709e-4
-1.417, 7.802e-4
-1.418, 7.894e-4
-1.419, 7.987e-4
-1.420, 8.079e-4
-1.421, 8.141e-4
-1.422, 8.233e-4
-1.423, 8.326e-4
-1.424, 8.418e-4
-1.425, 8.511e-4
-1.426, 8.603e-4
-1.427, 8.696e-4
-1.428, 8.788e-4
-1.429, 8.850e-4
-1.430, 8.973e-4
-1.431, 9.066e-4
-1.432, 9.158e-4
-1.433, 9.251e-4
-1.434, 9.343e-4
-1.435, 9.436e-4
-1.436, 9.528e-4
-1.437, 9.652e-4
-1.438, 9.744e-4
-1.439, 9.837e-4
-1.440, 9.929e-4
-1.441, 1.002e-3
-1.442, 1.011e-3
-1.443, 1.024e-3
-1.444, 1.036e-3
-1.445, 1.042e-3
-1.446, 1.055e-3
-1.447, 1.067e-3
-1.448, 1.076e-3
-1.449, 1.085e-3
-1.450, 1.098e-3
-1.451, 1.110e-3
-1.452, 1.119e-3
-1.453, 1.132e-3
-1.454, 1.144e-3
-1.455, 1.153e-3
-1.456, 1.166e-3
-1.457, 1.175e-3
-1.458, 1.187e-3
-1.459, 1.199e-3
-1.460, 1.212e-3
-1.461, 1.221e-3
-1.462, 1.233e-3
-1.463, 1.246e-3
-1.464, 1.258e-3
-1.465, 1.270e-3
-1.466, 1.280e-3
-1.467, 1.292e-3
-1.468, 1.307e-3
-1.469, 1.320e-3
-1.470, 1.332e-3
-1.471, 1.344e-3
-1.472, 1.357e-3
-1.473, 1.369e-3
-1.474, 1.381e-3
-1.475, 1.394e-3
-1.476, 1.406e-3
-1.477, 1.418e-3
-1.478, 1.434e-3
-1.479, 1.446e-3
-1.480, 1.462e-3
-1.481, 1.474e-3
-1.482, 1.486e-3
-1.483, 1.502e-3
-1.484, 1.514e-3
-1.485, 1.529e-3
-1.486, 1.545e-3
-1.487, 1.557e-3
-1.488, 1.573e-3
-1.489, 1.585e-3
-1.490, 1.600e-3
-1.491, 1.616e-3
-1.492, 1.631e-3
-1.493, 1.647e-3
-1.494, 1.659e-3
-1.495, 1.677e-3
-1.496, 1.690e-3
-1.497, 1.705e-3
-1.498, 1.721e-3
-1.499, 1.736e-3
-1.500, 1.754e-3
-1.501, 1.770e-3
-1.502, 1.785e-3
-1.503, 1.801e-3
-1.504, 1.816e-3
-1.505, 1.835e-3
-1.506, 1.850e-3
-1.507, 1.865e-3
-1.508, 1.884e-3
-1.509, 1.899e-3
-1.510, 1.918e-3
-1.511, 1.933e-3
-1.512, 1.952e-3
-1.513, 1.967e-3
-1.514, 1.986e-3
-1.515, 2.004e-3
-1.516, 2.023e-3
-1.517, 2.041e-3
-1.518, 2.060e-3
-1.519, 2.078e-3
-1.520, 2.094e-3
-1.521, 2.115e-3
-1.522, 2.134e-3
-1.523, 2.152e-3
-1.524, 2.171e-3
-1.525, 2.189e-3
-1.526, 2.211e-3
-1.527, 2.232e-3
-1.528, 2.251e-3
-1.529, 2.272e-3
-1.530, 2.291e-3
-1.531, 2.309e-3
-1.532, 2.331e-3
-1.533, 2.353e-3
-1.534, 2.374e-3
-1.535, 2.396e-3
-1.536, 2.417e-3
-1.537, 2.439e-3
-1.538, 2.460e-3
-1.539, 2.482e-3
-1.540, 2.504e-3
-1.541, 2.528e-3
-1.542, 2.550e-3
-1.543, 2.575e-3
-1.544, 2.593e-3
-1.545, 2.618e-3
-1.546, 2.639e-3
-1.547, 2.664e-3
-1.548, 2.689e-3
-1.549, 2.713e-3
-1.550, 2.738e-3
-1.551, 2.763e-3
-1.552, 2.787e-3
-1.553, 2.809e-3
-1.554, 2.834e-3
-1.555, 2.855e-3
-1.556, 2.880e-3
-1.557, 2.908e-3
-1.558, 2.932e-3
-1.559, 2.957e-3
-1.560, 2.982e-3
-1.561, 3.006e-3
-1.562, 3.031e-3
-1.563, 3.059e-3
-1.564, 3.089e-3
-1.565, 3.117e-3
-1.566, 3.145e-3
-1.567, 3.170e-3
-1.568, 3.194e-3
-1.569, 3.222e-3
-1.570, 3.253e-3
-1.571, 3.284e-3
-1.572, 3.314e-3
-1.573, 3.345e-3
-1.574, 3.373e-3
-1.575, 3.398e-3
-1.576, 3.429e-3
-1.577, 3.462e-3
-1.578, 3.490e-3
-1.579, 3.524e-3
-1.580, 3.555e-3
-1.581, 3.583e-3
-1.582, 3.617e-3
-1.583, 3.647e-3
-1.584, 3.678e-3
-1.585, 3.712e-3
-1.586, 3.743e-3
-1.587, 3.774e-3
-1.588, 3.811e-3
-1.589, 3.842e-3
-1.590, 3.876e-3
-1.591, 3.910e-3
-1.592, 3.940e-3
-1.593, 3.977e-3
-1.594, 4.014e-3
-1.595, 4.051e-3
-1.596, 4.085e-3
-1.597, 4.119e-3
-1.598, 4.153e-3
-1.599, 4.187e-3
-1.600, 4.159e-3
-1.599, 4.085e-3
-1.598, 4.024e-3
-1.597, 3.965e-3
-1.596, 3.903e-3
-1.595, 3.848e-3
-1.594, 3.795e-3
-1.593, 3.749e-3
-1.592, 3.694e-3
-1.591, 3.641e-3
-1.590, 3.586e-3
-1.589, 3.530e-3
-1.588, 3.487e-3
-1.587, 3.441e-3
-1.586, 3.395e-3
-1.585, 3.345e-3
-1.584, 3.296e-3
-1.583, 3.247e-3
-1.582, 3.207e-3
-1.581, 3.163e-3
-1.580, 3.120e-3
-1.579, 3.077e-3
-1.578, 3.031e-3
-1.577, 2.991e-3
-1.576, 2.951e-3
-1.575, 2.908e-3
-1.574, 2.867e-3
-1.573, 2.827e-3
-1.572, 2.787e-3
-1.571, 2.750e-3
-1.570, 2.713e-3
-1.569, 2.676e-3
-1.568, 2.639e-3
-1.567, 2.605e-3
-1.566, 2.568e-3
-1.565, 2.534e-3
-1.564, 2.497e-3
-1.563, 2.464e-3
-1.562, 2.430e-3
-1.561, 2.396e-3
-1.560, 2.362e-3
-1.559, 2.331e-3
-1.558, 2.297e-3
-1.557, 2.266e-3
-1.556, 2.235e-3
-1.555, 2.208e-3
-1.554, 2.174e-3
-1.553, 2.143e-3
-1.552, 2.115e-3
-1.551, 2.084e-3
-1.550, 2.060e-3
-1.549, 2.029e-3
-1.548, 2.001e-3
-1.547, 1.976e-3
-1.546, 1.949e-3
-1.545, 1.924e-3
-1.544, 1.899e-3
-1.543, 1.875e-3
-1.542, 1.847e-3
-1.541, 1.822e-3
-1.540, 1.798e-3
-1.539, 1.776e-3
-1.538, 1.751e-3
-1.537, 1.727e-3
-1.536, 1.705e-3
-1.535, 1.680e-3
-1.534, 1.659e-3
-1.533, 1.637e-3
-1.532, 1.616e-3
-1.531, 1.594e-3
-1.530, 1.573e-3
-1.529, 1.551e-3
-1.528, 1.532e-3
-1.527, 1.514e-3
-1.526, 1.492e-3
-1.525, 1.471e-3
-1.524, 1.452e-3
-1.523, 1.434e-3
-1.522, 1.415e-3
-1.521, 1.397e-3
-1.520, 1.378e-3
-1.519, 1.357e-3
-1.518, 1.341e-3
-1.517, 1.323e-3
-1.516, 1.304e-3
-1.515, 1.289e-3
-1.514, 1.270e-3
-1.513, 1.255e-3
-1.512, 1.240e-3
-1.511, 1.221e-3
-1.510, 1.206e-3
-1.509, 1.193e-3
-1.508, 1.178e-3
-1.507, 1.162e-3
-1.506, 1.147e-3
-1.505, 1.132e-3
-1.504, 1.116e-3
-1.503, 1.104e-3
-1.502, 1.088e-3
-1.501, 1.076e-3
-1.500, 1.061e-3
-1.499, 1.048e-3
-1.498, 1.033e-3
-1.497, 1.021e-3
-1.496, 1.008e-3
-1.495, 9.960e-4
-1.494, 9.837e-4
-1.493, 9.713e-4
-1.492, 9.559e-4
-1.491, 9.467e-4
-1.490, 9.343e-4
-1.489, 9.220e-4
-1.488, 9.097e-4
-1.487, 8.973e-4
-1.486, 8.850e-4
-1.485, 8.727e-4
-1.484, 8.603e-4
-1.483, 8.511e-4
-1.482, 8.418e-4
-1.481, 8.295e-4
-1.480, 8.203e-4
-1.479, 8.079e-4
-1.478, 7.987e-4
-1.477, 7.863e-4
-1.476, 7.771e-4
-1.475, 7.679e-4
-1.474, 7.586e-4
-1.473, 7.463e-4
-1.472, 7.370e-4
-1.471, 7.278e-4
-1.470, 7.185e-4
-1.469, 7.093e-4
-1.468, 7.000e-4
-1.467, 6.908e-4
-1.466, 6.815e-4
-1.465, 6.723e-4
-1.464, 6.661e-4
-1.463, 6.569e-4
-1.462, 6.476e-4
-1.461, 6.384e-4
-1.460, 6.291e-4
-1.459, 6.199e-4
-1.458, 6.137e-4
-1.457, 6.044e-4
-1.456, 5.983e-4
-1.455, 5.921e-4
-1.454, 5.829e-4
-1.453, 5.767e-4
-1.452, 5.674e-4
-1.451, 5.582e-4
-1.450, 5.551e-4
-1.449, 5.459e-4
-1.448, 5.397e-4
-1.447, 5.305e-4
-1.446, 5.243e-4
-1.445, 5.181e-4
-1.444, 5.089e-4
-1.443, 5.027e-4
-1.442, 4.965e-4
-1.441, 4.873e-4
-1.440, 4.811e-4
-1.439, 4.750e-4
-1.438, 4.688e-4
-1.437, 4.626e-4
-1.436, 4.565e-4
-1.435, 4.503e-4
-1.434, 4.441e-4
-1.433, 4.349e-4
-1.432, 4.287e-4
-1.431, 4.256e-4
-1.430, 4.195e-4
-1.429, 4.133e-4
-1.428, 4.071e-4
-1.427, 4.010e-4
-1.426, 3.948e-4
-1.425, 3.886e-4
-1.424, 3.825e-4
-1.423, 3.763e-4
-1.422, 3.701e-4
-1.421, 3.670e-4
-1.420, 3.609e-4
-1.419, 3.547e-4
-1.418, 3.485e-4
-1.417, 3.455e-4
-1.416, 3.393e-4
-1.415, 3.331e-4
-1.414, 3.270e-4
-1.413, 3.239e-4
-1.412, 3.177e-4
-1.411, 3.115e-4
-1.410, 3.085e-4
-1.409, 3.023e-4
-1.408, 2.961e-4
-1.407, 2.900e-4
-1.406, 2.869e-4
-1.405, 2.838e-4
-1.404, 2.776e-4
-1.403, 2.746e-4
-1.402, 2.684e-4
-1.401, 2.622e-4
-1.400, 2.591e-4
-1.399, 2.530e-4
-1.398, 2.499e-4
-1.397, 2.468e-4
-1.396, 2.406e-4
-1.395, 2.345e-4
-1.394, 2.314e-4
-1.393, 2.283e-4
-1.392, 2.221e-4
-1.391, 2.221e-4
-1.390, 2.160e-4
-1.389, 2.098e-4
-1.388, 2.067e-4
-1.387, 2.036e-4
-1.386, 2.006e-4
-1.385, 1.944e-4
-1.384, 1.913e-4
-1.383, 1.851e-4
-1.382, 1.821e-4
-1.381, 1.790e-4
-1.380, 1.759e-4
-1.379, 1.728e-4
-1.378, 1.697e-4
-1.377, 1.636e-4
-1.376, 1.605e-4
-1.375, 1.574e-4
-1.374, 1.543e-4
-1.373, 1.512e-4
-1.372, 1.451e-4
-1.371, 1.420e-4
-1.370, 1.389e-4
-1.369, 1.358e-4
-1.368, 1.358e-4
-1.367, 1.296e-4
-1.366, 1.266e-4
-1.365, 1.235e-4
-1.364, 1.204e-4
-1.363, 1.173e-4
-1.362, 1.142e-4
-1.361, 1.081e-4
-1.360, 1.081e-4
-1.359, 1.050e-4
-1.358, 1.019e-4
-1.357, 9.882e-5
-1.356, 9.265e-5
-1.355, 8.957e-5
-1.354, 8.957e-5
-1.353, 8.340e-5
-1.352, 8.340e-5
-1.351, 8.032e-5
-1.350, 7.723e-5
-1.349, 7.415e-5
-1.348, 7.107e-5
-1.347, 6.798e-5
-1.346, 6.798e-5
-1.345, 6.182e-5
-1.344, 5.873e-5
-1.343, 5.565e-5
-1.342, 5.565e-5
-1.341, 5.257e-5
-1.340, 4.949e-5
-1.339, 4.640e-5
-1.338, 4.332e-5
-1.337, 4.024e-5
-1.336, 4.024e-5
-1.335, 3.715e-5
-1.334, 3.407e-5
-1.333, 3.099e-5
-1.332, 2.790e-5
-1.331, 2.790e-5
-1.330, 2.482e-5
-1.329, 2.174e-5
-1.328, 1.865e-5
-1.327, 1.557e-5
-1.326, 1.557e-5
-1.325, 1.249e-5
-1.324, 9.405e-6
-1.323, 6.322e-6
-1.322, 6.322e-6
-1.321, 3.239e-6
-1.320, 3.239e-6
-1.319, 1.559e-7
-1.318, -2.927e-6
-1.317, -2.927e-6
-1.316, -6.010e-6
-1.315, -9.093e-6
-1.314, -9.093e-6
-1.313, -1.218e-5
-1.312, -1.526e-5
-1.311, -1.526e-5
-1.310, -1.834e-5
-1.309, -1.834e-5
-1.308, -2.143e-5
-1.307, -2.451e-5
-1.306, -2.451e-5
-1.305, -2.759e-5
-1.304, -2.759e-5
-1.303, -2.759e-5
-1.302, -3.068e-5
-1.301, -3.068e-5
-1.300, -3.376e-5
-1.299, -3.684e-5
-1.298, -3.684e-5
-1.297, -3.992e-5
-1.296, -4.301e-5
-1.295, -4.301e-5
-1.294, -4.301e-5
-1.293, -4.609e-5
-1.292, -4.609e-5
-1.291, -4.917e-5
-1.290, -4.917e-5
-1.289, -4.917e-5
-1.288, -5.226e-5
-1.287, -5.226e-5
-1.286, -5.534e-5
-1.285, -5.534e-5
-1.284, -5.534e-5
-1.283, -5.842e-5
-1.282, -5.842e-5
-1.281, -5.842e-5
-1.280, -6.151e-5
-1.279, -6.459e-5
-1.278, -6.459e-5
-1.277, -6.459e-5
-1.276, -6.767e-5
-1.275, -6.767e-5
-1.274, -6.767e-5
-1.273, -7.076e-5
-1.272, -7.076e-5
-1.271, -7.076e-5
-1.270, -7.076e-5
-1.269, -7.384e-5
-1.268, -7.384e-5
-1.267, -7.384e-5
-1.266, -7.692e-5
-1.265, -7.692e-5
-1.264, -7.692e-5
-1.263, -7.692e-5
-1.262, -8.000e-5
-1.261, -8.000e-5
-1.260, -8.000e-5
-1.259, -8.309e-5
-1.258, -8.309e-5
-1.257, -8.309e-5
-1.256, -8.309e-5
-1.255, -8.617e-5
-1.254, -8.617e-5
-1.253, -8.617e-5
-1.252, -8.617e-5
-1.251, -8.617e-5
-1.250, -8.617e-5
-1.249, -8.925e-5
-1.248, -8.925e-5
-1.247, -8.925e-5
-1.246, -8.925e-5
-1.245, -8.925e-5
-1.244, -9.234e-5
-1.243, -9.234e-5
-1.242, -9.234e-5
-1.241, -9.234e-5
-1.240, -9.234e-5
-1.239, -9.542e-5
-1.238, -9.542e-5
-1.237, -9.542e-5
-1.236, -9.542e-5
-1.235, -9.542e-5
-1.234, -9.542e-5
-1.233, -9.850e-5
-1.232, -9.542e-5
-1.231, -9.850e-5
-1.230, -9.850e-5
-1.229, -9.850e-5
-1.228, -9.850e-5
-1.227, -9.850e-5
-1.226, -9.850e-5
-1.225, -1.016e-4
-1.224, -9.850e-5
-1.223, -9.850e-5
-1.222, -1.016e-4
-1.221, -1.016e-4
-1.220, -1.016e-4
-1.219, -1.016e-4
-1.218, -1.016e-4
-1.217, -1.016e-4
-1.216, -1.016e-4
-1.215, -1.016e-4
-1.214, -1.016e-4
-1.213, -1.016e-4
-1.212, -1.047e-4
-1.211, -1.016e-4
-1.210, -1.016e-4
-1.209, -1.047e-4
-1.208, -1.016e-4
-1.207, -1.016e-4
-1.206, -1.047e-4
-1.205, -1.016e-4
-1.204, -1.047e-4
-1.203, -1.047e-4
-1.202, -1.047e-4
-1.201, -1.047e-4
-1.200, -1.047e-4
-1.199, -1.047e-4
-1.198, -1.047e-4
-1.197, -1.047e-4
-1.196, -1.047e-4
-1.195, -1.047e-4
-1.194, -1.047e-4
-1.193, -1.047e-4
-1.192, -1.047e-4
-1.191, -1.047e-4
-1.190, -1.078e-4
-1.189, -1.047e-4
-1.188, -1.078e-4
-1.187, -1.078e-4
-1.186, -1.078e-4
-1.185, -1.078e-4
-1.184, -1.078e-4
-1.183, -1.078e-4
-1.182, -1.078e-4
-1.181, -1.078e-4
-1.180, -1.078e-4
-1.179, -1.078e-4
-1.178, -1.078e-4
-1.177, -1.078e-4
-1.176, -1.078e-4
-1.175, -1.078e-4
-1.174, -1.078e-4
-1.173, -1.078e-4
-1.172, -1.078e-4
-1.171, -1.078e-4
-1.170, -1.078e-4
-1.169, -1.078e-4
-1.168, -1.078e-4
-1.167, -1.078e-4
-1.166, -1.078e-4
-1.165, -1.078e-4
-1.164, -1.078e-4
-1.163, -1.078e-4
-1.162, -1.047e-4
-1.161, -1.078e-4
-1.160, -1.078e-4
-1.159, -1.078e-4
-1.158, -1.078e-4
-1.157, -1.078e-4
-1.156, -1.078e-4
-1.155, -1.078e-4
-1.154, -1.078e-4
-1.153, -1.078e-4
-1.152, -1.078e-4
-1.151, -1.078e-4
-1.150, -1.047e-4
-1.149, -1.078e-4
-1.148, -1.078e-4
-1.147, -1.078e-4
-1.146, -1.078e-4
-1.145, -1.078e-4
-1.144, -1.078e-4
-1.143, -1.078e-4
-1.142, -1.078e-4
-1.141, -1.078e-4
-1.140, -1.078e-4
-1.139, -1.078e-4
-1.138, -1.078e-4
-1.137, -1.078e-4
-1.136, -1.078e-4
-1.135, -1.078e-4
-1.134, -1.078e-4
-1.133, -1.078e-4
-1.132, -1.078e-4
-1.131, -1.078e-4
-1.130, -1.078e-4
-1.129, -1.078e-4
-1.128, -1.078e-4
-1.127, -1.078e-4
-1.126, -1.078e-4
-1.125, -1.078e-4
-1.124, -1.078e-4
-1.123, -1.078e-4
-1.122, -1.078e-4
-1.121, -1.078e-4
-1.120, -1.078e-4
-1.119, -1.078e-4
-1.118, -1.078e-4
-1.117, -1.078e-4
-1.116, -1.078e-4
-1.115, -1.078e-4
-1.114, -1.078e-4
-1.113, -1.078e-4
-1.112, -1.078e-4
-1.111, -1.078e-4
-1.110, -1.078e-4
-1.109, -1.078e-4
-1.108, -1.078e-4
-1.107, -1.078e-4
-1.106, -1.078e-4
-1.105, -1.078e-4
-1.104, -1.078e-4
-1.103, -1.078e-4
-1.102, -1.078e-4
-1.101, -1.078e-4
-1.100, -1.078e-4
-1.099, -1.078e-4
-1.098, -1.078e-4
-1.097, -1.078e-4
-1.096, -1.078e-4
-1.095, -1.078e-4
-1.094, -1.078e-4
-1.093, -1.078e-4
-1.092, -1.108e-4
-1.091, -1.078e-4
-1.090, -1.078e-4
-1.089, -1.078e-4
-1.088, -1.078e-4
-1.087, -1.078e-4
-1.086, -1.078e-4
-1.085, -1.078e-4
-1.084, -1.108e-4
-1.083, -1.108e-4
-1.082, -1.078e-4
-1.081, -1.078e-4
-1.080, -1.078e-4
-1.079, -1.078e-4
-1.078, -1.108e-4
-1.077, -1.078e-4
-1.076, -1.108e-4
-1.075, -1.108e-4
-1.074, -1.108e-4
-1.073, -1.108e-4
-1.072, -1.108e-4
-1.071, -1.078e-4
-1.070, -1.108e-4
-1.069, -1.078e-4
-1.068, -1.108e-4
-1.067, -1.108e-4
-1.066, -1.108e-4
-1.065, -1.108e-4
-1.064, -1.108e-4
-1.063, -1.108e-4
-1.062, -1.108e-4
-1.061, -1.108e-4
-1.060, -1.108e-4
-1.059, -1.108e-4
-1.058, -1.108e-4
-1.057, -1.139e-4
-1.056, -1.108e-4
-1.055, -1.108e-4
-1.054, -1.108e-4
-1.053, -1.108e-4
-1.052, -1.139e-4
-1.051, -1.139e-4
-1.050, -1.108e-4
-1.049, -1.139e-4
-1.048, -1.108e-4
-1.047, -1.139e-4
-1.046, -1.139e-4
-1.045, -1.139e-4
-1.044, -1.139e-4
-1.043, -1.139e-4
-1.042, -1.139e-4
-1.041, -1.139e-4
-1.040, -1.139e-4
-1.039, -1.139e-4
-1.038, -1.139e-4
-1.037, -1.139e-4
-1.036, -1.170e-4
-1.035, -1.139e-4
-1.034, -1.139e-4
-1.033, -1.139e-4
-1.032, -1.139e-4
-1.031, -1.170e-4
-1.030, -1.170e-4
-1.029, -1.170e-4
-1.028, -1.170e-4
-1.027, -1.170e-4
-1.026, -1.170e-4
-1.025, -1.201e-4
-1.024, -1.201e-4
-1.023, -1.170e-4
-1.022, -1.201e-4
-1.021, -1.170e-4
-1.020, -1.201e-4
-1.019, -1.201e-4
-1.018, -1.201e-4
-1.017, -1.201e-4
-1.016, -1.201e-4
-1.015, -1.232e-4
-1.014, -1.232e-4
-1.013, -1.232e-4
-1.012, -1.232e-4
-1.011, -1.232e-4
-1.010, -1.232e-4
-1.009, -1.232e-4
-1.008, -1.263e-4
-1.007, -1.232e-4
-1.006, -1.263e-4
-1.005, -1.263e-4
-1.004, -1.293e-4
-1.003, -1.263e-4
-1.002, -1.263e-4
-1.001, -1.293e-4
