Apr. 9, 2025   12:17:52
Cyclic Voltammetry
File: c:/users/guazh/data/banditlqround7_x0exp994_r5/2025-03-28-exp1028\exp1028-2025-04-09t11_54_44-h2koh\exp1028_cv_sr_400mvs_efin_-1800mv.bin
Data Source:  Experiment
Instrument Model:  CHI760E
Header: CV ran at 400 mVs
Note: 

Init E (V) = -1
High E (V) = -1
Low E (V) = -1.8
Final E (V) = -1
Init P/N = N
Scan Rate (V/s) = 0.4
Segment = 3
Sample Interval (V) = 0.001
Quiet Time (sec) = 2
Sensitivity (A/V) = 0.01
Comp R (ohm) = 1.7

Results:

Channel 1:
Segment 1:
Ep = -1.260V
ip = 1.718e-5A
Ah = 2.270e-6C

Segment 2:

Segment 3:

Potential/V, Current/A

-1.000, 1.557e-5
-1.001, 5.565e-5
-1.002, 6.798e-5
-1.003, 7.723e-5
-1.004, 8.340e-5
-1.005, 8.648e-5
-1.006, 9.265e-5
-1.007, 9.573e-5
-1.008, 1.019e-4
-1.009, 1.050e-4
-1.010, 1.050e-4
-1.011, 1.050e-4
-1.012, 1.081e-4
-1.013, 1.111e-4
-1.014, 1.142e-4
-1.015, 1.173e-4
-1.016, 1.173e-4
-1.017, 1.204e-4
-1.018, 1.204e-4
-1.019, 1.204e-4
-1.020, 1.235e-4
-1.021, 1.266e-4
-1.022, 1.266e-4
-1.023, 1.296e-4
-1.024, 1.296e-4
-1.025, 1.296e-4
-1.026, 1.296e-4
-1.027, 1.327e-4
-1.028, 1.358e-4
-1.029, 1.358e-4
-1.030, 1.358e-4
-1.031, 1.358e-4
-1.032, 1.389e-4
-1.033, 1.420e-4
-1.034, 1.420e-4
-1.035, 1.420e-4
-1.036, 1.451e-4
-1.037, 1.451e-4
-1.038, 1.451e-4
-1.039, 1.451e-4
-1.040, 1.481e-4
-1.041, 1.481e-4
-1.042, 1.512e-4
-1.043, 1.481e-4
-1.044, 1.512e-4
-1.045, 1.512e-4
-1.046, 1.512e-4
-1.047, 1.543e-4
-1.048, 1.543e-4
-1.049, 1.574e-4
-1.050, 1.543e-4
-1.051, 1.543e-4
-1.052, 1.543e-4
-1.053, 1.574e-4
-1.054, 1.605e-4
-1.055, 1.605e-4
-1.056, 1.605e-4
-1.057, 1.605e-4
-1.058, 1.605e-4
-1.059, 1.605e-4
-1.060, 1.605e-4
-1.061, 1.636e-4
-1.062, 1.666e-4
-1.063, 1.666e-4
-1.064, 1.636e-4
-1.065, 1.636e-4
-1.066, 1.636e-4
-1.067, 1.666e-4
-1.068, 1.666e-4
-1.069, 1.697e-4
-1.070, 1.666e-4
-1.071, 1.666e-4
-1.072, 1.666e-4
-1.073, 1.697e-4
-1.074, 1.697e-4
-1.075, 1.728e-4
-1.076, 1.728e-4
-1.077, 1.697e-4
-1.078, 1.697e-4
-1.079, 1.697e-4
-1.080, 1.697e-4
-1.081, 1.728e-4
-1.082, 1.728e-4
-1.083, 1.728e-4
-1.084, 1.728e-4
-1.085, 1.697e-4
-1.086, 1.728e-4
-1.087, 1.728e-4
-1.088, 1.759e-4
-1.089, 1.759e-4
-1.090, 1.759e-4
-1.091, 1.728e-4
-1.092, 1.728e-4
-1.093, 1.728e-4
-1.094, 1.759e-4
-1.095, 1.759e-4
-1.096, 1.759e-4
-1.097, 1.759e-4
-1.098, 1.759e-4
-1.099, 1.728e-4
-1.100, 1.759e-4
-1.101, 1.759e-4
-1.102, 1.759e-4
-1.103, 1.759e-4
-1.104, 1.759e-4
-1.105, 1.728e-4
-1.106, 1.759e-4
-1.107, 1.759e-4
-1.108, 1.790e-4
-1.109, 1.759e-4
-1.110, 1.759e-4
-1.111, 1.759e-4
-1.112, 1.759e-4
-1.113, 1.759e-4
-1.114, 1.790e-4
-1.115, 1.790e-4
-1.116, 1.790e-4
-1.117, 1.759e-4
-1.118, 1.759e-4
-1.119, 1.759e-4
-1.120, 1.759e-4
-1.121, 1.790e-4
-1.122, 1.790e-4
-1.123, 1.790e-4
-1.124, 1.759e-4
-1.125, 1.790e-4
-1.126, 1.759e-4
-1.127, 1.790e-4
-1.128, 1.790e-4
-1.129, 1.790e-4
-1.130, 1.790e-4
-1.131, 1.790e-4
-1.132, 1.790e-4
-1.133, 1.790e-4
-1.134, 1.790e-4
-1.135, 1.790e-4
-1.136, 1.821e-4
-1.137, 1.790e-4
-1.138, 1.790e-4
-1.139, 1.790e-4
-1.140, 1.790e-4
-1.141, 1.821e-4
-1.142, 1.821e-4
-1.143, 1.821e-4
-1.144, 1.790e-4
-1.145, 1.790e-4
-1.146, 1.790e-4
-1.147, 1.821e-4
-1.148, 1.821e-4
-1.149, 1.821e-4
-1.150, 1.821e-4
-1.151, 1.821e-4
-1.152, 1.790e-4
-1.153, 1.821e-4
-1.154, 1.821e-4
-1.155, 1.821e-4
-1.156, 1.851e-4
-1.157, 1.821e-4
-1.158, 1.821e-4
-1.159, 1.821e-4
-1.160, 1.821e-4
-1.161, 1.851e-4
-1.162, 1.851e-4
-1.163, 1.821e-4
-1.164, 1.821e-4
-1.165, 1.821e-4
-1.166, 1.821e-4
-1.167, 1.851e-4
-1.168, 1.851e-4
-1.169, 1.851e-4
-1.170, 1.851e-4
-1.171, 1.851e-4
-1.172, 1.821e-4
-1.173, 1.851e-4
-1.174, 1.851e-4
-1.175, 1.851e-4
-1.176, 1.851e-4
-1.177, 1.851e-4
-1.178, 1.851e-4
-1.179, 1.851e-4
-1.180, 1.851e-4
-1.181, 1.882e-4
-1.182, 1.882e-4
-1.183, 1.882e-4
-1.184, 1.851e-4
-1.185, 1.851e-4
-1.186, 1.851e-4
-1.187, 1.882e-4
-1.188, 1.913e-4
-1.189, 1.882e-4
-1.190, 1.882e-4
-1.191, 1.882e-4
-1.192, 1.882e-4
-1.193, 1.882e-4
-1.194, 1.913e-4
-1.195, 1.913e-4
-1.196, 1.913e-4
-1.197, 1.882e-4
-1.198, 1.882e-4
-1.199, 1.882e-4
-1.200, 1.913e-4
-1.201, 1.913e-4
-1.202, 1.913e-4
-1.203, 1.913e-4
-1.204, 1.913e-4
-1.205, 1.913e-4
-1.206, 1.913e-4
-1.207, 1.913e-4
-1.208, 1.944e-4
-1.209, 1.944e-4
-1.210, 1.944e-4
-1.211, 1.913e-4
-1.212, 1.913e-4
-1.213, 1.944e-4
-1.214, 1.944e-4
-1.215, 1.944e-4
-1.216, 1.944e-4
-1.217, 1.944e-4
-1.218, 1.944e-4
-1.219, 1.944e-4
-1.220, 1.944e-4
-1.221, 1.975e-4
-1.222, 1.975e-4
-1.223, 1.975e-4
-1.224, 1.944e-4
-1.225, 1.975e-4
-1.226, 1.975e-4
-1.227, 1.975e-4
-1.228, 2.006e-4
-1.229, 2.006e-4
-1.230, 2.006e-4
-1.231, 1.975e-4
-1.232, 1.975e-4
-1.233, 2.006e-4
-1.234, 2.006e-4
-1.235, 2.006e-4
-1.236, 2.006e-4
-1.237, 2.006e-4
-1.238, 2.006e-4
-1.239, 2.006e-4
-1.240, 2.006e-4
-1.241, 2.036e-4
-1.242, 2.006e-4
-1.243, 2.006e-4
-1.244, 2.006e-4
-1.245, 2.006e-4
-1.246, 2.006e-4
-1.247, 2.036e-4
-1.248, 2.036e-4
-1.249, 2.036e-4
-1.250, 2.036e-4
-1.251, 2.006e-4
-1.252, 2.006e-4
-1.253, 2.036e-4
-1.254, 2.036e-4
-1.255, 2.036e-4
-1.256, 2.036e-4
-1.257, 2.036e-4
-1.258, 2.036e-4
-1.259, 2.036e-4
-1.260, 2.067e-4
-1.261, 2.067e-4
-1.262, 2.067e-4
-1.263, 2.036e-4
-1.264, 2.036e-4
-1.265, 2.036e-4
-1.266, 2.036e-4
-1.267, 2.036e-4
-1.268, 2.067e-4
-1.269, 2.067e-4
-1.270, 2.036e-4
-1.271, 2.036e-4
-1.272, 2.036e-4
-1.273, 2.036e-4
-1.274, 2.067e-4
-1.275, 2.036e-4
-1.276, 2.067e-4
-1.277, 2.067e-4
-1.278, 2.036e-4
-1.279, 2.036e-4
-1.280, 2.036e-4
-1.281, 2.067e-4
-1.282, 2.067e-4
-1.283, 2.036e-4
-1.284, 2.036e-4
-1.285, 2.036e-4
-1.286, 2.036e-4
-1.287, 2.036e-4
-1.288, 2.067e-4
-1.289, 2.036e-4
-1.290, 2.036e-4
-1.291, 2.036e-4
-1.292, 2.006e-4
-1.293, 2.006e-4
-1.294, 2.036e-4
-1.295, 2.036e-4
-1.296, 2.036e-4
-1.297, 2.036e-4
-1.298, 2.006e-4
-1.299, 2.006e-4
-1.300, 2.036e-4
-1.301, 2.006e-4
-1.302, 2.006e-4
-1.303, 2.006e-4
-1.304, 2.006e-4
-1.305, 2.006e-4
-1.306, 2.006e-4
-1.307, 2.006e-4
-1.308, 2.006e-4
-1.309, 2.006e-4
-1.310, 1.975e-4
-1.311, 1.975e-4
-1.312, 1.975e-4
-1.313, 2.006e-4
-1.314, 2.006e-4
-1.315, 2.006e-4
-1.316, 1.975e-4
-1.317, 1.975e-4
-1.318, 1.975e-4
-1.319, 1.975e-4
-1.320, 1.975e-4
-1.321, 1.975e-4
-1.322, 1.975e-4
-1.323, 1.975e-4
-1.324, 1.975e-4
-1.325, 1.975e-4
-1.326, 1.944e-4
-1.327, 1.944e-4
-1.328, 1.975e-4
-1.329, 1.975e-4
-1.330, 1.944e-4
-1.331, 1.944e-4
-1.332, 1.944e-4
-1.333, 1.944e-4
-1.334, 1.944e-4
-1.335, 1.944e-4
-1.336, 1.944e-4
-1.337, 1.944e-4
-1.338, 1.913e-4
-1.339, 1.913e-4
-1.340, 1.944e-4
-1.341, 1.944e-4
-1.342, 1.944e-4
-1.343, 1.944e-4
-1.344, 1.913e-4
-1.345, 1.913e-4
-1.346, 1.913e-4
-1.347, 1.913e-4
-1.348, 1.944e-4
-1.349, 1.944e-4
-1.350, 1.944e-4
-1.351, 1.913e-4
-1.352, 1.913e-4
-1.353, 1.913e-4
-1.354, 1.944e-4
-1.355, 1.944e-4
-1.356, 1.913e-4
-1.357, 1.913e-4
-1.358, 1.882e-4
-1.359, 1.913e-4
-1.360, 1.913e-4
-1.361, 1.944e-4
-1.362, 1.913e-4
-1.363, 1.913e-4
-1.364, 1.913e-4
-1.365, 1.882e-4
-1.366, 1.913e-4
-1.367, 1.913e-4
-1.368, 1.913e-4
-1.369, 1.913e-4
-1.370, 1.913e-4
-1.371, 1.882e-4
-1.372, 1.913e-4
-1.373, 1.913e-4
-1.374, 1.913e-4
-1.375, 1.913e-4
-1.376, 1.913e-4
-1.377, 1.913e-4
-1.378, 1.913e-4
-1.379, 1.913e-4
-1.380, 1.913e-4
-1.381, 1.944e-4
-1.382, 1.944e-4
-1.383, 1.913e-4
-1.384, 1.913e-4
-1.385, 1.913e-4
-1.386, 1.944e-4
-1.387, 1.944e-4
-1.388, 1.944e-4
-1.389, 1.944e-4
-1.390, 1.913e-4
-1.391, 1.944e-4
-1.392, 1.913e-4
-1.393, 1.944e-4
-1.394, 1.944e-4
-1.395, 1.944e-4
-1.396, 1.975e-4
-1.397, 1.944e-4
-1.398, 1.975e-4
-1.399, 1.975e-4
-1.400, 1.975e-4
-1.401, 1.975e-4
-1.402, 2.006e-4
-1.403, 1.975e-4
-1.404, 2.006e-4
-1.405, 1.975e-4
-1.406, 2.006e-4
-1.407, 2.006e-4
-1.408, 2.006e-4
-1.409, 2.036e-4
-1.410, 2.036e-4
-1.411, 2.006e-4
-1.412, 2.006e-4
-1.413, 2.036e-4
-1.414, 2.036e-4
-1.415, 2.067e-4
-1.416, 2.067e-4
-1.417, 2.036e-4
-1.418, 2.036e-4
-1.419, 2.067e-4
-1.420, 2.098e-4
-1.421, 2.098e-4
-1.422, 2.098e-4
-1.423, 2.129e-4
-1.424, 2.098e-4
-1.425, 2.129e-4
-1.426, 2.129e-4
-1.427, 2.160e-4
-1.428, 2.160e-4
-1.429, 2.160e-4
-1.430, 2.191e-4
-1.431, 2.191e-4
-1.432, 2.191e-4
-1.433, 2.191e-4
-1.434, 2.252e-4
-1.435, 2.252e-4
-1.436, 2.252e-4
-1.437, 2.252e-4
-1.438, 2.252e-4
-1.439, 2.283e-4
-1.440, 2.283e-4
-1.441, 2.314e-4
-1.442, 2.314e-4
-1.443, 2.314e-4
-1.444, 2.314e-4
-1.445, 2.345e-4
-1.446, 2.345e-4
-1.447, 2.406e-4
-1.448, 2.406e-4
-1.449, 2.406e-4
-1.450, 2.406e-4
-1.451, 2.406e-4
-1.452, 2.437e-4
-1.453, 2.468e-4
-1.454, 2.468e-4
-1.455, 2.499e-4
-1.456, 2.499e-4
-1.457, 2.530e-4
-1.458, 2.530e-4
-1.459, 2.561e-4
-1.460, 2.561e-4
-1.461, 2.622e-4
-1.462, 2.622e-4
-1.463, 2.622e-4
-1.464, 2.653e-4
-1.465, 2.653e-4
-1.466, 2.684e-4
-1.467, 2.715e-4
-1.468, 2.746e-4
-1.469, 2.746e-4
-1.470, 2.776e-4
-1.471, 2.776e-4
-1.472, 2.776e-4
-1.473, 2.838e-4
-1.474, 2.869e-4
-1.475, 2.900e-4
-1.476, 2.900e-4
-1.477, 2.931e-4
-1.478, 2.961e-4
-1.479, 2.961e-4
-1.480, 3.023e-4
-1.481, 3.054e-4
-1.482, 3.085e-4
-1.483, 3.085e-4
-1.484, 3.115e-4
-1.485, 3.146e-4
-1.486, 3.177e-4
-1.487, 3.208e-4
-1.488, 3.270e-4
-1.489, 3.270e-4
-1.490, 3.270e-4
-1.491, 3.300e-4
-1.492, 3.331e-4
-1.493, 3.393e-4
-1.494, 3.424e-4
-1.495, 3.455e-4
-1.496, 3.485e-4
-1.497, 3.516e-4
-1.498, 3.547e-4
-1.499, 3.578e-4
-1.500, 3.640e-4
-1.501, 3.670e-4
-1.502, 3.732e-4
-1.503, 3.763e-4
-1.504, 3.794e-4
-1.505, 3.825e-4
-1.506, 3.886e-4
-1.507, 3.917e-4
-1.508, 3.979e-4
-1.509, 4.010e-4
-1.510, 4.071e-4
-1.511, 4.102e-4
-1.512, 4.133e-4
-1.513, 4.195e-4
-1.514, 4.256e-4
-1.515, 4.318e-4
-1.516, 4.380e-4
-1.517, 4.410e-4
-1.518, 4.472e-4
-1.519, 4.534e-4
-1.520, 4.595e-4
-1.521, 4.657e-4
-1.522, 4.719e-4
-1.523, 4.780e-4
-1.524, 4.842e-4
-1.525, 4.904e-4
-1.526, 4.965e-4
-1.527, 5.027e-4
-1.528, 5.120e-4
-1.529, 5.212e-4
-1.530, 5.243e-4
-1.531, 5.335e-4
-1.532, 5.397e-4
-1.533, 5.489e-4
-1.534, 5.582e-4
-1.535, 5.674e-4
-1.536, 5.736e-4
-1.537, 5.829e-4
-1.538, 5.890e-4
-1.539, 6.014e-4
-1.540, 6.106e-4
-1.541, 6.199e-4
-1.542, 6.291e-4
-1.543, 6.353e-4
-1.544, 6.445e-4
-1.545, 6.569e-4
-1.546, 6.692e-4
-1.547, 6.784e-4
-1.548, 6.908e-4
-1.549, 7.000e-4
-1.550, 7.093e-4
-1.551, 7.216e-4
-1.552, 7.432e-4
-1.553, 7.524e-4
-1.554, 7.648e-4
-1.555, 7.771e-4
-1.556, 7.894e-4
-1.557, 8.048e-4
-1.558, 8.141e-4
-1.559, 8.295e-4
-1.560, 8.449e-4
-1.561, 8.603e-4
-1.562, 8.758e-4
-1.563, 8.912e-4
-1.564, 8.973e-4
-1.565, 9.158e-4
-1.566, 9.313e-4
-1.567, 9.498e-4
-1.568, 9.652e-4
-1.569, 9.806e-4
-1.570, 1.011e-3
-1.571, 1.021e-3
-1.572, 1.039e-3
-1.573, 1.055e-3
-1.574, 1.076e-3
-1.575, 1.095e-3
-1.576, 1.113e-3
-1.577, 1.132e-3
-1.578, 1.144e-3
-1.579, 1.166e-3
-1.580, 1.187e-3
-1.581, 1.209e-3
-1.582, 1.240e-3
-1.583, 1.255e-3
-1.584, 1.277e-3
-1.585, 1.292e-3
-1.586, 1.314e-3
-1.587, 1.332e-3
-1.588, 1.366e-3
-1.589, 1.391e-3
-1.590, 1.409e-3
-1.591, 1.434e-3
-1.592, 1.458e-3
-1.593, 1.480e-3
-1.594, 1.508e-3
-1.595, 1.529e-3
-1.596, 1.563e-3
-1.597, 1.588e-3
-1.598, 1.610e-3
-1.599, 1.637e-3
-1.600, 1.671e-3
-1.601, 1.699e-3
-1.602, 1.730e-3
-1.603, 1.758e-3
-1.604, 1.785e-3
-1.605, 1.813e-3
-1.606, 1.838e-3
-1.607, 1.875e-3
-1.608, 1.906e-3
-1.609, 1.936e-3
-1.610, 1.967e-3
-1.611, 2.001e-3
-1.612, 2.032e-3
-1.613, 2.066e-3
-1.614, 2.097e-3
-1.615, 2.140e-3
-1.616, 2.168e-3
-1.617, 2.205e-3
-1.618, 2.235e-3
-1.619, 2.266e-3
-1.620, 2.297e-3
-1.621, 2.353e-3
-1.622, 2.380e-3
-1.623, 2.414e-3
-1.624, 2.448e-3
-1.625, 2.491e-3
-1.626, 2.525e-3
-1.627, 2.565e-3
-1.628, 2.615e-3
-1.629, 2.642e-3
-1.630, 2.676e-3
-1.631, 2.713e-3
-1.632, 2.766e-3
-1.633, 2.806e-3
-1.634, 2.846e-3
-1.635, 2.886e-3
-1.636, 2.945e-3
-1.637, 2.985e-3
-1.638, 3.015e-3
-1.639, 3.071e-3
-1.640, 3.117e-3
-1.641, 3.154e-3
-1.642, 3.194e-3
-1.643, 3.234e-3
-1.644, 3.293e-3
-1.645, 3.333e-3
-1.646, 3.376e-3
-1.647, 3.425e-3
-1.648, 3.469e-3
-1.649, 3.524e-3
-1.650, 3.577e-3
-1.651, 3.620e-3
-1.652, 3.666e-3
-1.653, 3.709e-3
-1.654, 3.762e-3
-1.655, 3.820e-3
-1.656, 3.869e-3
-1.657, 3.913e-3
-1.658, 3.959e-3
-1.659, 4.014e-3
-1.660, 4.061e-3
-1.661, 4.110e-3
-1.662, 4.172e-3
-1.663, 4.227e-3
-1.664, 4.273e-3
-1.665, 4.332e-3
-1.666, 4.384e-3
-1.667, 4.434e-3
-1.668, 4.495e-3
-1.669, 4.560e-3
-1.670, 4.609e-3
-1.671, 4.665e-3
-1.672, 4.720e-3
-1.673, 4.782e-3
-1.674, 4.831e-3
-1.675, 4.902e-3
-1.676, 4.967e-3
-1.677, 5.026e-3
-1.678, 5.087e-3
-1.679, 5.158e-3
-1.680, 5.214e-3
-1.681, 5.275e-3
-1.682, 5.337e-3
-1.683, 5.402e-3
-1.684, 5.463e-3
-1.685, 5.522e-3
-1.686, 5.584e-3
-1.687, 5.651e-3
-1.688, 5.713e-3
-1.689, 5.784e-3
-1.690, 5.855e-3
-1.691, 5.910e-3
-1.692, 5.981e-3
-1.693, 6.052e-3
-1.694, 6.117e-3
-1.695, 6.188e-3
-1.696, 6.265e-3
-1.697, 6.333e-3
-1.698, 6.404e-3
-1.699, 6.469e-3
-1.700, 6.533e-3
-1.701, 6.604e-3
-1.702, 6.678e-3
-1.703, 6.737e-3
-1.704, 6.805e-3
-1.705, 6.879e-3
-1.706, 6.956e-3
-1.707, 7.023e-3
-1.708, 7.104e-3
-1.709, 7.181e-3
-1.710, 7.249e-3
-1.711, 7.319e-3
-1.712, 7.400e-3
-1.713, 7.474e-3
-1.714, 7.545e-3
-1.715, 7.619e-3
-1.716, 7.693e-3
-1.717, 7.763e-3
-1.718, 7.834e-3
-1.719, 7.899e-3
-1.720, 7.970e-3
-1.721, 8.041e-3
-1.722, 8.127e-3
-1.723, 8.204e-3
-1.724, 8.288e-3
-1.725, 8.371e-3
-1.726, 8.439e-3
-1.727, 8.513e-3
-1.728, 8.580e-3
-1.729, 8.654e-3
-1.730, 8.744e-3
-1.731, 8.833e-3
-1.732, 8.907e-3
-1.733, 8.981e-3
-1.734, 9.055e-3
-1.735, 9.142e-3
-1.736, 9.237e-3
-1.737, 9.311e-3
-1.738, 9.391e-3
-1.739, 9.478e-3
-1.740, 9.561e-3
-1.741, 9.638e-3
-1.742, 9.712e-3
-1.743, 9.795e-3
-1.744, 9.875e-3
-1.745, 9.959e-3
-1.746, 1.003e-2
-1.747, 1.012e-2
-1.748, 1.019e-2
-1.749, 1.026e-2
-1.750, 1.034e-2
-1.751, 1.042e-2
-1.752, 1.050e-2
-1.753, 1.058e-2
-1.754, 1.068e-2
-1.755, 1.077e-2
-1.756, 1.085e-2
-1.757, 1.095e-2
-1.758, 1.103e-2
-1.759, 1.111e-2
-1.760, 1.118e-2
-1.761, 1.126e-2
-1.762, 1.136e-2
-1.763, 1.144e-2
-1.764, 1.151e-2
-1.765, 1.160e-2
-1.766, 1.171e-2
-1.767, 1.178e-2
-1.768, 1.187e-2
-1.769, 1.195e-2
-1.770, 1.202e-2
-1.771, 1.212e-2
-1.772, 1.221e-2
-1.773, 1.229e-2
-1.774, 1.239e-2
-1.775, 1.246e-2
-1.776, 1.257e-2
-1.777, 1.267e-2
-1.778, 1.275e-2
-1.779, 1.284e-2
-1.780, 1.292e-2
-1.781, 1.301e-2
-1.782, 1.312e-2
-1.783, 1.319e-2
-1.784, 1.329e-2
-1.785, 1.339e-2
-1.786, 1.348e-2
-1.787, 1.357e-2
-1.788, 1.362e-2
-1.789, 1.374e-2
-1.790, 1.382e-2
-1.791, 1.392e-2
-1.792, 1.399e-2
-1.793, 1.408e-2
-1.794, 1.417e-2
-1.795, 1.427e-2
-1.796, 1.436e-2
-1.797, 1.445e-2
-1.798, 1.457e-2
-1.799, 1.466e-2
-1.800, 1.470e-2
-1.799, 1.463e-2
-1.798, 1.454e-2
-1.797, 1.443e-2
-1.796, 1.431e-2
-1.795, 1.422e-2
-1.794, 1.410e-2
-1.793, 1.398e-2
-1.792, 1.387e-2
-1.791, 1.376e-2
-1.790, 1.363e-2
-1.789, 1.352e-2
-1.788, 1.341e-2
-1.787, 1.335e-2
-1.786, 1.324e-2
-1.785, 1.315e-2
-1.784, 1.304e-2
-1.783, 1.296e-2
-1.782, 1.286e-2
-1.781, 1.274e-2
-1.780, 1.262e-2
-1.779, 1.252e-2
-1.778, 1.245e-2
-1.777, 1.235e-2
-1.776, 1.227e-2
-1.775, 1.219e-2
-1.774, 1.209e-2
-1.773, 1.202e-2
-1.772, 1.194e-2
-1.771, 1.183e-2
-1.770, 1.174e-2
-1.769, 1.165e-2
-1.768, 1.154e-2
-1.767, 1.144e-2
-1.766, 1.132e-2
-1.765, 1.124e-2
-1.764, 1.119e-2
-1.763, 1.108e-2
-1.762, 1.097e-2
-1.761, 1.086e-2
-1.760, 1.078e-2
-1.759, 1.067e-2
-1.758, 1.057e-2
-1.757, 1.049e-2
-1.756, 1.040e-2
-1.755, 1.030e-2
-1.754, 1.022e-2
-1.753, 1.013e-2
-1.752, 1.007e-2
-1.751, 9.968e-3
-1.750, 9.878e-3
-1.749, 9.798e-3
-1.748, 9.693e-3
-1.747, 9.616e-3
-1.746, 9.521e-3
-1.745, 9.438e-3
-1.744, 9.333e-3
-1.743, 9.253e-3
-1.742, 9.154e-3
-1.741, 9.061e-3
-1.740, 9.003e-3
-1.739, 8.938e-3
-1.738, 8.858e-3
-1.737, 8.769e-3
-1.736, 8.688e-3
-1.735, 8.654e-3
-1.734, 8.568e-3
-1.733, 8.488e-3
-1.732, 8.408e-3
-1.731, 8.328e-3
-1.730, 8.260e-3
-1.729, 8.186e-3
-1.728, 8.096e-3
-1.727, 8.022e-3
-1.726, 7.961e-3
-1.725, 7.887e-3
-1.724, 7.804e-3
-1.723, 7.726e-3
-1.722, 7.637e-3
-1.721, 7.560e-3
-1.720, 7.483e-3
-1.719, 7.415e-3
-1.718, 7.344e-3
-1.717, 7.276e-3
-1.716, 7.193e-3
-1.715, 7.119e-3
-1.714, 7.048e-3
-1.713, 6.977e-3
-1.712, 6.909e-3
-1.711, 6.829e-3
-1.710, 6.755e-3
-1.709, 6.678e-3
-1.708, 6.601e-3
-1.707, 6.524e-3
-1.706, 6.459e-3
-1.705, 6.388e-3
-1.704, 6.330e-3
-1.703, 6.259e-3
-1.702, 6.179e-3
-1.701, 6.111e-3
-1.700, 6.040e-3
-1.699, 5.972e-3
-1.698, 5.898e-3
-1.697, 5.833e-3
-1.696, 5.766e-3
-1.695, 5.704e-3
-1.694, 5.633e-3
-1.693, 5.568e-3
-1.692, 5.497e-3
-1.691, 5.430e-3
-1.690, 5.374e-3
-1.689, 5.312e-3
-1.688, 5.251e-3
-1.687, 5.189e-3
-1.686, 5.124e-3
-1.685, 5.066e-3
-1.684, 5.001e-3
-1.683, 4.927e-3
-1.682, 4.868e-3
-1.681, 4.810e-3
-1.680, 4.757e-3
-1.679, 4.699e-3
-1.678, 4.646e-3
-1.677, 4.591e-3
-1.676, 4.538e-3
-1.675, 4.477e-3
-1.674, 4.421e-3
-1.673, 4.360e-3
-1.672, 4.310e-3
-1.671, 4.255e-3
-1.670, 4.206e-3
-1.669, 4.162e-3
-1.668, 4.098e-3
-1.667, 4.042e-3
-1.666, 3.990e-3
-1.665, 3.937e-3
-1.664, 3.888e-3
-1.663, 3.842e-3
-1.662, 3.786e-3
-1.661, 3.731e-3
-1.660, 3.684e-3
-1.659, 3.632e-3
-1.658, 3.583e-3
-1.657, 3.536e-3
-1.656, 3.484e-3
-1.655, 3.444e-3
-1.654, 3.404e-3
-1.653, 3.348e-3
-1.652, 3.302e-3
-1.651, 3.259e-3
-1.650, 3.210e-3
-1.649, 3.160e-3
-1.648, 3.117e-3
-1.647, 3.071e-3
-1.646, 3.025e-3
-1.645, 2.985e-3
-1.644, 2.941e-3
-1.643, 2.898e-3
-1.642, 2.858e-3
-1.641, 2.812e-3
-1.640, 2.772e-3
-1.639, 2.729e-3
-1.638, 2.686e-3
-1.637, 2.645e-3
-1.636, 2.605e-3
-1.635, 2.565e-3
-1.634, 2.525e-3
-1.633, 2.491e-3
-1.632, 2.454e-3
-1.631, 2.417e-3
-1.630, 2.377e-3
-1.629, 2.340e-3
-1.628, 2.303e-3
-1.627, 2.266e-3
-1.626, 2.235e-3
-1.625, 2.198e-3
-1.624, 2.161e-3
-1.623, 2.131e-3
-1.622, 2.097e-3
-1.621, 2.060e-3
-1.620, 2.029e-3
-1.619, 1.998e-3
-1.618, 1.967e-3
-1.617, 1.939e-3
-1.616, 1.915e-3
-1.615, 1.878e-3
-1.614, 1.847e-3
-1.613, 1.816e-3
-1.612, 1.785e-3
-1.611, 1.761e-3
-1.610, 1.727e-3
-1.609, 1.699e-3
-1.608, 1.671e-3
-1.607, 1.647e-3
-1.606, 1.619e-3
-1.605, 1.591e-3
-1.604, 1.563e-3
-1.603, 1.539e-3
-1.602, 1.511e-3
-1.601, 1.483e-3
-1.600, 1.462e-3
-1.599, 1.437e-3
-1.598, 1.412e-3
-1.597, 1.388e-3
-1.596, 1.363e-3
-1.595, 1.341e-3
-1.594, 1.320e-3
-1.593, 1.298e-3
-1.592, 1.273e-3
-1.591, 1.252e-3
-1.590, 1.230e-3
-1.589, 1.209e-3
-1.588, 1.187e-3
-1.587, 1.166e-3
-1.586, 1.147e-3
-1.585, 1.129e-3
-1.584, 1.107e-3
-1.583, 1.085e-3
-1.582, 1.067e-3
-1.581, 1.048e-3
-1.580, 1.030e-3
-1.579, 1.011e-3
-1.578, 9.991e-4
-1.577, 9.806e-4
-1.576, 9.590e-4
-1.575, 9.405e-4
-1.574, 9.251e-4
-1.573, 9.097e-4
-1.572, 8.943e-4
-1.571, 8.788e-4
-1.570, 8.634e-4
-1.569, 8.449e-4
-1.568, 8.295e-4
-1.567, 8.172e-4
-1.566, 8.018e-4
-1.565, 7.894e-4
-1.564, 7.709e-4
-1.563, 7.586e-4
-1.562, 7.432e-4
-1.561, 7.309e-4
-1.560, 7.185e-4
-1.559, 7.062e-4
-1.558, 6.939e-4
-1.557, 6.784e-4
-1.556, 6.661e-4
-1.555, 6.538e-4
-1.554, 6.445e-4
-1.553, 6.322e-4
-1.552, 6.199e-4
-1.551, 6.106e-4
-1.550, 5.983e-4
-1.549, 5.890e-4
-1.548, 5.767e-4
-1.547, 5.674e-4
-1.546, 5.582e-4
-1.545, 5.459e-4
-1.544, 5.366e-4
-1.543, 5.243e-4
-1.542, 5.150e-4
-1.541, 5.058e-4
-1.540, 4.965e-4
-1.539, 4.904e-4
-1.538, 4.811e-4
-1.537, 4.719e-4
-1.536, 4.626e-4
-1.535, 4.534e-4
-1.534, 4.441e-4
-1.533, 4.380e-4
-1.532, 4.287e-4
-1.531, 4.225e-4
-1.530, 4.133e-4
-1.529, 4.040e-4
-1.528, 3.979e-4
-1.527, 3.917e-4
-1.526, 3.855e-4
-1.525, 3.794e-4
-1.524, 3.701e-4
-1.523, 3.609e-4
-1.522, 3.547e-4
-1.521, 3.485e-4
-1.520, 3.424e-4
-1.519, 3.362e-4
-1.518, 3.300e-4
-1.517, 3.239e-4
-1.516, 3.177e-4
-1.515, 3.085e-4
-1.514, 3.054e-4
-1.513, 2.992e-4
-1.512, 2.931e-4
-1.511, 2.900e-4
-1.510, 2.838e-4
-1.509, 2.776e-4
-1.508, 2.715e-4
-1.507, 2.653e-4
-1.506, 2.622e-4
-1.505, 2.591e-4
-1.504, 2.530e-4
-1.503, 2.468e-4
-1.502, 2.406e-4
-1.501, 2.376e-4
-1.500, 2.314e-4
-1.499, 2.283e-4
-1.498, 2.252e-4
-1.497, 2.191e-4
-1.496, 2.129e-4
-1.495, 2.098e-4
-1.494, 2.036e-4
-1.493, 2.006e-4
-1.492, 2.006e-4
-1.491, 1.944e-4
-1.490, 1.882e-4
-1.489, 1.851e-4
-1.488, 1.821e-4
-1.487, 1.759e-4
-1.486, 1.759e-4
-1.485, 1.697e-4
-1.484, 1.666e-4
-1.483, 1.605e-4
-1.482, 1.574e-4
-1.481, 1.543e-4
-1.480, 1.512e-4
-1.479, 1.481e-4
-1.478, 1.451e-4
-1.477, 1.420e-4
-1.476, 1.389e-4
-1.475, 1.327e-4
-1.474, 1.327e-4
-1.473, 1.296e-4
-1.472, 1.266e-4
-1.471, 1.235e-4
-1.470, 1.173e-4
-1.469, 1.173e-4
-1.468, 1.111e-4
-1.467, 1.111e-4
-1.466, 1.111e-4
-1.465, 1.081e-4
-1.464, 1.019e-4
-1.463, 9.882e-5
-1.462, 9.573e-5
-1.461, 9.573e-5
-1.460, 9.265e-5
-1.459, 8.957e-5
-1.458, 8.957e-5
-1.457, 8.340e-5
-1.456, 8.032e-5
-1.455, 7.723e-5
-1.454, 7.723e-5
-1.453, 7.723e-5
-1.452, 7.415e-5
-1.451, 7.107e-5
-1.450, 6.798e-5
-1.449, 6.490e-5
-1.448, 6.182e-5
-1.447, 5.873e-5
-1.446, 5.873e-5
-1.445, 5.873e-5
-1.444, 5.257e-5
-1.443, 5.257e-5
-1.442, 4.949e-5
-1.441, 4.640e-5
-1.440, 4.640e-5
-1.439, 4.332e-5
-1.438, 4.332e-5
-1.437, 4.024e-5
-1.436, 3.715e-5
-1.435, 3.407e-5
-1.434, 3.407e-5
-1.433, 3.099e-5
-1.432, 3.099e-5
-1.431, 2.790e-5
-1.430, 2.790e-5
-1.429, 2.482e-5
-1.428, 2.174e-5
-1.427, 2.174e-5
-1.426, 2.174e-5
-1.425, 1.865e-5
-1.424, 1.557e-5
-1.423, 1.557e-5
-1.422, 1.249e-5
-1.421, 9.405e-6
-1.420, 9.405e-6
-1.419, 9.405e-6
-1.418, 6.322e-6
-1.417, 3.239e-6
-1.416, 3.239e-6
-1.415, 1.559e-7
-1.414, 1.559e-7
-1.413, 1.559e-7
-1.412, 1.559e-7
-1.411, -2.927e-6
-1.410, -6.010e-6
-1.409, -6.010e-6
-1.408, -9.093e-6
-1.407, -9.093e-6
-1.406, -9.093e-6
-1.405, -9.093e-6
-1.404, -1.218e-5
-1.403, -1.526e-5
-1.402, -1.526e-5
-1.401, -1.834e-5
-1.400, -1.834e-5
-1.399, -1.834e-5
-1.398, -1.834e-5
-1.397, -2.143e-5
-1.396, -2.451e-5
-1.395, -2.451e-5
-1.394, -2.451e-5
-1.393, -2.451e-5
-1.392, -2.451e-5
-1.391, -2.759e-5
-1.390, -2.759e-5
-1.389, -3.068e-5
-1.388, -3.068e-5
-1.387, -3.068e-5
-1.386, -3.068e-5
-1.385, -3.376e-5
-1.384, -3.376e-5
-1.383, -3.684e-5
-1.382, -3.992e-5
-1.381, -3.684e-5
-1.380, -3.992e-5
-1.379, -3.684e-5
-1.378, -3.992e-5
-1.377, -4.301e-5
-1.376, -4.301e-5
-1.375, -4.301e-5
-1.374, -4.609e-5
-1.373, -4.609e-5
-1.372, -4.609e-5
-1.371, -4.609e-5
-1.370, -4.609e-5
-1.369, -4.917e-5
-1.368, -4.917e-5
-1.367, -4.917e-5
-1.366, -4.917e-5
-1.365, -4.917e-5
-1.364, -5.226e-5
-1.363, -5.534e-5
-1.362, -5.534e-5
-1.361, -5.534e-5
-1.360, -5.534e-5
-1.359, -5.534e-5
-1.358, -5.534e-5
-1.357, -5.842e-5
-1.356, -5.842e-5
-1.355, -6.151e-5
-1.354, -6.151e-5
-1.353, -6.151e-5
-1.352, -5.842e-5
-1.351, -6.151e-5
-1.350, -6.459e-5
-1.349, -6.459e-5
-1.348, -6.459e-5
-1.347, -6.459e-5
-1.346, -6.459e-5
-1.345, -6.459e-5
-1.344, -6.459e-5
-1.343, -6.767e-5
-1.342, -6.767e-5
-1.341, -6.767e-5
-1.340, -6.767e-5
-1.339, -6.767e-5
-1.338, -7.076e-5
-1.337, -7.076e-5
-1.336, -7.384e-5
-1.335, -7.384e-5
-1.334, -7.384e-5
-1.333, -7.076e-5
-1.332, -7.384e-5
-1.331, -7.384e-5
-1.330, -7.384e-5
-1.329, -7.692e-5
-1.328, -7.692e-5
-1.327, -7.692e-5
-1.326, -7.692e-5
-1.325, -7.692e-5
-1.324, -7.692e-5
-1.323, -8.000e-5
-1.322, -8.000e-5
-1.321, -8.000e-5
-1.320, -7.692e-5
-1.319, -8.000e-5
-1.318, -8.000e-5
-1.317, -8.000e-5
-1.316, -8.309e-5
-1.315, -8.309e-5
-1.314, -8.309e-5
-1.313, -8.309e-5
-1.312, -8.309e-5
-1.311, -8.309e-5
-1.310, -8.309e-5
-1.309, -8.617e-5
-1.308, -8.617e-5
-1.307, -8.617e-5
-1.306, -8.309e-5
-1.305, -8.617e-5
-1.304, -8.617e-5
-1.303, -8.617e-5
-1.302, -8.925e-5
-1.301, -8.925e-5
-1.300, -8.925e-5
-1.299, -8.617e-5
-1.298, -8.925e-5
-1.297, -8.925e-5
-1.296, -8.925e-5
-1.295, -9.234e-5
-1.294, -9.234e-5
-1.293, -8.925e-5
-1.292, -9.234e-5
-1.291, -9.234e-5
-1.290, -9.234e-5
-1.289, -9.542e-5
-1.288, -9.542e-5
-1.287, -9.542e-5
-1.286, -9.234e-5
-1.285, -9.234e-5
-1.284, -9.542e-5
-1.283, -9.542e-5
-1.282, -9.542e-5
-1.281, -9.850e-5
-1.280, -9.542e-5
-1.279, -9.542e-5
-1.278, -9.542e-5
-1.277, -9.850e-5
-1.276, -9.850e-5
-1.275, -9.850e-5
-1.274, -9.850e-5
-1.273, -9.850e-5
-1.272, -9.850e-5
-1.271, -9.850e-5
-1.270, -9.850e-5
-1.269, -1.016e-4
-1.268, -1.016e-4
-1.267, -1.016e-4
-1.266, -9.850e-5
-1.265, -9.850e-5
-1.264, -1.016e-4
-1.263, -1.016e-4
-1.262, -1.047e-4
-1.261, -1.016e-4
-1.260, -1.047e-4
-1.259, -1.016e-4
-1.258, -1.016e-4
-1.257, -1.047e-4
-1.256, -1.047e-4
-1.255, -1.047e-4
-1.254, -1.047e-4
-1.253, -1.047e-4
-1.252, -1.047e-4
-1.251, -1.047e-4
-1.250, -1.078e-4
-1.249, -1.078e-4
-1.248, -1.078e-4
-1.247, -1.078e-4
-1.246, -1.078e-4
-1.245, -1.078e-4
-1.244, -1.108e-4
-1.243, -1.078e-4
-1.242, -1.108e-4
-1.241, -1.108e-4
-1.240, -1.078e-4
-1.239, -1.078e-4
-1.238, -1.108e-4
-1.237, -1.108e-4
-1.236, -1.139e-4
-1.235, -1.139e-4
-1.234, -1.108e-4
-1.233, -1.108e-4
-1.232, -1.108e-4
-1.231, -1.108e-4
-1.230, -1.139e-4
-1.229, -1.139e-4
-1.228, -1.139e-4
-1.227, -1.170e-4
-1.226, -1.139e-4
-1.225, -1.139e-4
-1.224, -1.139e-4
-1.223, -1.139e-4
-1.222, -1.170e-4
-1.221, -1.170e-4
-1.220, -1.170e-4
-1.219, -1.139e-4
-1.218, -1.170e-4
-1.217, -1.170e-4
-1.216, -1.201e-4
-1.215, -1.201e-4
-1.214, -1.201e-4
-1.213, -1.170e-4
-1.212, -1.170e-4
-1.211, -1.201e-4
-1.210, -1.201e-4
-1.209, -1.201e-4
-1.208, -1.201e-4
-1.207, -1.201e-4
-1.206, -1.201e-4
-1.205, -1.201e-4
-1.204, -1.232e-4
-1.203, -1.232e-4
-1.202, -1.232e-4
-1.201, -1.232e-4
-1.200, -1.232e-4
-1.199, -1.232e-4
-1.198, -1.232e-4
-1.197, -1.232e-4
-1.196, -1.263e-4
-1.195, -1.263e-4
-1.194, -1.263e-4
-1.193, -1.263e-4
-1.192, -1.263e-4
-1.191, -1.263e-4
-1.190, -1.263e-4
-1.189, -1.293e-4
-1.188, -1.293e-4
-1.187, -1.263e-4
-1.186, -1.263e-4
-1.185, -1.263e-4
-1.184, -1.293e-4
-1.183, -1.293e-4
-1.182, -1.324e-4
-1.181, -1.293e-4
-1.180, -1.324e-4
-1.179, -1.293e-4
-1.178, -1.324e-4
-1.177, -1.324e-4
-1.176, -1.324e-4
-1.175, -1.355e-4
-1.174, -1.355e-4
-1.173, -1.324e-4
-1.172, -1.355e-4
-1.171, -1.355e-4
-1.170, -1.355e-4
-1.169, -1.355e-4
-1.168, -1.355e-4
-1.167, -1.386e-4
-1.166, -1.355e-4
-1.165, -1.355e-4
-1.164, -1.386e-4
-1.163, -1.386e-4
-1.162, -1.386e-4
-1.161, -1.417e-4
-1.160, -1.386e-4
-1.159, -1.386e-4
-1.158, -1.386e-4
-1.157, -1.417e-4
-1.156, -1.417e-4
-1.155, -1.448e-4
-1.154, -1.417e-4
-1.153, -1.448e-4
-1.152, -1.417e-4
-1.151, -1.448e-4
-1.150, -1.448e-4
-1.149, -1.478e-4
-1.148, -1.478e-4
-1.147, -1.478e-4
-1.146, -1.448e-4
-1.145, -1.478e-4
-1.144, -1.478e-4
-1.143, -1.478e-4
-1.142, -1.509e-4
-1.141, -1.509e-4
-1.140, -1.509e-4
-1.139, -1.509e-4
-1.138, -1.509e-4
-1.137, -1.540e-4
-1.136, -1.540e-4
-1.135, -1.540e-4
-1.134, -1.540e-4
-1.133, -1.540e-4
-1.132, -1.571e-4
-1.131, -1.571e-4
-1.130, -1.571e-4
-1.129, -1.602e-4
-1.128, -1.602e-4
-1.127, -1.602e-4
-1.126, -1.602e-4
-1.125, -1.602e-4
-1.124, -1.602e-4
-1.123, -1.632e-4
-1.122, -1.632e-4
-1.121, -1.663e-4
-1.120, -1.632e-4
-1.119, -1.632e-4
-1.118, -1.663e-4
-1.117, -1.663e-4
-1.116, -1.694e-4
-1.115, -1.694e-4
-1.114, -1.694e-4
-1.113, -1.694e-4
-1.112, -1.694e-4
-1.111, -1.725e-4
-1.110, -1.756e-4
-1.109, -1.756e-4
-1.108, -1.756e-4
-1.107, -1.756e-4
-1.106, -1.756e-4
-1.105, -1.756e-4
-1.104, -1.787e-4
-1.103, -1.817e-4
-1.102, -1.817e-4
-1.101, -1.817e-4
-1.100, -1.817e-4
-1.099, -1.817e-4
-1.098, -1.817e-4
-1.097, -1.848e-4
-1.096, -1.879e-4
-1.095, -1.910e-4
-1.094, -1.910e-4
-1.093, -1.879e-4
-1.092, -1.910e-4
-1.091, -1.910e-4
-1.090, -1.910e-4
-1.089, -1.941e-4
-1.088, -1.972e-4
-1.087, -1.972e-4
-1.086, -1.972e-4
-1.085, -1.972e-4
-1.084, -2.002e-4
-1.083, -2.033e-4
-1.082, -2.033e-4
-1.081, -2.064e-4
-1.080, -2.064e-4
-1.079, -2.064e-4
-1.078, -2.095e-4
-1.077, -2.095e-4
-1.076, -2.126e-4
-1.075, -2.157e-4
-1.074, -2.157e-4
-1.073, -2.157e-4
-1.072, -2.157e-4
-1.071, -2.187e-4
-1.070, -2.218e-4
-1.069, -2.249e-4
-1.068, -2.249e-4
-1.067, -2.249e-4
-1.066, -2.249e-4
-1.065, -2.280e-4
-1.064, -2.311e-4
-1.063, -2.311e-4
-1.062, -2.342e-4
-1.061, -2.372e-4
-1.060, -2.372e-4
-1.059, -2.372e-4
-1.058, -2.403e-4
-1.057, -2.434e-4
-1.056, -2.465e-4
-1.055, -2.465e-4
-1.054, -2.496e-4
-1.053, -2.496e-4
-1.052, -2.496e-4
-1.051, -2.527e-4
-1.050, -2.557e-4
-1.049, -2.588e-4
-1.048, -2.588e-4
-1.047, -2.588e-4
-1.046, -2.619e-4
-1.045, -2.619e-4
-1.044, -2.650e-4
-1.043, -2.681e-4
-1.042, -2.712e-4
-1.041, -2.742e-4
-1.040, -2.742e-4
-1.039, -2.742e-4
-1.038, -2.773e-4
-1.037, -2.804e-4
-1.036, -2.835e-4
-1.035, -2.866e-4
-1.034, -2.866e-4
-1.033, -2.866e-4
-1.032, -2.897e-4
-1.031, -2.927e-4
-1.030, -2.958e-4
-1.029, -2.989e-4
-1.028, -3.020e-4
-1.027, -3.020e-4
-1.026, -3.020e-4
-1.025, -3.051e-4
-1.024, -3.082e-4
-1.023, -3.112e-4
-1.022, -3.143e-4
-1.021, -3.174e-4
-1.020, -3.174e-4
-1.019, -3.174e-4
-1.018, -3.205e-4
-1.017, -3.267e-4
-1.016, -3.297e-4
-1.015, -3.297e-4
-1.014, -3.328e-4
-1.013, -3.328e-4
-1.012, -3.359e-4
-1.011, -3.390e-4
-1.010, -3.390e-4
-1.009, -3.452e-4
-1.008, -3.452e-4
-1.007, -3.482e-4
-1.006, -3.513e-4
-1.005, -3.513e-4
-1.004, -3.544e-4
-1.003, -3.575e-4
-1.002, -3.606e-4
-1.001, -3.637e-4
