Potential V vs RHE, Current mA cm-2
0.013299999999999867,-8.532123849486036
0.012299999999999978,-10.317489509915713
0.011299999999999866,-11.674197646486283
0.010299999999999976,-12.730986987485464
0.009299999999999864,-13.749579123388292
0.008299999999999974,-14.557379275611227
0.007299999999999862,-15.137410908555893
0.006299999999999972,-15.844766558488407
0.00529999999999986,-16.55212220842093
0.0042999999999999705,-17.047271163373694
0.0032999999999998586,-17.528273005327804
0.0022999999999999687,-18.05171618627787
0.0012999999999998568,-18.40539401124413
0.00029999999999996696,-18.688336271217132
-0.000700000000000145,-19.155191000172596
-0.0017000000000000348,-19.551310164134804
-0.0027000000000001467,-19.862546650105116
-0.0037000000000000366,-20.244518701068674
-0.0047000000000001485,-20.569902300037633
-0.005700000000000038,-20.73966765602144
-0.00670000000000015,-20.980168576998494
-0.00770000000000004,-21.347993514963402
-0.008700000000000152,-21.61678866193776
-0.009700000000000042,-21.885583808912116
-0.010700000000000154,-22.239261633878378
-0.011700000000000044,-22.451468328858134
-0.012700000000000156,-22.536351006850033
-0.013700000000000045,-22.833440379821692
-0.014700000000000157,-23.088088413797397
-0.015700000000000047,-23.15882397879065
-0.01670000000000016,-23.41347201276636
-0.01770000000000005,-23.83788540272587
-0.01870000000000016,-23.93691519371642
-0.01970000000000005,-24.021797871708326
-0.020700000000000163,-24.304740131681328
-0.021700000000000053,-24.502799713662437
-0.022700000000000164,-24.630123730650286
-0.023700000000000054,-24.856477538628695
-0.024700000000000166,-25.111125572604404
-0.025700000000000056,-25.238449589592253
-0.026700000000000168,-25.45065628457201
-0.027700000000000058,-25.691157205549064
-0.02870000000000017,-25.747745657543668
-0.02970000000000006,-25.86092256153287
-0.03070000000000017,-26.17215904750318
-0.03170000000000006,-26.32777729048833
-0.03270000000000017,-26.426807081478888
-0.03370000000000006,-26.780484906445146
-0.034700000000000175,-27.0209858274222
-0.035700000000000065,-27.0209858274222
-0.03670000000000018,-27.176604070407354
-0.03770000000000007,-27.40295787838576
-0.03870000000000018,-27.487840556377662
-0.03970000000000007,-27.685900138358768
-0.04070000000000018,-28.039577963325023
-0.04170000000000007,-28.18104909331153
-0.04270000000000018,-28.209343319308836
-0.04370000000000007,-28.435697127287238
-0.044700000000000184,-28.619609596269694
-0.045700000000000074,-28.690345161262943
-0.046700000000000186,-28.959140308237306
-0.047700000000000076,-29.242082568210304
-0.04870000000000019,-29.29867102020491
-0.04970000000000008,-29.38355369819681
-0.05070000000000019,-29.62405461917387
-0.05170000000000008,-29.793819975157668
-0.05270000000000019,-29.822114201154974
-0.05370000000000008,-30.04846800913338
-0.05470000000000019,-30.37385160810234
-0.05570000000000008,-30.487028512091538
-0.056700000000000195,-30.642646755076694
-0.057700000000000085,-30.88314767605375
-0.058700000000000196,-30.982177467044306
-0.059700000000000086,-31.095354371033505
-0.0607000000000002,-31.37829663100651
-0.06170000000000009,-31.56220909998897
-0.0627000000000002,-31.717827342974125
-0.06370000000000009,-31.986622489948477
-0.0647000000000002,-32.170534958930936
-0.06570000000000009,-32.170534958930936
-0.0667000000000002,-32.31200608891744
-0.0677000000000001,-32.58080123589179
-0.0687000000000002,-32.66568391388369
-0.0697000000000001,-32.821302156868846
-0.07070000000000021,-33.18912709483376
-0.0717000000000001,-33.302303998822964
-0.07270000000000021,-33.316451111821614
-0.0737000000000001,-33.52865780680137
-0.07470000000000021,-33.740864501781125
-0.0757000000000001,-33.85404140577033
-0.07670000000000021,-34.15113077874198
-0.0777000000000001,-34.43407303871499
-0.07870000000000021,-34.50480860370825
-0.0797000000000001,-34.56139705570285
-0.08070000000000022,-34.8301922026772
-0.0817000000000001,-34.9716633326637
-0.08270000000000022,-34.98581044566235
-0.08370000000000011,-35.282899818634014
-0.08470000000000022,-35.594136304604326
-0.08570000000000011,-35.608283417602976
-0.08670000000000022,-35.763901660588125
-0.08770000000000011,-36.03269680756248
-0.08870000000000022,-36.08928525955708
-0.08970000000000011,-36.230756389543586
-0.09070000000000022,-36.64102266650445
-0.09170000000000011,-36.83908224848555
-0.09270000000000023,-36.88152358748151
-0.09370000000000012,-37.107877395459916
-0.09470000000000023,-37.32008409043967
-0.09570000000000012,-37.32008409043967
-0.09670000000000023,-37.48984944642347
-0.09770000000000012,-37.84352727138973
-0.09870000000000023,-37.94255706238028
-0.09970000000000012,-38.04158685337084
-0.10070000000000023,-38.29623488734655
-0.10170000000000012,-38.4518531303317
-0.10270000000000024,-38.5084415823263
-0.10370000000000013,-38.74894250330336
-0.10470000000000024,-38.98944342428042
-0.10570000000000013,-39.159208780264215
-0.10670000000000024,-39.328974136248014
-0.10770000000000013,-39.54118083122778
-0.10870000000000024,-39.62606350921968
-0.10970000000000013,-39.72509330021023
-0.11070000000000024,-39.99388844718459
-0.11170000000000013,-40.177800916167044
-0.11270000000000002,-40.36171338514949
-0.11370000000000013,-40.65880275812115
-0.11470000000000002,-40.84271522710361
-0.11570000000000014,-40.87100945310091
-0.11670000000000003,-41.01248058308742
-0.11770000000000014,-41.25298150406447
-0.11870000000000003,-41.33786418205637
-0.11970000000000014,-41.47933531204288
-0.12070000000000003,-41.87545447600508
-0.12170000000000014,-42.03107271899024
-0.12270000000000003,-42.03107271899024
-0.12370000000000014,-42.28572075296594
-0.12470000000000003,-42.51207456094435
-0.12570000000000014,-42.582810125937606
-0.12670000000000003,-42.82331104691466
-0.12770000000000015,-43.134547532884966
-0.12870000000000004,-43.219430210876865
-0.12970000000000015,-43.30431288886877
-0.13070000000000004,-43.53066669684718
-0.13170000000000015,-43.68628493983233
-0.13270000000000004,-43.75702050482558
-0.13370000000000015,-43.99752142580264
-0.13470000000000004,-44.238022346779694
-0.13570000000000015,-44.4077877027635
-0.13670000000000004,-44.619994397743255
-0.13770000000000016,-44.86049531872031
-0.13870000000000005,-44.95952510971087
-0.13970000000000016,-45.086849126698716
-0.14070000000000005,-45.38393849967037
-0.14170000000000016,-45.567850968652834
-0.14270000000000005,-45.75176343763528
-0.14370000000000016,-46.048852810606945
-0.14470000000000005,-46.2327652795894
-0.14570000000000016,-46.2610595055867
-0.14670000000000005,-46.37423640957591
-0.14770000000000016,-46.628884443551605
-0.14870000000000005,-46.78450268653676
-0.14970000000000017,-47.02500360751382
-0.15070000000000006,-47.33624009348412
-0.15170000000000017,-47.47771122347063
-0.15270000000000006,-47.54844678846388
-0.15370000000000017,-47.77480059644228
-0.15470000000000006,-48.029448630417996
-0.15570000000000017,-48.1709197604045
-0.15670000000000006,-48.36897934238561
-0.15770000000000017,-48.63777448935996
-0.15870000000000006,-48.73680428035051
-0.15970000000000018,-48.80753984534376
-0.16070000000000007,-49.090482105316774
-0.16170000000000018,-49.26024746130057
-0.16270000000000007,-49.33098302629383
-0.16370000000000018,-49.68466085126009
-0.16470000000000007,-50.052485789224995
-0.16570000000000018,-50.109074241219595
-0.16670000000000007,-50.2788395972034
-0.16770000000000018,-50.57592897017506
-0.16870000000000007,-50.71740010016157
-0.16970000000000018,-50.85887123014807
-0.17070000000000007,-51.18425482911703
-0.17170000000000019,-51.495491315087335
-0.17270000000000008,-51.62281533207519
-0.1737000000000002,-51.8491691400536
-0.17470000000000008,-52.061375835033346
-0.1757000000000002,-52.1038171740293
-0.17670000000000008,-52.34431809500636
-0.1777000000000002,-52.62726035497937
-0.17870000000000008,-52.76873148496586
-0.1797000000000002,-52.980938179945625
-0.18070000000000008,-53.39120445690648
-0.1817000000000002,-53.57511692588894
-0.18270000000000008,-53.617558264884885
-0.1837000000000002,-53.88635341185925
-0.1847000000000001,-54.19758989782956
-0.1857000000000002,-54.2966196888201
-0.1867000000000001,-54.537120609797164
-0.1877000000000002,-54.919092660760725
-0.1887000000000001,-55.14544646873913
-0.1897000000000002,-55.27277048572698
-0.1907000000000001,-55.541565632701335
-0.1917000000000001,-55.711330988685134
-0.19269999999999998,-55.8669492316703
-0.1937000000000001,-56.19233283063926
-0.19469999999999998,-56.489422203610914
-0.1957000000000001,-56.65918755959472
-0.19669999999999999,-56.998718271562325
-0.1977000000000001,-57.30995475753264
-0.1987,-57.408984548523186
-0.1997000000000001,-57.550455678509685
-0.2007,-57.87583927747865
-0.2017000000000001,-58.21536998944626
-0.2027,-58.47001802342197
-0.2037000000000001,-58.82369584838823
-0.2047,-59.09249099536258
-0.2057000000000001,-59.20566789935179
-0.2067,-59.389580368334244
-0.2077000000000001,-59.7149639673032
-0.2087,-59.983759114277554
-0.2097000000000001,-60.23840714825326
-0.2107,-60.59208497321952
-0.2117000000000001,-60.818438781197926
-0.2127,-60.95990991118443
-0.2137000000000001,-61.27114639715474
-0.2147,-61.5965299961237
-0.2157000000000001,-61.851178030099405
-0.2167,-62.20485585506566
-0.21770000000000012,-62.60097501902788
-0.2187,-62.77074037501168
-0.21970000000000012,-62.96879995699278
-0.2207,-63.322477781959044
-0.22170000000000012,-63.57712581593475
-0.2227,-63.803479623913155
-0.22370000000000012,-64.25618723986996
-0.2247,-64.62401217783489
-0.22570000000000012,-64.77963042082003
-0.2267,-65.03427845479574
-0.22770000000000012,-65.40210339276065
-0.22870000000000001,-65.61431008774039
-0.22970000000000013,-65.93969368670936
-0.23070000000000002,-66.44898975466076
-0.23170000000000013,-66.73193201463377
-0.23270000000000002,-66.91584448361623
-0.23370000000000013,-67.2695223085825
-0.23470000000000002,-67.6090530205501
-0.23570000000000013,-67.7788183765339
-0.23670000000000002,-68.16079042749746
-0.2376999999999999,-68.68423360844753
-0.23870000000000002,-68.92473452942457
-0.2396999999999999,-69.151088337403
-0.24070000000000003,-69.57550172736251
-0.24169999999999991,-69.8584439873355
-0.24270000000000003,-70.04235645631796
-0.24369999999999992,-70.53750541127073
-0.24470000000000003,-71.0326543662235
-0.24569999999999992,-71.2590081742019
-0.24670000000000003,-71.58439177317086
-0.24769999999999992,-71.9946580501317
-0.24870000000000003,-72.23515897110877
-0.24969999999999992,-72.48980700508447
-0.25070000000000003,-72.94251462104128
-0.2516999999999999,-73.40936934999675
-0.25270000000000004,-73.72060583596706
-0.2536999999999999,-74.10257788693062
-0.25470000000000004,-74.48454993789417
-0.2556999999999999,-74.7391979718699
-0.25670000000000004,-75.0787286838375
-0.25769999999999993,-75.55973052579161
-0.25870000000000004,-75.92755546375653
-0.25969999999999993,-76.35196885371603
-0.26070000000000004,-76.81882358267148
-0.26169999999999993,-77.11591295564315
-0.26270000000000004,-77.34226676362155
-0.26369999999999993,-77.7525330405824
-0.26470000000000005,-78.17694643054192
-0.26569999999999994,-78.48818291651223
-0.26670000000000005,-79.0399203234596
-0.26769999999999994,-79.59165773040696
-0.26870000000000005,-79.84630576438266
-0.26969999999999994,-80.12924802435568
-0.27070000000000005,-80.62439697930844
-0.27169999999999994,-80.99222191727335
-0.27270000000000005,-81.28931129024501
-0.27369999999999994,-81.88349003618832
-0.27470000000000006,-82.42108033013703
-0.27569999999999995,-82.6898754771114
-0.27670000000000006,-83.029406189079
-0.27769999999999995,-83.53870225703042
-0.27870000000000006,-83.86408585599938
-0.27969999999999995,-84.17532234196969
-0.28070000000000006,-84.72705974891704
-0.28169999999999995,-85.30709138186171
-0.28270000000000006,-85.66076920682796
-0.28369999999999995,-86.09932970978613
-0.28470000000000006,-86.5661844387416
-0.28569999999999995,-86.8774209247119
-0.28670000000000007,-87.28768720167277
-0.28769999999999996,-87.86771883461743
-0.28870000000000007,-88.39116201556749
-0.28969999999999996,-88.82972251852566
-0.29070000000000007,-89.35316569947572
-0.29169999999999996,-89.79172620243388
-0.29270000000000007,-90.08881557540555
-0.29369999999999996,-90.5839645303583
-0.2947000000000001,-91.12155482430701
-0.29569999999999996,-91.60255666626112
-0.2967000000000001,-92.14014696020983
-0.29769999999999996,-92.70603148015586
-0.2987000000000001,-93.07385641812076
-0.29969999999999997,-93.46997558208298
-0.3007000000000001,-94.05000721502763
-0.30169999999999997,-94.5168619439831
-0.3027000000000001,-95.01201089893587
-0.30369999999999997,-95.6344838708765
-0.3047000000000001,-96.21451550382113
-0.30569999999999997,-96.58234044178606
-0.3067000000000001,-97.06334228374017
-0.3077,-97.67166814268214
-0.3087000000000001,-98.09608153264163
-0.3097,-98.57708337459576
-0.3107000000000001,-99.36932170252018
-0.3117,-99.93520622246619
-0.3127000000000001,-100.35961961242569
-0.3137,-100.93965124537037
-0.3147000000000001,-101.54797710431234
-0.3157,-101.95824338127319
-0.3167000000000001,-102.4958336752219
-0.3177,-103.24563066415038
-0.3187000000000001,-103.86810363609099
-0.3197,-104.41984104303836
-0.3207000000000001,-105.08475535397493
-0.3217,-105.608198534925
-0.3227000000000001,-106.0609061508818
-0.3237,-106.69752623582107
-0.3247000000000001,-107.36244054675764
-0.3257,-107.88588372770771
-0.3267000000000001,-108.63568071663616
-0.3277,-109.37133059256598
-0.3287000000000001,-109.86647954751875
-0.3297,-110.37577561547016
-0.3307000000000001,-111.12557260439863
-0.3317,-111.77633980233655
-0.3327000000000001,-112.31393009628526
-0.3337,-113.16275687620428
-0.3347000000000001,-114.0115836561233
-0.3357,-114.53502683707337
-0.3367000000000001,-115.14335269601534
-0.3377,-115.90729679794246
-0.3387000000000001,-116.48732843088712
-0.3397,-117.15224274182368
-0.3407000000000001,-118.10009931273325
-0.3417,-118.87819052765903
-0.3427000000000001,-119.47236927360234
-0.3437,-120.23631337552946
-0.3447000000000001,-120.97196325145929
-0.3457,-121.55199488440397
-0.3467000000000001,-122.30179187333242
-0.3477,-123.26379555724066
-0.3487000000000001,-123.92870986817722
-0.3497,-124.59362417911379
-0.3507000000000001,-125.4707451850301
-0.3517,-126.19224794796128
-0.3527000000000001,-126.82886803290056
-0.3537,-127.74843037781281
-0.3547000000000001,-128.71043406172103
-0.3557,-129.41778971165354
-0.35670000000000013,-130.23832226557528
-0.3577,-131.1720317234862
-0.35870000000000013,-131.86524026042008
-0.3597,-132.5725959103526
-0.36070000000000013,-133.5770409332568
-0.3617,-134.52489750416635
-0.3626999999999999,-135.27469449309478
-0.3637,-136.2225510640044
-0.3646999999999999,-137.15626052191533
-0.3657,-137.84946905884914
-0.3666999999999999,-138.68414872576955
-0.3677,-139.716887974671
-0.3686999999999999,-140.6364503195833
-0.36970000000000003,-141.47112998650366
-0.3706999999999999,-142.4614278964092
-0.37170000000000003,-143.4517258063147
-0.3726999999999999,-144.15908145624724
-0.37370000000000003,-145.00790823616626
-0.3746999999999999,-145.9982061460718
-0.37570000000000003,-146.9885040559773
-0.3766999999999999,-147.97880196588284
-0.37770000000000004,-149.1105710057749
-0.3786999999999999,-149.95939778569388
-0.37970000000000004,-150.8082245656129
-0.3806999999999999,-151.7985224755184
-0.38170000000000004,-152.78882038542397
-0.38269999999999993,-153.77911829532948
-0.38370000000000004,-154.9108873352215
-0.38469999999999993,-156.04265637511355
-0.38570000000000004,-156.89148315503257
-0.38669999999999993,-156.04265637511355
-0.38570000000000004,-153.63764716534297
-0.38469999999999993,-151.37410908555893
-0.38370000000000004,-149.25204213576137
-0.38269999999999993,-147.55438857592333
-0.38170000000000004,-145.85673501608528
-0.3806999999999999,-144.01761032626072
-0.37970000000000004,-142.31995676642268
-0.3786999999999999,-140.7213329975752
-0.37770000000000004,-138.93879675974523
-0.3766999999999999,-137.2977316519018
-0.37570000000000003,-135.95375591703004
-0.3746999999999999,-134.41172060017715
-0.37370000000000003,-132.7706554923337
-0.3726999999999999,-131.34179707947
-0.37170000000000003,-129.79976176261712
-0.3706999999999999,-128.17284376777232
-0.36970000000000003,-126.72983824191
-0.3686999999999999,-125.34342116804225
-0.3677,-123.77309162519205
-0.3666999999999999,-122.2734976473351
-0.3657,-120.9153747994647
-0.3646999999999999,-119.4016337086091
-0.3637,-117.90203973075215
-0.3626999999999999,-116.60050533487632
-0.3617,-115.2423824870059
-0.36070000000000013,-113.84181830013951
-0.3597,-112.51198967826636
-0.35870000000000013,-111.1963081693919
-0.3577,-109.71086130453358
-0.35670000000000013,-108.3102971176672
-0.3557,-107.07949828678463
-0.3547000000000001,-105.8062581169061
-0.3537,-104.44813526903565
-0.3527000000000001,-103.23148355115173
-0.3517,-101.92994915527588
-0.3507000000000001,-100.45864940341626
-0.3497,-99.15711500754041
-0.3487000000000001,-97.95461040265513
-0.3477,-96.66722311977794
-0.3467000000000001,-95.42227717589672
-0.3457,-94.26221391000739
-0.3447000000000001,-92.94653240113291
-0.3437,-91.60255666626112
-0.3427000000000001,-90.45664051337044
-0.3417,-89.26828302148381
-0.3407000000000001,-88.05163130359989
-0.3397,-86.9623036027038
-0.3387000000000001,-85.81638744981312
-0.3377,-84.48655882793999
-0.3367000000000001,-83.26990711005605
-0.3357,-82.16643229616133
-0.3347000000000001,-80.87904501328414
-0.3337,-79.63409906940291
-0.3327000000000001,-78.68624249849334
-0.3317,-77.58276768459861
-0.3307000000000001,-76.29538040172143
-0.3297,-75.20605270082535
-0.3287000000000001,-74.17331345192387
-0.3277,-72.95666173403994
-0.3267000000000001,-71.86733403314386
-0.3257,-70.93362457523294
-0.3247000000000001,-69.88673821333282
-0.3237,-68.72667494744348
-0.3227000000000001,-67.7222299245393
-0.3217,-66.57631377164863
-0.3207000000000001,-65.38795627976201
-0.3197,-64.41180548285512
-0.3187000000000001,-63.421507572949594
-0.3177,-62.28973853305756
-0.3167000000000001,-61.384323301143944
-0.3157,-60.45061384323302
-0.3147000000000001,-59.304697690342344
-0.3137,-58.18707576344896
-0.3127000000000001,-57.25336630553804
-0.3117,-56.333803960625765
-0.3107000000000001,-55.357653163718886
-0.3097,-54.480532157802564
-0.3087000000000001,-53.56096981289029
-0.3077,-52.45749499899556
-0.3067000000000001,-51.46719708909004
-0.30569999999999997,-50.59007608317371
-0.3047000000000001,-49.557336834272235
-0.30369999999999997,-48.65192160235861
-0.3027000000000001,-47.84553616143554
-0.30169999999999997,-46.89767959052597
-0.3007000000000001,-45.85079322862584
-0.29969999999999997,-44.95952510971087
-0.2987000000000001,-44.110698329791845
-0.29769999999999996,-43.19113598487957
-0.2967000000000001,-42.39889765695515
-0.29569999999999996,-41.649100668026676
-0.2947000000000001,-40.68709698411846
-0.29369999999999996,-39.739240413208876
-0.29270000000000007,-38.94700208528445
-0.29169999999999996,-38.05573396636949
-0.29070000000000007,-37.164465847454515
-0.28969999999999996,-36.48540442351929
-0.28870000000000007,-35.721460321592176
-0.28769999999999996,-34.787750863681254
-0.28670000000000007,-33.95307119676088
-0.28569999999999995,-33.203274207832415
-0.28470000000000006,-32.32615320191609
-0.28369999999999995,-31.519767760993016
-0.28270000000000006,-30.968030354045652
-0.28169999999999995,-30.161644913122586
-0.28070000000000006,-29.22793545521166
-0.27969999999999995,-28.506432692280487
-0.27870000000000006,-27.742488590353368
-0.27769999999999995,-26.851220471438396
-0.27670000000000006,-26.20045327350048
-0.27569999999999995,-25.662862979551768
-0.27470000000000006,-24.856477538628695
-0.27369999999999994,-24.035944984706973
-0.27270000000000005,-23.399324899767706
-0.27169999999999994,-22.621233684841933
-0.27070000000000005,-21.800701130920213
-0.26969999999999994,-21.277257949970153
-0.26870000000000005,-20.711373430024135
-0.26769999999999994,-19.862546650105116
-0.26670000000000005,-19.155191000172596
-0.26569999999999994,-18.561012254229283
