Potential V vs RHE, Current mA cm-2
0.013299999999999867,-1.0490084288499246
0.012299999999999978,-5.017980980621284
0.011299999999999866,-7.853062425550818
0.010299999999999976,-9.99069119964689
0.009299999999999864,-11.604876792792895
0.008299999999999974,-12.781916594280606
0.007299999999999862,-13.610937416001518
0.006299999999999972,-14.217848563643619
0.00529999999999986,-14.925204213576137
0.0042999999999999705,-15.70329542850191
0.0032999999999998586,-16.354062626439823
0.0022999999999999687,-16.919947146385837
0.0012999999999998568,-17.2736249713521
0.00029999999999996696,-17.358507649344002
-0.000700000000000145,-17.627302796318357
-0.0017000000000000348,-17.924392169290012
-0.0027000000000001467,-18.320511333252224
-0.0037000000000000366,-18.80151317520634
-0.0047000000000001485,-18.97127853119014
-0.005700000000000038,-19.01371987018609
-0.00670000000000015,-19.056161209182044
-0.00770000000000004,-19.056161209182044
-0.008700000000000152,-19.3249563561564
-0.009700000000000042,-19.636192842126707
-0.010700000000000154,-19.93328221509837
-0.011700000000000044,-20.06060623208622
-0.012700000000000156,-19.97572355409432
-0.013700000000000045,-19.890840876102416
-0.014700000000000157,-19.97572355409432
-0.015700000000000047,-20.10304757108217
-0.01670000000000016,-20.456725396048434
-0.01770000000000005,-20.584049413036283
-0.01870000000000016,-20.541608074040333
-0.01970000000000005,-20.456725396048434
-0.020700000000000163,-20.371842718056527
-0.021700000000000053,-20.456725396048434
-0.022700000000000164,-20.72552054302279
-0.023700000000000054,-20.93772723800254
-0.024700000000000166,-21.065051254990397
-0.025700000000000056,-20.93772723800254
-0.026700000000000168,-20.76796188201874
-0.027700000000000058,-20.76796188201874
-0.02870000000000017,-20.89528589900659
-0.02970000000000006,-21.107492593986347
-0.03070000000000017,-21.291405062968803
-0.03170000000000006,-21.291405062968803
-0.03270000000000017,-21.149933932982297
-0.03370000000000006,-21.022609915994444
-0.034700000000000175,-20.980168576998494
-0.035700000000000065,-21.2065223849769
-0.03670000000000018,-21.461170418952605
-0.03770000000000007,-21.58849443594046
-0.03870000000000018,-21.54605309694451
-0.03970000000000007,-21.376287740960702
-0.04070000000000018,-21.291405062968803
-0.04170000000000007,-21.291405062968803
-0.04270000000000018,-21.461170418952605
-0.04370000000000007,-21.729965565926964
-0.044700000000000184,-21.772406904922917
-0.045700000000000074,-21.63093577493641
-0.046700000000000186,-21.54605309694451
-0.047700000000000076,-21.418729079956652
-0.04870000000000019,-21.54605309694451
-0.04970000000000008,-21.729965565926964
-0.05070000000000019,-21.899730921910766
-0.05170000000000008,-21.98461359990267
-0.05270000000000019,-21.772406904922917
-0.05370000000000008,-21.58849443594046
-0.05470000000000019,-21.63093577493641
-0.05570000000000008,-21.729965565926964
-0.056700000000000195,-21.98461359990267
-0.057700000000000085,-22.111937616890522
-0.058700000000000196,-22.027054938898623
-0.059700000000000086,-21.94217226090672
-0.0607000000000002,-21.814848243918867
-0.06170000000000009,-21.899730921910766
-0.0627000000000002,-22.111937616890522
-0.06370000000000009,-22.295850085872978
-0.0647000000000002,-22.33829142486893
-0.06570000000000009,-22.196820294882425
-0.0667000000000002,-22.027054938898623
-0.0677000000000001,-22.027054938898623
-0.0687000000000002,-22.15437895588647
-0.0697000000000001,-22.33829142486893
-0.07070000000000021,-22.592939458844636
-0.0717000000000001,-22.550498119848687
-0.07270000000000021,-22.38073276386488
-0.0737000000000001,-22.253408746877028
-0.07470000000000021,-22.253408746877028
-0.0757000000000001,-22.42317410286083
-0.07670000000000021,-22.63538079784059
-0.0777000000000001,-22.776851927827092
-0.07870000000000021,-22.67782213683654
-0.0797000000000001,-22.550498119848687
-0.08070000000000022,-22.508056780852733
-0.0817000000000001,-22.550498119848687
-0.08270000000000022,-22.776851927827092
-0.08370000000000011,-22.989058622806844
-0.08470000000000022,-23.031499961802798
-0.08570000000000011,-22.989058622806844
-0.08670000000000022,-22.904175944814945
-0.08770000000000011,-22.861734605818995
-0.08870000000000022,-23.031499961802798
-0.08970000000000011,-23.2012653177866
-0.09070000000000022,-23.427619125765005
-0.09170000000000011,-23.47006046476096
-0.09270000000000023,-23.342736447773106
-0.09370000000000012,-23.15882397879065
-0.09470000000000023,-23.2012653177866
-0.09570000000000012,-23.342736447773106
-0.09670000000000023,-23.639825820744765
-0.09770000000000012,-23.767149837732617
-0.09870000000000023,-23.724708498736668
-0.09970000000000012,-23.682267159740714
-0.10070000000000023,-23.55494314275286
-0.10170000000000012,-23.639825820744765
-0.10270000000000024,-23.951062306715073
-0.10370000000000013,-24.16326900169483
-0.10470000000000024,-24.290593018682678
-0.10570000000000013,-24.20571034069078
-0.10670000000000024,-24.078386323702922
-0.10770000000000013,-24.078386323702922
-0.10870000000000024,-24.24815167968673
-0.10970000000000013,-24.474505487665134
-0.11070000000000024,-24.771594860636792
-0.11170000000000013,-24.814036199632742
-0.11270000000000002,-24.771594860636792
-0.11370000000000013,-24.686712182644893
-0.11470000000000002,-24.686712182644893
-0.11570000000000014,-24.95550732961925
-0.11670000000000003,-25.210155363594954
-0.11770000000000014,-25.43650917157336
-0.11870000000000003,-25.478950510569312
-0.11970000000000014,-25.337479380582806
-0.12070000000000003,-25.337479380582806
-0.12170000000000014,-25.39406783257741
-0.12270000000000003,-25.60627452755716
-0.12370000000000014,-25.91751101352747
-0.12470000000000003,-26.087276369511276
-0.12570000000000014,-26.002393691519377
-0.12670000000000003,-25.959952352523427
-0.12770000000000015,-26.002393691519377
-0.12870000000000004,-26.21460038649913
-0.12970000000000015,-26.483395533473487
-0.13070000000000004,-26.738043567449193
-0.13170000000000015,-26.86536758443705
-0.13270000000000004,-26.780484906445146
-0.13370000000000015,-26.738043567449193
-0.13470000000000004,-26.907808923433
-0.13570000000000015,-27.091721392415455
-0.13670000000000004,-27.43125210438306
-0.13770000000000016,-27.65760591236147
-0.13870000000000005,-27.700047251357418
-0.13970000000000016,-27.615164573365515
-0.14070000000000005,-27.65760591236147
-0.14170000000000016,-27.742488590353368
-0.14270000000000005,-28.13860775431558
-0.14370000000000016,-28.393255788291288
-0.14470000000000005,-28.577168257273744
-0.14570000000000016,-28.577168257273744
-0.14670000000000005,-28.478138466283188
-0.14770000000000016,-28.619609596269694
-0.14870000000000005,-28.831816291249446
-0.14970000000000017,-29.14305277721976
-0.15070000000000006,-29.440142150191413
-0.15170000000000017,-29.581613280177915
-0.15270000000000006,-29.581613280177915
-0.15370000000000017,-29.525024828183312
-0.15470000000000006,-29.66649595816982
-0.15570000000000017,-29.96358533114148
-0.15670000000000006,-30.317263156107735
-0.15770000000000017,-30.571911190083444
-0.15870000000000006,-30.71338232006995
-0.15970000000000018,-30.670940981073993
-0.16070000000000007,-30.7558236590659
-0.16170000000000018,-30.925589015049702
-0.16270000000000007,-31.23682550102001
-0.16370000000000018,-31.661238890979522
-0.16470000000000007,-31.930034037953877
-0.16570000000000018,-31.972475376949827
-0.16670000000000007,-31.930034037953877
-0.16770000000000018,-32.01491671594578
-0.16870000000000007,-32.32615320191609
-0.16970000000000018,-32.66568391388369
-0.17070000000000007,-32.93447906085806
-0.17170000000000019,-33.231568433829715
-0.17270000000000008,-33.231568433829715
-0.1737000000000002,-33.231568433829715
-0.17470000000000008,-33.45792224180811
-0.1757000000000002,-33.755011614779775
-0.17670000000000008,-34.193572117737936
-0.1777000000000002,-34.5472499427042
-0.17870000000000008,-34.632132620696105
-0.1797000000000002,-34.67457395969205
-0.18070000000000008,-34.717015298688004
-0.1817000000000002,-34.94336910666641
-0.18270000000000008,-35.282899818634014
-0.1837000000000002,-35.721460321592176
-0.1847000000000001,-35.99025546856653
-0.1857000000000002,-36.07513814655844
-0.1867000000000001,-36.11757948555439
-0.1877000000000002,-36.244903502542236
-0.1887000000000001,-36.55613998851254
-0.1897000000000002,-36.95225915247476
-0.1907000000000001,-37.334231203438314
-0.1917000000000001,-37.56058501141672
-0.19269999999999998,-37.60302635041268
-0.1937000000000001,-37.687909028404576
-0.19469999999999998,-37.85767438438838
-0.1957000000000001,-38.253793548350586
-0.19669999999999999,-38.6499127123128
-0.1977000000000001,-39.046031876275016
-0.1987,-39.258238571254765
-0.1997000000000001,-39.30067991025072
-0.2007,-39.42800392723857
-0.2017000000000001,-39.696799074212926
-0.2027,-40.092918238175145
-0.2037000000000001,-40.51733162813464
-0.2047,-40.87100945310091
-0.2057000000000001,-40.95589213109281
-0.2067,-40.99833347008877
-0.2077000000000001,-41.139804600075266
-0.2087,-41.52177665103883
-0.2097000000000001,-41.91789581500104
-0.2107,-42.3564563179592
-0.2117000000000001,-42.6111043519349
-0.2127,-42.71013414292546
-0.2137000000000001,-42.837458159913304
-0.2147,-43.04966485489307
-0.2157000000000001,-43.57310803584313
-0.2167,-43.96922719980534
-0.21770000000000012,-44.4077877027635
-0.2187,-44.535111719751356
-0.21970000000000012,-44.66243573673921
-0.2207,-44.80390686672572
-0.22170000000000012,-45.05855490070142
-0.2227,-45.581998081651484
-0.22370000000000012,-46.062999923605595
-0.2247,-46.41667774857186
-0.22570000000000012,-46.628884443551605
-0.2267,-46.713767121543505
-0.22770000000000012,-46.94012092952192
-0.22870000000000001,-47.36453431948143
-0.22970000000000013,-47.76065348344364
-0.23070000000000002,-48.24165532539775
-0.23170000000000013,-48.51045047237211
-0.23270000000000002,-48.72265716735186
-0.23370000000000013,-48.80753984534376
-0.23470000000000002,-49.118776331314066
-0.23570000000000013,-49.557336834272235
-0.23670000000000002,-50.024191563227696
-0.2376999999999999,-50.46275206618586
-0.23870000000000002,-50.73154721316022
-0.2396999999999999,-50.85887123014807
-0.24070000000000003,-51.071077925127824
-0.24169999999999991,-51.38231441109813
-0.24270000000000003,-51.90575759204819
-0.24369999999999992,-52.471642111994214
-0.24470000000000003,-52.82531993696047
-0.24569999999999992,-53.079967970936174
-0.24670000000000003,-53.16485064892808
-0.24769999999999992,-53.39120445690648
-0.24870000000000003,-53.91464763785655
-0.24969999999999992,-54.43809081880661
-0.25070000000000003,-54.919092660760725
-0.2516999999999999,-55.357653163718886
-0.25270000000000004,-55.527418519702685
-0.2536999999999999,-55.6971838756865
-0.25470000000000004,-56.008420361656796
-0.2556999999999999,-56.489422203610914
-0.25670000000000004,-57.097748062552874
-0.25769999999999993,-57.493867226515086
-0.25870000000000004,-57.7485152604908
-0.25969999999999993,-57.974869068469204
-0.26070000000000004,-58.18707576344896
-0.26169999999999993,-58.54075358841522
-0.26270000000000004,-59.06419676936528
-0.26369999999999993,-59.6300812893113
-0.26470000000000005,-60.06864179226946
-0.26569999999999994,-60.32328982624517
-0.26670000000000005,-60.54964363422357
-0.26769999999999994,-60.889174346191176
-0.26870000000000005,-61.37017618814529
-0.26969999999999994,-61.89361936909536
-0.27070000000000005,-62.41706255004542
-0.27169999999999994,-62.81318171400764
-0.27270000000000005,-63.06782974798333
-0.27369999999999994,-63.20930087796983
-0.27470000000000006,-63.54883158993744
-0.27569999999999995,-64.11471610988345
-0.27670000000000006,-64.72304196882543
-0.27769999999999995,-65.2464851497755
-0.27870000000000006,-65.64260431373769
-0.27969999999999995,-65.91139946071206
-0.28070000000000006,-66.25093017267966
-0.28169999999999995,-66.64704933664189
-0.28270000000000006,-67.25537519558385
-0.28369999999999995,-67.96273084551636
-0.28470000000000006,-68.44373268747047
-0.28569999999999995,-68.78326339943808
-0.28670000000000007,-69.0944998854084
-0.28769999999999996,-69.39158925838004
-0.28870000000000007,-69.95747377832606
-0.28969999999999996,-70.62238808926263
-0.29070000000000007,-71.31559662619651
-0.29169999999999996,-71.92392248513846
-0.29270000000000007,-72.23515897110877
-0.29369999999999996,-72.63127813507097
-0.2947000000000001,-73.09813286402644
-0.29569999999999996,-73.6781644969711
-0.2967000000000001,-74.41381437290093
-0.29769999999999996,-75.06458157083884
-0.2987000000000001,-75.5880247517889
-0.29969999999999997,-76.02658525474708
-0.3007000000000001,-76.38026307971333
-0.30169999999999997,-76.9037062606634
-0.3027000000000001,-77.59691479759726
-0.30369999999999997,-78.29012333453113
-0.3047000000000001,-78.9550376454677
-0.30569999999999997,-79.37945103542721
-0.3067000000000001,-79.73312886039348
-0.3077,-80.21413070234757
-0.3087000000000001,-80.7800152222936
-0.3097,-81.51566509822342
-0.3107000000000001,-82.35034476514379
-0.3117,-82.95867062408576
-0.3127000000000001,-83.48211380503581
-0.3137,-83.92067430799398
-0.3147000000000001,-84.52900016693594
-0.3157,-85.32123849486035
-0.3167000000000001,-86.18421238777805
-0.3177,-86.97645071570246
-0.3187000000000001,-87.66965925263632
-0.3197,-88.19310243358639
-0.3207000000000001,-88.7589869535324
-0.3217,-89.42390126446898
-0.3227000000000001,-90.28687515738663
-0.3237,-91.24887884129487
-0.3247000000000001,-92.08355850821525
-0.3257,-92.73432570615316
-0.3267000000000001,-93.34265156509512
-0.3277,-93.99341876303303
-0.3287000000000001,-94.87053976894937
-0.3297,-95.79010211386164
-0.3307000000000001,-96.73795868477121
-0.3317,-97.61507969068752
-0.3327000000000001,-98.13852287163759
-0.3337,-98.74684873057957
-0.3347000000000001,-99.49664571950804
-0.3357,-100.45864940341626
-0.3367000000000001,-101.59041844330828
-0.3377,-102.5524221272165
-0.3387000000000001,-103.41539602013418
-0.3397,-104.25007568705455
-0.3407000000000001,-104.98572556298437
-0.3417,-105.99017058588855
-0.3427000000000001,-107.12193962578058
-0.3437,-108.3102971176672
-0.3447000000000001,-109.35718347956733
-0.3457,-110.1352746944931
-0.3467000000000001,-110.87092457042293
-0.3477,-111.7904869153352
-0.3487000000000001,-112.79493193823936
-0.3497,-113.92670097813141
-0.3507000000000001,-115.10091135701937
-0.3517,-116.14779771891952
-0.3527000000000001,-117.06736006383179
-0.3537,-117.90203973075215
-0.3547000000000001,-118.90648475365633
-0.3557,-120.20801914953216
-0.35670000000000013,-121.43881798041474
-0.3577,-122.69791103729463
-0.35870000000000013,-123.82968007718667
-0.3597,-124.7916837610949
-0.36070000000000013,-125.7536874450031
-0.3617,-126.88545648489513
-0.3626999999999999,-128.2294322197669
-0.3637,-129.6299964066333
-0.3646999999999999,-130.84664812451723
-0.3657,-131.89353448641737
-0.3666999999999999,-132.89797950932152
-0.3677,-134.04389566221224
-0.3686999999999999,-135.387871397084
-0.36970000000000003,-136.7884355839504
-0.3706999999999999,-138.23144110981272
-0.37170000000000003,-139.57541684468453
-0.3726999999999999,-140.74962722357247
-0.37370000000000003,-141.89554337646317
-0.3746999999999999,-143.16878354634173
-0.37570000000000003,-144.44202371622026
-0.3766999999999999,-146.1396772760583
-0.37770000000000004,-147.55438857592333
-0.3786999999999999,-148.96909987578834
-0.37970000000000004,-150.24234004566688
-0.3806999999999999,-151.5155802155454
-0.38170000000000004,-152.93029151541046
-0.38269999999999993,-154.486473945262
-0.38370000000000004,-156.04265637511355
-0.38469999999999993,-157.7403099349516
-0.38570000000000004,-159.01355010483013
-0.38669999999999993,-156.46706976507306
-0.38570000000000004,-149.1105710057749
-0.38469999999999993,-144.01761032626072
-0.38370000000000004,-140.01397734764268
-0.38269999999999993,-136.51964043697603
-0.38170000000000004,-133.29409867328377
-0.3806999999999999,-130.11099824858744
-0.37970000000000004,-127.09766317987489
-0.3786999999999999,-124.26824058014482
-0.37770000000000004,-121.73590735338641
-0.3766999999999999,-119.38748659561045
-0.37570000000000003,-117.10980140282774
-0.3746999999999999,-114.67649796705987
-0.37370000000000003,-112.18660607929739
-0.3726999999999999,-109.69671419153494
-0.37170000000000003,-107.34829343375898
-0.3706999999999999,-105.29696204895468
-0.36970000000000003,-103.28807200314633
-0.3686999999999999,-101.10941660135417
-0.3677,-98.88831986056607
-0.3666999999999999,-96.61063466778336
-0.3657,-94.5168619439831
-0.3646999999999999,-92.6070016891653
-0.3637,-90.81031833833671
-0.3626999999999999,-89.11266477849867
-0.3617,-87.23109874967815
-0.36070000000000013,-85.23635581686847
-0.3597,-83.22746577106011
-0.35870000000000013,-81.30345840324367
-0.3577,-79.64824618240156
-0.35670000000000013,-78.07791663955136
-0.3557,-76.42270441870929
-0.3547000000000001,-74.72505085887124
-0.3537,-72.8859261690467
-0.3527000000000001,-71.06094859222078
-0.3517,-69.4906190493706
-0.3507000000000001,-68.0051721845123
-0.3497,-66.64704933664189
-0.3487000000000001,-65.16160247178358
-0.3477,-63.54883158993744
-0.3467000000000001,-61.89361936909536
-0.3457,-60.28084848724921
-0.3447000000000001,-58.83784296138688
-0.3437,-57.53630856551105
-0.3427000000000001,-56.26306839563251
-0.3417,-54.876651321764776
-0.3407000000000001,-53.30632177891458
-0.3397,-51.73599223606439
-0.3387000000000001,-50.29298671020206
-0.3377,-49.118776331314066
-0.3367000000000001,-47.93041883942744
-0.3357,-46.79864979953541
-0.3347000000000001,-45.45467406466363
-0.3337,-44.054109877797245
-0.3327000000000001,-42.653545690930855
-0.3317,-41.39445263405098
-0.3307000000000001,-40.3900076111468
-0.3297,-39.38556258824262
-0.3287000000000001,-38.29623488734655
-0.3277,-37.037141830466666
-0.3267000000000001,-35.721460321592176
-0.3257,-34.50480860370825
-0.3247000000000001,-33.50036358080407
-0.3237,-32.53835989689585
-0.3227000000000001,-31.618797551983565
-0.3217,-30.571911190083444
-0.3207000000000001,-29.35525947219951
-0.3197,-28.18104909331153
-0.3187000000000001,-27.00683871442355
-0.3177,-26.087276369511276
-0.3167000000000001,-25.252596702590903
-0.3157,-24.389622809673234
-0.3147000000000001,-23.427619125765005
-0.3137,-22.38073276386488
-0.3127000000000001,-21.291405062968803
-0.3117,-20.414284057052477
-0.3107000000000001,-19.678634181122664
-0.3097,-19.01371987018609
-0.3087000000000001,-18.23562865526032
-0.3077,-17.2736249713521
-0.3067000000000001,-16.269179948447924
-0.30569999999999997,-15.307176264539699
-0.3047000000000001,-14.57152638860988
-0.30369999999999997,-13.916515056772363
-0.3027000000000001,-13.30535977523067
-0.30169999999999997,-12.520195003805576
-0.3007000000000001,-11.604876792792895
-0.29969999999999997,-10.601846481188586
-0.2987000000000001,-9.85912304875944
-0.29769999999999996,-9.161670377925978
-0.2967000000000001,-8.638227196975913
-0.29569999999999996,-8.027071915434218
-0.2947000000000001,-7.199465805013171
-0.29369999999999996,-6.37044498329226
-0.29270000000000007,-5.497568111275533
-0.29169999999999996,-4.800115440442069
-0.29070000000000007,-4.364384360083638
-0.28969999999999996,-3.7970851288377587
-0.28870000000000007,-3.273641947887695
-0.28769999999999996,-2.4884771764625997
-0.28670000000000007,-1.6594563547416883
-0.28569999999999995,-0.9181476336124089
-0.28470000000000006,-0.3511313446265021
-0.28369999999999995,0.08502414912188871
-0.28270000000000006,0.4776065348344364
-0.28169999999999995,1.0881959318561862
-0.28070000000000006,1.8292217107254924
-0.27969999999999995,2.5705304318547717
-0.27870000000000006,3.225541763692284
-0.27769999999999995,3.661272844050715
-0.27670000000000006,4.01070653511738
-0.27569999999999995,4.44643761547581
-0.27470000000000006,4.9698807964258735
-0.27369999999999994,5.7111895175551535
-0.27270000000000005,6.366200849392665
-0.27169999999999994,6.889644030342729
-0.27070000000000005,7.281519060405343
-0.26969999999999994,7.543240650880375
-0.26870000000000005,7.980386442538672
-0.26769999999999994,8.546270962484687
-0.26670000000000005,9.287579683613965
