Potential V vs RHE, Current mA cm-2
0.013299999999999867,-1.4854468648582886
0.012299999999999978,-5.977155241929781
0.011299999999999866,-8.899948787450944
0.010299999999999976,-11.123874950838783
0.009299999999999864,-12.781916594280606
0.008299999999999974,-14.217848563643619
0.007299999999999862,-15.575971411514052
0.006299999999999972,-16.750181790402035
0.00529999999999986,-17.75462681330621
0.0042999999999999705,-18.589306480226583
0.0032999999999998586,-19.155191000172596
0.0022999999999999687,-19.636192842126707
0.0012999999999998568,-20.01816489309027
0.00029999999999996696,-20.456725396048434
-0.000700000000000145,-20.93772723800254
-0.0017000000000000348,-21.461170418952605
-0.0027000000000001467,-21.94217226090672
-0.0037000000000000366,-22.38073276386488
-0.0047000000000001485,-22.592939458844636
-0.005700000000000038,-22.776851927827092
-0.00670000000000015,-22.861734605818995
-0.00770000000000004,-22.989058622806844
-0.008700000000000152,-23.300295108777156
-0.009700000000000042,-23.597384481748815
-0.010700000000000154,-23.908620967719123
-0.011700000000000044,-24.20571034069078
-0.012700000000000156,-24.34718147067728
-0.013700000000000045,-24.389622809673234
-0.014700000000000157,-24.389622809673234
-0.015700000000000047,-24.34718147067728
-0.01670000000000016,-24.474505487665134
-0.01770000000000005,-24.64427084364894
-0.01870000000000016,-24.95550732961925
-0.01970000000000005,-25.210155363594954
-0.020700000000000163,-25.337479380582806
-0.021700000000000053,-25.295038041586857
-0.022700000000000164,-25.252596702590903
-0.023700000000000054,-25.167714024599
-0.024700000000000166,-25.167714024599
-0.025700000000000056,-25.337479380582806
-0.026700000000000168,-25.521391849565262
-0.027700000000000058,-25.73359854454502
-0.02870000000000017,-25.81848122253692
-0.02970000000000006,-25.86092256153287
-0.03070000000000017,-25.86092256153287
-0.03170000000000006,-25.691157205549064
-0.03270000000000017,-25.691157205549064
-0.03370000000000006,-25.73359854454502
-0.034700000000000175,-25.91751101352747
-0.035700000000000065,-26.129717708507226
-0.03670000000000018,-26.257041725495082
-0.03770000000000007,-26.257041725495082
-0.03870000000000018,-26.17215904750318
-0.03970000000000007,-26.087276369511276
-0.04070000000000018,-26.044835030515326
-0.04170000000000007,-26.044835030515326
-0.04270000000000018,-26.17215904750318
-0.04370000000000007,-26.34192440348698
-0.044700000000000184,-26.525836872469437
-0.045700000000000074,-26.61071955046134
-0.046700000000000186,-26.61071955046134
-0.047700000000000076,-26.483395533473487
-0.04870000000000019,-26.34192440348698
-0.04970000000000008,-26.34192440348698
-0.05070000000000019,-26.38436574248293
-0.05170000000000008,-26.61071955046134
-0.05270000000000019,-26.780484906445146
-0.05370000000000008,-26.907808923433
-0.05470000000000019,-26.907808923433
-0.05570000000000008,-26.780484906445146
-0.056700000000000195,-26.69560222845324
-0.057700000000000085,-26.65316088945729
-0.058700000000000196,-26.69560222845324
-0.059700000000000086,-26.86536758443705
-0.0607000000000002,-27.049280053419505
-0.06170000000000009,-27.261486748399253
-0.0627000000000002,-27.34636942639116
-0.06370000000000009,-27.219045409403304
-0.0647000000000002,-27.091721392415455
-0.06570000000000009,-27.00683871442355
-0.0667000000000002,-27.00683871442355
-0.0677000000000001,-27.176604070407354
-0.0687000000000002,-27.303928087395207
-0.0697000000000001,-27.530281895373616
-0.07070000000000021,-27.615164573365515
-0.0717000000000001,-27.530281895373616
-0.07270000000000021,-27.38881076538711
-0.0737000000000001,-27.303928087395207
-0.07470000000000021,-27.303928087395207
-0.0757000000000001,-27.43125210438306
-0.07670000000000021,-27.572723234369565
-0.0777000000000001,-27.78492992934932
-0.07870000000000021,-27.869812607341224
-0.0797000000000001,-27.827371268345274
-0.08070000000000022,-27.78492992934932
-0.0817000000000001,-27.65760591236147
-0.08270000000000022,-27.615164573365515
-0.08370000000000011,-27.65760591236147
-0.08470000000000022,-27.869812607341224
-0.08570000000000011,-28.05372507632368
-0.08670000000000022,-28.22349043230748
-0.08770000000000011,-28.308373110299385
-0.08870000000000022,-28.22349043230748
-0.08970000000000011,-28.13860775431558
-0.09070000000000022,-28.011283737327723
-0.09170000000000011,-28.05372507632368
-0.09270000000000023,-28.22349043230748
-0.09370000000000012,-28.435697127287238
-0.09470000000000023,-28.662050935265643
-0.09570000000000012,-28.746933613257543
-0.09670000000000023,-28.704492274261593
-0.09770000000000012,-28.619609596269694
-0.09870000000000023,-28.478138466283188
-0.09970000000000012,-28.577168257273744
-0.10070000000000023,-28.704492274261593
-0.10170000000000012,-28.8742576302454
-0.10270000000000024,-29.14305277721976
-0.10370000000000013,-29.27037679420761
-0.10470000000000024,-29.31281813320356
-0.10570000000000013,-29.27037679420761
-0.10670000000000024,-29.14305277721976
-0.10770000000000013,-29.18549411621571
-0.10870000000000024,-29.27037679420761
-0.10970000000000013,-29.525024828183312
-0.11070000000000024,-29.793819975157668
-0.11170000000000013,-29.921143992145527
-0.11270000000000002,-30.04846800913338
-0.11370000000000013,-30.04846800913338
-0.11470000000000002,-29.96358533114148
-0.11570000000000014,-29.96358533114148
-0.11670000000000003,-30.00602667013743
-0.11770000000000014,-30.232380478115836
-0.11870000000000003,-30.529469851087494
-0.11970000000000014,-30.71338232006995
-0.12070000000000003,-30.925589015049702
-0.12170000000000014,-30.8407063370578
-0.12270000000000003,-30.8407063370578
-0.12370000000000014,-30.7558236590659
-0.12470000000000003,-30.8407063370578
-0.12570000000000014,-31.052913032037555
-0.12670000000000003,-31.321708179011907
-0.12770000000000015,-31.57635621298762
-0.12870000000000004,-31.802710020966025
-0.12970000000000015,-31.887592698957924
-0.13070000000000004,-31.887592698957924
-0.13170000000000015,-31.887592698957924
-0.13270000000000004,-31.887592698957924
-0.13370000000000015,-32.05735805494172
-0.13470000000000004,-32.41103587990799
-0.13570000000000015,-32.62324257488775
-0.13670000000000004,-32.93447906085806
-0.13770000000000016,-33.01936173884996
-0.13870000000000005,-33.06180307784591
-0.13970000000000016,-33.06180307784591
-0.14070000000000005,-33.06180307784591
-0.14170000000000016,-33.18912709483376
-0.14270000000000005,-33.45792224180811
-0.14370000000000016,-33.755011614779775
-0.14470000000000005,-34.15113077874198
-0.14570000000000016,-34.33504324772444
-0.14670000000000005,-34.377484586720385
-0.14770000000000016,-34.41992592571634
-0.14870000000000005,-34.41992592571634
-0.14970000000000017,-34.50480860370825
-0.15070000000000006,-34.8018979766799
-0.15170000000000017,-35.11313446265021
-0.15270000000000006,-35.42437094862052
-0.15370000000000017,-35.679018982596226
-0.15470000000000006,-35.806342999584075
-0.15570000000000017,-35.848784338580025
-0.15670000000000006,-35.90537279057463
-0.15770000000000017,-36.03269680756248
-0.15870000000000006,-36.20246216354629
-0.15970000000000018,-36.5136986495166
-0.16070000000000007,-36.89567070048016
-0.16170000000000018,-37.206907186450465
-0.16270000000000007,-37.41911388143023
-0.16370000000000018,-37.51814367242077
-0.16470000000000007,-37.60302635041268
-0.16570000000000018,-37.73035036740053
-0.16670000000000007,-37.85767438438838
-0.16770000000000018,-38.12646953136274
-0.16870000000000007,-38.522588695324956
-0.16970000000000018,-38.86211940729255
-0.17070000000000007,-39.130914554266916
-0.17170000000000019,-39.258238571254765
-0.17270000000000008,-39.258238571254765
-0.1737000000000002,-39.34312124924667
-0.17470000000000008,-39.51288660523048
-0.1757000000000002,-39.82412309120078
-0.17670000000000008,-40.177800916167044
-0.1777000000000002,-40.559772967130606
-0.17870000000000008,-40.828568114104954
-0.1797000000000002,-41.04077480908471
-0.18070000000000008,-41.083216148080666
-0.1817000000000002,-41.139804600075266
-0.18270000000000008,-41.39445263405098
-0.1837000000000002,-41.606659329030734
-0.1847000000000001,-42.00277849299294
-0.1857000000000002,-42.3564563179592
-0.1867000000000001,-42.752575481921404
-0.1877000000000002,-43.007223515897124
-0.1887000000000001,-43.09210619388902
-0.1897000000000002,-43.17698887188092
-0.1907000000000001,-43.36090134086337
-0.1917000000000001,-43.57310803584313
-0.19269999999999998,-43.96922719980534
-0.1937000000000001,-44.3229050247716
-0.19469999999999998,-44.74731841473111
-0.1957000000000001,-45.10099623969737
-0.19669999999999999,-45.22832025668522
-0.1977000000000001,-45.36979138667173
-0.1987,-45.497115403659585
-0.1997000000000001,-45.70932209863933
-0.2007,-46.062999923605595
-0.2017000000000001,-46.501560426563756
-0.2027,-46.94012092952192
-0.2037000000000001,-47.27965164148953
-0.2047,-47.506005449467935
-0.2057000000000001,-47.633329466455784
-0.2067,-47.76065348344364
-0.2077000000000001,-47.93041883942744
-0.2087,-48.2840966643937
-0.2097000000000001,-48.72265716735186
-0.2107,-49.16121767031002
-0.2117000000000001,-49.557336834272235
-0.2127,-49.89686754623985
-0.2137000000000001,-50.0807800152223
-0.2147,-50.29298671020206
-0.2157000000000001,-50.64666453516831
-0.2167,-50.90131256914402
-0.21770000000000012,-51.33987307210218
-0.2187,-51.82087491405629
-0.21970000000000012,-52.30187675601041
-0.2207,-52.59896612898206
-0.22170000000000012,-52.82531993696047
-0.2227,-53.079967970936174
-0.22370000000000012,-53.16485064892808
-0.2247,-53.433645795902436
-0.22570000000000012,-53.82976495986464
-0.2267,-54.31076680181876
-0.22770000000000012,-54.834209982768826
-0.22870000000000001,-55.21618203373238
-0.22970000000000013,-55.56985985869864
-0.23070000000000002,-55.838655005673
-0.23170000000000013,-55.96597902266086
-0.23270000000000002,-56.30550973462846
-0.23370000000000013,-56.65918755959472
-0.23470000000000002,-57.14018940154883
-0.23570000000000013,-57.70607392149485
-0.23670000000000002,-58.10219308545706
-0.2376999999999999,-58.498312249419264
-0.23870000000000002,-58.75296028339497
-0.2396999999999999,-58.97931409137338
-0.24070000000000003,-59.19152078635314
-0.24169999999999991,-59.54519861131939
-0.24270000000000003,-59.9696120012789
-0.24369999999999992,-60.54964363422357
-0.24470000000000003,-61.07308681517363
-0.24569999999999992,-61.49750020513315
-0.24670000000000003,-61.80873669110345
-0.24769999999999992,-62.06338472507916
-0.24870000000000003,-62.33217987205352
-0.24969999999999992,-62.68585769701977
-0.25070000000000003,-63.20930087796983
-0.2516999999999999,-63.6761556069253
-0.25270000000000004,-64.25618723986996
-0.2536999999999999,-64.63815929083353
-0.25470000000000004,-65.03427845479574
-0.2556999999999999,-65.2464851497755
-0.25670000000000004,-65.43039761875795
-0.25769999999999993,-65.82651678272015
-0.25870000000000004,-66.08116481669586
-0.25969999999999993,-66.64704933664189
-0.26070000000000004,-67.17049251759194
-0.26169999999999993,-67.65149435954605
-0.26270000000000004,-68.04761352350828
-0.26369999999999993,-68.25982021848802
-0.26470000000000005,-68.52861536546239
-0.26569999999999994,-68.82570473843404
-0.26670000000000005,-69.26426524139221
-0.26769999999999994,-69.8301497613382
-0.26870000000000005,-70.35359294228827
-0.26969999999999994,-70.91947746223428
-0.27070000000000005,-71.4004793041884
-0.27169999999999994,-71.75415712915466
-0.27270000000000005,-72.05124650212633
-0.27369999999999994,-72.36248298809663
-0.27470000000000006,-72.75860215205884
-0.27569999999999995,-73.32448667200485
-0.27670000000000006,-73.89037119195086
-0.27769999999999995,-74.54113838988879
-0.27870000000000006,-75.06458157083884
-0.27969999999999995,-75.50314207379701
-0.28070000000000006,-75.85681989876326
-0.28169999999999995,-76.15390927173492
-0.28270000000000006,-76.55002843569714
-0.28369999999999995,-77.03103027765125
-0.28470000000000006,-77.59691479759726
-0.28569999999999995,-78.29012333453113
-0.28670000000000007,-78.9550376454677
-0.28769999999999996,-79.47848082641775
-0.28870000000000007,-79.86045287738132
-0.28969999999999996,-80.25657204134353
-0.29070000000000007,-80.69513254430169
-0.29169999999999996,-81.13369304725985
-0.29270000000000007,-81.82690158419373
-0.29369999999999996,-82.43522744313569
-0.2947000000000001,-83.18502443206415
-0.29569999999999996,-83.75090895201016
-0.2967000000000001,-84.18946945496833
-0.29769999999999996,-84.57144150593189
-0.2987000000000001,-84.96756066989411
-0.29969999999999997,-85.53344518984011
-0.3007000000000001,-86.18421238777805
-0.30169999999999997,-86.89156803771054
-0.3027000000000001,-87.62721791364037
-0.30369999999999997,-88.32042645057423
-0.3047000000000001,-88.94289942251486
-0.30569999999999997,-89.42390126446898
-0.3067000000000001,-89.84831465442848
-0.3077,-90.47078762636909
-0.3087000000000001,-91.07911348531105
-0.3097,-91.85720470023682
-0.3107000000000001,-92.6070016891653
-0.3117,-93.30021022609918
-0.3127000000000001,-93.95097742403709
-0.3137,-94.4319792659912
-0.3147000000000001,-94.87053976894937
-0.3157,-95.43642428889537
-0.3167000000000001,-96.00230880884139
-0.3177,-96.83698847576176
-0.3187000000000001,-97.6575210296835
-0.3197,-98.49220069660386
-0.3207000000000001,-99.18540923353773
-0.3217,-99.87861777047159
-0.3227000000000001,-100.40206095142165
-0.3237,-101.02453392336226
-0.3247000000000001,-101.71774246029614
-0.3257,-102.4958336752219
-0.3267000000000001,-103.41539602013418
-0.3277,-104.2925170260505
-0.3287000000000001,-105.11304957997223
-0.3297,-105.82040522990474
-0.3307000000000001,-106.47117242784265
-0.3317,-107.07949828678463
-0.3327000000000001,-107.87173661470905
-0.3337,-108.69226916863077
-0.3347000000000001,-109.654272852539
-0.3357,-110.53139385845533
-0.3367000000000001,-111.5358388813595
-0.3377,-112.39881277427718
-0.3387000000000001,-113.14860976320564
-0.3397,-113.88425963913545
-0.3407000000000001,-114.63405662806393
-0.3417,-115.53947185997755
-0.3427000000000001,-116.62879956087362
-0.3437,-117.67568592277377
-0.3447000000000001,-118.82160207566443
-0.3457,-119.81189998556997
-0.3467000000000001,-120.68902099148629
-0.3477,-121.56614199740261
-0.3487000000000001,-122.34423321232836
-0.3497,-123.3062368962366
-0.3507000000000001,-124.39556459713268
-0.3517,-125.5273336370247
-0.3527000000000001,-126.71569112891132
-0.3537,-127.84746016880335
-0.3547000000000001,-128.8094638527116
-0.3557,-129.75732042362114
-0.35670000000000013,-130.67688276853346
-0.3577,-131.72376913043357
-0.35870000000000013,-132.89797950932152
-0.3597,-134.12877834020412
-0.36070000000000013,-135.51519541407185
-0.3617,-136.74599424495443
-0.3626999999999999,-137.92020462384244
-0.3637,-139.0095323247385
-0.3646999999999999,-140.0988600256346
-0.3657,-141.18818772653066
-0.3666999999999999,-142.4614278964092
-0.3677,-143.87613919627424
-0.3686999999999999,-145.29085049613926
-0.36970000000000003,-146.8470329259908
-0.3706999999999999,-148.12027309586935
-0.37170000000000003,-149.53498439573437
-0.3726999999999999,-150.8082245656129
-0.37370000000000003,-151.93999360550492
-0.3746999999999999,-153.35470490536997
-0.37570000000000003,-154.76941620523502
-0.3766999999999999,-156.32559863508658
-0.37770000000000004,-157.88178106493808
-0.3786999999999999,-159.43796349478964
-0.37970000000000004,-160.8526747946547
-0.3806999999999999,-162.12591496453322
-0.38170000000000004,-163.54062626439824
-0.38269999999999993,-164.9553375642633
-0.38370000000000004,-166.3700488641283
-0.38469999999999993,-167.92623129397984
-0.38570000000000004,-169.6238848538179
-0.38669999999999993,-167.21887564404733
-0.38570000000000004,-159.43796349478964
-0.38469999999999993,-153.35470490536997
-0.38370000000000004,-148.54468648582886
-0.38269999999999993,-144.30055258623375
-0.38170000000000004,-140.41009651160488
-0.3806999999999999,-137.00064227893017
-0.37970000000000004,-133.77510051523788
-0.3786999999999999,-130.84664812451723
-0.37770000000000004,-127.93234284679528
-0.3766999999999999,-124.9614491170787
-0.37570000000000003,-122.0471438393567
-0.3746999999999999,-119.16113278763203
-0.37370000000000003,-116.58635822187767
-0.3726999999999999,-114.0115836561233
-0.37170000000000003,-111.66316289834735
-0.3706999999999999,-109.39962481856328
-0.36970000000000003,-106.99461560879273
-0.3686999999999999,-104.58960639902216
-0.3677,-102.28362698024215
-0.3666999999999999,-99.83617643147564
-0.3657,-97.57263835169158
-0.3646999999999999,-95.47886562789132
-0.3637,-93.51241692107894
-0.3626999999999999,-91.64499800525708
-0.3617,-89.67854929844468
-0.36070000000000013,-87.71210059163228
-0.3597,-85.66076920682796
-0.35870000000000013,-83.60943782202366
-0.3577,-81.65713622820991
-0.35670000000000013,-79.7755701993894
-0.3557,-78.03547530055542
-0.3547000000000001,-76.42270441870929
-0.3537,-74.76749219786718
-0.3527000000000001,-73.09813286402644
-0.3517,-71.27315528720055
-0.3507000000000001,-69.39158925838004
-0.3497,-67.56661168155415
-0.3487000000000001,-65.86895812171612
-0.3477,-64.34106991786187
-0.3467000000000001,-62.855623053003576
-0.3457,-61.455058866137186
-0.3447000000000001,-59.92717066228296
-0.3437,-58.35684111943277
-0.3427000000000001,-56.70162889859067
-0.3417,-55.003975338752625
-0.3407000000000001,-53.476087134898386
-0.3397,-52.075522948032
-0.3387000000000001,-50.81642989115212
-0.3377,-49.50074838227763
-0.3367000000000001,-48.1992139864018
-0.3357,-46.84109113853137
-0.3347000000000001,-45.32735004767578
-0.3337,-43.88434452181344
-0.3327000000000001,-42.4413389959511
-0.3317,-41.083216148080666
-0.3307000000000001,-39.99388844718459
-0.3297,-38.81967806829661
-0.3287000000000001,-37.73035036740053
-0.3277,-36.5985813275085
-0.3267000000000001,-35.282899818634014
-0.3257,-33.93892408376223
-0.3247000000000001,-32.58080123589179
-0.3237,-31.40659085700382
-0.3227000000000001,-30.402145834099635
-0.3217,-29.39770081119546
-0.3207000000000001,-28.393255788291288
-0.3197,-27.43125210438306
-0.3187000000000001,-26.21460038649913
-0.3177,-25.0828313466071
-0.3167000000000001,-23.86617962872317
-0.3157,-22.776851927827092
-0.3147000000000001,-21.772406904922917
-0.3137,-20.85284456001064
-0.3127000000000001,-20.06060623208622
-0.3117,-19.155191000172596
-0.3107000000000001,-18.19318731626437
-0.3097,-17.146300954364243
-0.3087000000000001,-16.056973253468165
-0.3077,-15.094969569559943
-0.3067000000000001,-14.175407224647667
-0.30569999999999997,-13.3930718758223
-0.3047000000000001,-12.651763154693022
-0.30369999999999997,-11.996751822855511
-0.3027000000000001,-11.081433611842833
-0.30169999999999997,-10.208556739826104
-0.3007000000000001,-9.24938247851761
-0.29969999999999997,-8.288793505909249
-0.2987000000000001,-7.4173313451923875
-0.29769999999999996,-6.762320013354876
-0.2967000000000001,-6.108723392817228
-0.29569999999999996,-5.497568111275533
-0.2947000000000001,-4.756259390146253
-0.29369999999999996,-3.927238568425342
-0.29270000000000007,-3.055776407708479
-0.29169999999999996,-2.1390434853959355
-0.29070000000000007,-1.3980177065266295
-0.28969999999999996,-0.7437137303390498
-0.28870000000000007,-0.1330535977523067
-0.28769999999999996,0.3467457395969205
-0.28670000000000007,1.0010497157844997
-0.28569999999999995,1.655212220842093
-0.28470000000000006,2.4403769922671885
-0.28369999999999995,3.313253864283916
-0.28270000000000006,3.9668504848215624
-0.28169999999999995,4.664303155655026
-0.28070000000000006,5.145304997609139
-0.27969999999999995,5.624892128263387
-0.27870000000000006,6.1044792589176335
-0.27769999999999995,6.627922439867697
-0.27670000000000006,7.369231160996977
-0.27569999999999995,8.066683831830439
-0.27470000000000006,8.764136502663902
-0.27369999999999994,9.419147834501414
-0.27270000000000005,9.854878914859846
-0.27169999999999994,10.292024706518141
-0.27070000000000005,10.64004368628494
-0.26969999999999994,11.163486867235004
-0.26870000000000005,11.730786098480884
-0.26769999999999994,12.428238769314348
-0.26670000000000005,13.127106151447675
-0.26569999999999994,13.69299067139369
