Potential V vs RHE, Current mA cm-2
0.05339999999999995,-0.006859935093045563
0.05239999999999995,-0.014073548011057384
0.051399999999999946,-0.019876693763103765
0.050399999999999945,-0.024304740131681327
0.049399999999999944,-0.027997136624329073
0.04839999999999994,-0.03133585529201056
0.04739999999999994,-0.03432089613472579
0.04639999999999994,-0.03710787739545991
0.04539999999999994,-0.03956947505722508
0.04439999999999994,-0.04205936694498754
0.04339999999999994,-0.044464376154758095
0.04239999999999994,-0.046713767121543515
0.04139999999999994,-0.048807539845343764
0.040399999999999936,-0.050844724117149416
0.039399999999999935,-0.052782878597964523
0.038399999999999934,-0.05483420998276882
0.03739999999999993,-0.05685724714157582
0.03639999999999993,-0.05863978337940577
0.03539999999999993,-0.06032328982624517
0.03439999999999993,-0.062190708742067016
0.03339999999999993,-0.06408642188388616
0.03239999999999993,-0.06585481100871747
0.03139999999999993,-0.06765149435954605
0.030399999999999927,-0.06933500080638545
0.029399999999999926,-0.0709760659142289
0.028399999999999925,-0.07257468968307638
0.027399999999999924,-0.07427234324291442
0.026399999999999924,-0.07601243814174842
0.025399999999999923,-0.07745544366761076
0.024399999999999922,-0.07901162609746229
0.02339999999999992,-0.08073757388329764
0.02239999999999992,-0.08240693321713838
0.02139999999999992,-0.08399140987298723
0.020399999999999918,-0.08557588652883606
0.019399999999999917,-0.08711792184568896
0.018399999999999916,-0.08868825138853914
0.017399999999999916,-0.0903576107223799
0.016399999999999915,-0.09191379315223143
0.015399999999999914,-0.09352656403407757
0.014399999999999913,-0.09513933491592372
0.013399999999999912,-0.09669551734577525
0.012399999999999911,-0.09839317090561331
0.01139999999999991,-0.09985032354447429
0.01039999999999991,-0.10127918195733798
0.009399999999999908,-0.10279292304819357
0.008399999999999908,-0.10451887083402892
0.007399999999999907,-0.10621652439386696
0.006399999999999906,-0.10764538280673064
0.005399999999999905,-0.10911668255859029
0.004399999999999904,-0.11084263034442562
0.003399999999999903,-0.11249784256526771
0.002399999999999902,-0.11415305478610982
0.0013999999999999013,-0.11576582566795594
0.00039999999999990044,-0.1173785965498021
-0.0006000000000001005,-0.11897722031864959
-0.0016000000000001013,-0.12073146233048222
-0.0026000000000001022,-0.12249985145531352
-0.003600000000000103,-0.12408432811116238
-0.004600000000000104,-0.12545659807203147
-0.005600000000000105,-0.12685716225889784
-0.006600000000000106,-0.12851237447973993
-0.007600000000000107,-0.13015343958758338
-0.008600000000000108,-0.13183694603442275
-0.009600000000000108,-0.13346386402926755
-0.01060000000000011,-0.13509078202411234
-0.01160000000000011,-0.1368733182619423
-0.012600000000000111,-0.1387548842907628
-0.013600000000000112,-0.14062230320658464
-0.014600000000000113,-0.1421784856364362
-0.015600000000000114,-0.1435931969363012
-0.016600000000000115,-0.14529085049613927
-0.017600000000000116,-0.14727144631595032
-0.018600000000000116,-0.14896909987578838
-0.019600000000000117,-0.15052528230563988
-0.020600000000000118,-0.15250587812545094
-0.02160000000000012,-0.1543450028152755
-0.02260000000000012,-0.15590118524512703
-0.02360000000000012,-0.15774030993495158
-0.024600000000000122,-0.15929649236480314
-0.025600000000000123,-0.16085267479465465
-0.026600000000000124,-0.1628332706144657
-0.027600000000000124,-0.16453092417430376
-0.028600000000000125,-0.1659456354741688
-0.029600000000000126,-0.16764328903400685
-0.030600000000000127,-0.1694824137238314
-0.03160000000000013,-0.17089712502369644
-0.03260000000000013,-0.172736249713521
-0.03360000000000013,-0.17457537440334553
-0.03460000000000002,-0.17627302796318356
-0.03560000000000002,-0.17797068152302162
-0.03660000000000002,-0.17966833508285968
-0.03760000000000002,-0.18164893090267073
-0.03860000000000002,-0.18348805559249526
-0.039600000000000024,-0.1850442380223468
-0.040600000000000025,-0.18688336271217135
-0.041600000000000026,-0.18858101627200938
-0.04260000000000003,-0.19084455435179343
-0.04360000000000003,-0.19268367904161798
-0.04460000000000003,-0.19438133260145604
-0.04560000000000003,-0.19622045729128057
-0.04660000000000003,-0.19820105311109162
-0.04760000000000003,-0.20018164893090268
-0.04860000000000003,-0.20173783136075424
-0.04960000000000003,-0.20286960040064628
-0.050600000000000034,-0.2041428405705248
-0.051600000000000035,-0.20598196526034934
-0.052600000000000036,-0.2081040322101469
-0.053600000000000037,-0.21022609915994445
-0.05460000000000004,-0.21234816610974203
-0.05560000000000004,-0.21432876192955308
-0.05660000000000004,-0.2164508288793506
-0.05760000000000004,-0.21828995356917516
-0.05860000000000004,-0.2199876071290132
-0.05960000000000004,-0.22196820294882427
-0.06060000000000004,-0.22409026989862182
-0.061600000000000044,-0.22621233684841938
-0.06260000000000004,-0.22833440379821693
-0.06360000000000005,-0.22989058622806843
-0.06460000000000005,-0.231729710917893
-0.06560000000000005,-0.2345591335176231
-0.06660000000000005,-0.23668120046742064
-0.06760000000000005,-0.2382373828972722
-0.06860000000000005,-0.2399350364571102
-0.06960000000000005,-0.24149121888696176
-0.07060000000000005,-0.24361328583675934
-0.07160000000000005,-0.24545241052658387
-0.07260000000000005,-0.2471500640864219
-0.07360000000000005,-0.24870624651627343
-0.07460000000000006,-0.250828313466071
-0.07560000000000006,-0.2532333226758416
-0.07660000000000006,-0.25563833188561214
-0.07760000000000006,-0.2577603988354097
-0.07860000000000006,-0.25988246578520724
-0.07960000000000006,-0.2618630616050183
-0.08060000000000006,-0.26384365742482935
-0.08160000000000006,-0.2656827821146539
-0.08260000000000006,-0.26808779132442445
-0.08360000000000006,-0.2700683871442355
-0.08460000000000006,-0.27176604070407356
-0.08560000000000006,-0.2738881076538711
-0.08660000000000007,-0.27530281895373615
-0.08760000000000007,-0.2774248859035337
-0.08860000000000007,-0.2796884239833177
-0.08960000000000007,-0.2812446064131693
-0.09060000000000007,-0.28280078884302084
-0.09160000000000007,-0.2852057980527914
-0.09260000000000007,-0.28704492274261595
-0.09360000000000007,-0.2891669896924135
-0.09460000000000007,-0.29044022986229207
-0.09560000000000007,-0.2915719989021841
-0.09660000000000007,-0.2932696524620221
-0.09760000000000008,-0.2952502482818331
-0.09860000000000008,-0.2976552574916037
-0.09960000000000008,-0.30034320896134725
-0.10060000000000008,-0.3013335068712528
-0.10160000000000008,-0.3034555738210504
-0.10260000000000008,-0.3061435252907939
-0.10360000000000008,-0.30755823659065895
-0.10460000000000008,-0.30925589015049704
-0.10560000000000008,-0.310104716930416
-0.10660000000000008,-0.3119438416202406
-0.10760000000000008,-0.3142073797000246
-0.10860000000000009,-0.3161879755198357
-0.10960000000000009,-0.3181685713396467
-0.11060000000000009,-0.31831004246963324
-0.11160000000000009,-0.3211394650693633
-0.11260000000000009,-0.32283711862920134
-0.11360000000000009,-0.32425182992906637
-0.11460000000000009,-0.32580801235891793
-0.11560000000000009,-0.32764713704874243
-0.11660000000000009,-0.329203319478594
-0.1176000000000001,-0.3309009730384321
-0.1186000000000001,-0.33259862659827016
-0.1196000000000001,-0.3345792224180812
-0.1206000000000001,-0.33655981823789227
-0.1216000000000001,-0.3378330584077708
-0.1226000000000001,-0.3396721830975953
-0.1236000000000001,-0.3408039521374874
-0.1246000000000001,-0.34151130778741984
-0.1256000000000001,-0.3430674902172714
-0.1266000000000001,-0.34490661490709595
-0.1276000000000001,-0.346321326206961
-0.1286000000000001,-0.34915074880669106
-0.1296000000000001,-0.3511313446265021
-0.1306000000000001,-0.3511313446265021
-0.1316000000000001,-0.35311194044631317
-0.1326000000000001,-0.3542437094862052
-0.1336000000000001,-0.35509253626612425
-0.1346000000000001,-0.35636577643600276
-0.1356000000000001,-0.3587707856457733
-0.1366000000000001,-0.35905372790574636
-0.1376000000000001,-0.35905372790574636
-0.1386000000000001,-0.36060991033559786
-0.1396000000000001,-0.36244903502542236
-0.1406000000000001,-0.36329786180534146
-0.14160000000000011,-0.36414668858526045
-0.14260000000000012,-0.3652784576251525
-0.14360000000000012,-0.365985813275085
-0.14460000000000012,-0.36683464005500405
-0.14560000000000012,-0.368249351354869
-0.14660000000000012,-0.36966406265473406
-0.14760000000000012,-0.36994700491470706
-0.14860000000000012,-0.36994700491470706
-0.14960000000000012,-0.37107877395459915
-0.15060000000000012,-0.3732008409043967
-0.15160000000000012,-0.3753229078541942
-0.15260000000000012,-0.37617173463411324
-0.15360000000000013,-0.37716203254401875
-0.15460000000000013,-0.3780108593239378
-0.15560000000000013,-0.3792840994938163
-0.15660000000000013,-0.3795670417537893
-0.15760000000000013,-0.38055733966369487
-0.15860000000000013,-0.38041586853370835
-0.15960000000000002,-0.38140616644361386
-0.16060000000000002,-0.3826794066134924
-0.16160000000000002,-0.384235589043344
-0.16260000000000002,-0.3855088292132225
-0.16360000000000002,-0.3855088292132225
-0.16460000000000002,-0.386782069383101
-0.16560000000000002,-0.38763089616302
-0.16660000000000003,-0.3887626652029121
-0.16760000000000003,-0.3904603187627501
-0.16860000000000003,-0.3903188476327636
-0.16960000000000003,-0.3904603187627501
-0.17060000000000003,-0.3913091455426691
-0.17160000000000003,-0.3930067991025072
-0.17260000000000003,-0.3939970970124127
-0.17360000000000003,-0.3941385681423992
-0.17460000000000003,-0.3952703371822912
-0.17560000000000003,-0.3956947505722508
-0.17660000000000003,-0.3990900576919268
-0.17760000000000004,-0.4005047689917918
-0.17860000000000004,-0.4014950669016974
-0.17960000000000004,-0.4034756627215085
-0.18060000000000004,-0.406163614191252
-0.18160000000000004,-0.4072953832311441
-0.18260000000000004,-0.4075783254911171
-0.18360000000000004,-0.4074368543611306
-0.18460000000000004,-0.4088515656609956
-0.18560000000000004,-0.40970039244091466
-0.18660000000000004,-0.4104077480908471
-0.18760000000000004,-0.4111151037407797
-0.18860000000000005,-0.41323717069057725
-0.18960000000000005,-0.4149348242504153
-0.19060000000000005,-0.4166324778102533
-0.19160000000000005,-0.41776424685014535
-0.19260000000000005,-0.4196033715399699
-0.19360000000000005,-0.4221498518797269
-0.19460000000000005,-0.4221498518797269
-0.19560000000000005,-0.42299867865964597
-0.19660000000000005,-0.42229132300971345
-0.19760000000000005,-0.4225742652696865
-0.19860000000000005,-0.4245548610894975
-0.19960000000000006,-0.42582810125937604
-0.20060000000000006,-0.42752575481921407
-0.20160000000000006,-0.42922340837905215
-0.20260000000000006,-0.4299307640289846
-0.20360000000000006,-0.4307795908089037
-0.20460000000000006,-0.43247724436874174
-0.20560000000000006,-0.4333260711486608
-0.20660000000000006,-0.4329016577587012
-0.20760000000000006,-0.4354481380984583
-0.20860000000000006,-0.43742873391826936
-0.20960000000000006,-0.4379946184382154
-0.21060000000000006,-0.4377116761782423
-0.21160000000000007,-0.43955080086806686
-0.21260000000000007,-0.442097281207824
-0.21360000000000007,-0.4422387523378105
-0.21460000000000007,-0.44252169459778345
-0.21560000000000007,-0.44181433894785094
-0.21660000000000007,-0.44266316572777
-0.21760000000000007,-0.44450229041759454
-0.21860000000000007,-0.4447852326775675
-0.21960000000000007,-0.4463414151074191
-0.22060000000000007,-0.44874642431718964
-0.22160000000000007,-0.44931230883713563
-0.22260000000000008,-0.45044407787702767
-0.22360000000000008,-0.4512929046569467
-0.22460000000000008,-0.45256614482682517
-0.22560000000000008,-0.4544052695166497
-0.22660000000000008,-0.4573761632463663
-0.22760000000000008,-0.4586494034162448
-0.22860000000000008,-0.4589323456762179
-0.22960000000000008,-0.45751763437635284
-0.23060000000000008,-0.45822499002628536
-0.23160000000000008,-0.4589323456762179
-0.23260000000000008,-0.4599226435861234
-0.23360000000000009,-0.45907381680620446
-0.2346000000000001,-0.4594982301961639
-0.2356000000000001,-0.4600641147161099
-0.2366000000000001,-0.46020558584609644
-0.2376000000000001,-0.46246912392588047
-0.2386000000000001,-0.46374236409575903
-0.2396000000000001,-0.463459421835786
-0.2406000000000001,-0.46402530635573197
-0.2416000000000001,-0.4658644310455565
-0.2426000000000001,-0.4662888444355161
-0.2436000000000001,-0.4667132578254756
-0.2446000000000001,-0.4694012092952191
-0.2456000000000001,-0.4692597381652327
-0.2466000000000001,-0.47025003607513816
-0.2476000000000001,-0.4706744494650977
-0.2486000000000001,-0.47251357415492223
-0.2496000000000001,-0.47293798754488175
-0.2506000000000001,-0.47251357415492223
-0.2516000000000001,-0.47421122771476026
-0.2526000000000001,-0.4735038720648278
-0.2536000000000001,-0.47421122771476026
-0.2546000000000001,-0.4747771122347063
-0.2556000000000001,-0.4747771122347063
-0.2566000000000001,-0.4747771122347063
-0.2576000000000001,-0.47421122771476026
-0.2586000000000001,-0.4736453431948142
-0.2596000000000001,-0.4753429967546523
-0.2606000000000001,-0.47633329466455787
-0.2616000000000001,-0.47746506370444985
-0.2626000000000001,-0.4778894770944094
-0.2636000000000001,-0.4764747657945444
-0.2646000000000001,-0.4776065348344364
-0.2656000000000001,-0.47831389048436895
-0.2666000000000001,-0.4784553616143554
-0.2676000000000001,-0.4795871306542474
-0.2686000000000001,-0.47944565952426094
-0.2696000000000001,-0.48015301517419345
-0.2706000000000001,-0.48199213986401795
-0.2716000000000001,-0.48213361099400454
-0.2726000000000001,-0.47972860178423393
-0.2736000000000001,-0.47803094822439585
-0.2746000000000001,-0.47916271726428794
-0.2756000000000001,-0.47831389048436895
-0.2766000000000001,-0.47831389048436895
-0.2776000000000001,-0.47887977500431494
-0.2786000000000001,-0.4787383038743284
-0.2796000000000001,-0.47675770805451734
-0.2806000000000001,-0.47689917918450386
-0.28160000000000013,-0.47803094822439585
-0.28260000000000013,-0.47803094822439585
-0.28360000000000013,-0.47689917918450386
-0.2846,-0.4757674101446118
-0.2856,-0.4756259390146253
-0.2866,-0.4750600544946793
-0.2876,-0.47590888127459835
-0.2886,-0.4757674101446118
-0.2896,-0.47378681432480074
-0.2906,-0.4723721030249357
-0.2916,-0.47265504528490876
-0.2926,-0.47392828545478727
-0.2936,-0.4750600544946793
-0.29460000000000003,-0.4749185833646928
-0.29560000000000003,-0.4749185833646928
-0.29660000000000003,-0.4736453431948142
-0.29760000000000003,-0.4733624009348413
-0.29860000000000003,-0.47435269884474673
-0.29960000000000003,-0.47392828545478727
-0.30060000000000003,-0.47392828545478727
-0.30160000000000003,-0.4753429967546523
-0.30260000000000004,-0.4757674101446118
-0.30360000000000004,-0.47378681432480074
-0.30460000000000004,-0.4740697565847738
-0.30560000000000004,-0.4753429967546523
-0.30660000000000004,-0.4747771122347063
-0.30760000000000004,-0.4727965164148953
-0.30860000000000004,-0.4733624009348413
-0.30960000000000004,-0.4756259390146253
-0.31060000000000004,-0.4778894770944094
-0.31160000000000004,-0.4753429967546523
-0.31260000000000004,-0.4761918235345713
-0.31360000000000005,-0.4778894770944094
-0.31460000000000005,-0.4770406503144904
-0.31560000000000005,-0.4778894770944094
-0.31660000000000005,-0.47831389048436895
-0.31760000000000005,-0.4784553616143554
-0.31860000000000005,-0.4798700729142204
-0.31960000000000005,-0.48114331308409897
-0.32060000000000005,-0.48114331308409897
-0.32160000000000005,-0.4812847842140855
-0.32260000000000005,-0.4826994955139505
-0.32360000000000005,-0.4832653800338965
-0.32460000000000006,-0.48213361099400454
-0.32560000000000006,-0.4815677264740585
-0.32660000000000006,-0.48241655325397753
-0.32760000000000006,-0.48439714907378856
-0.32860000000000006,-0.48637774489359964
-0.32960000000000006,-0.4872265716735187
-0.33060000000000006,-0.4877924561934647
-0.33160000000000006,-0.48765098506347815
-0.33260000000000006,-0.48793392732345114
-0.33360000000000006,-0.4875095139334916
-0.33460000000000006,-0.48793392732345114
-0.33560000000000006,-0.4875095139334916
-0.33660000000000007,-0.4877924561934647
-0.33760000000000007,-0.48949010975330265
-0.33860000000000007,-0.48835834071341067
-0.33960000000000007,-0.4873680428035051
-0.34060000000000007,-0.48949010975330265
-0.34160000000000007,-0.48878275410337013
-0.34260000000000007,-0.48991452314326217
-0.34360000000000007,-0.4900559942732487
-0.3446000000000001,-0.4893486386233161
-0.3456000000000001,-0.4893486386233161
-0.3466000000000001,-0.49033893653322164
-0.34759999999999996,-0.49147070557311373
-0.3486000000000001,-0.49302688800296524
-0.34959999999999997,-0.4941586570428573
-0.3506000000000001,-0.49529042608274926
-0.35159999999999997,-0.4965636662526278
-0.3526000000000001,-0.4969880796425873
-0.35359999999999997,-0.49741249303254687
-0.3546000000000001,-0.5023639825820745
-0.35559999999999997,-0.50335428049198
-0.3566000000000001,-0.502505453712061
-0.3576,-0.503071338232007
-0.3586000000000001,-0.501090742412196
-0.3596,-0.5020810403221014
-0.3606000000000001,-0.503071338232007
-0.3616,-0.5064666453516832
-0.3626000000000001,-0.5066081164816696
-0.3636,-0.5081642989115212
-0.3646000000000001,-0.5092960679514131
-0.3656,-0.5092960679514131
-0.3666000000000001,-0.5092960679514131
-0.3676,-0.5119840194211568
-0.3686000000000001,-0.5131157884610488
-0.3696,-0.5139646152409678
-0.3706000000000001,-0.5155207976708194
-0.3716,-0.5166525667107114
-0.3726000000000001,-0.5186331625305225
-0.3736,-0.519057575920482
-0.3746000000000001,-0.521038171740293
-0.3756,-0.5227358253001311
-0.3766000000000001,-0.5247164211199421
-0.3776,-0.5262726035497938
-0.3786000000000001,-0.5272629014596992
-0.3796,-0.5305167374493888
-0.3806000000000001,-0.5347608713489839
-0.3816,-0.537590293948714
-0.3826000000000001,-0.5343364579590244
-0.3836,-0.5309411508393483
-0.3846000000000001,-0.5309411508393483
-0.3856,-0.5344779290890109
-0.3866000000000001,-0.5356096981289029
-0.3876,-0.5371658805587545
-0.3886000000000001,-0.539570889768525
-0.3896,-0.5414100144583496
-0.3906000000000001,-0.5411270721983766
-0.3916,-0.5419758989782956
-0.3926000000000001,-0.539853832028498
-0.3936,-0.5408441299384036
-0.3946000000000001,-0.5456541483579447
-0.3956,-0.5473518019177827
-0.3966000000000001,-0.5489079843476343
-0.3976,-0.5497568111275533
-0.3986000000000001,-0.5493323977375938
-0.3996,-0.5525862337272834
-0.4006000000000001,-0.5520203492073373
-0.4016,-0.5530106471172429
-0.4026000000000001,-0.5541424161571349
-0.4036,-0.5537180027671754
-0.4046000000000001,-0.557820665536784
-0.4056,-0.5613574437864466
-0.40660000000000013,-0.5634795107362441
-0.4076,-0.5672992312458797
-0.40860000000000013,-0.5694212981956773
-0.4096,-0.5715433651454748
-0.41060000000000013,-0.5712604228855018
-0.4116,-0.5746557300051779
-0.41260000000000013,-0.5726751341853669
-0.4136,-0.5726751341853669
-0.41460000000000014,-0.5730995475753263
-0.4156,-0.5738069032252588
-0.41660000000000014,-0.579748690684692
-0.4176,-0.5854075358841522
-0.41860000000000014,-0.5856904781441251
-0.41960000000000003,-0.5851245936241791
-0.42060000000000014,-0.5862563626640712
-0.42160000000000003,-0.5892272563937878
-0.42260000000000014,-0.5897931409137338
-0.42360000000000003,-0.5920566789935179
-0.42460000000000014,-0.596866697413059
-0.42560000000000003,-0.5988472932328701
-0.42660000000000015,-0.5971496396730319
-0.42760000000000004,-0.597998466452951
-0.42860000000000015,-0.6026670137425056
-0.42960000000000004,-0.6049305518222896
-0.43060000000000015,-0.6045061384323301
-0.43160000000000004,-0.6062037919921682
-0.43260000000000015,-0.6063452631221548
-0.43360000000000004,-0.6069111476421007
-0.43460000000000015,-0.6091746857218847
-0.43560000000000004,-0.6135602907514663
-0.43660000000000015,-0.6141261752714124
-0.43760000000000004,-0.6134188196214798
-0.43860000000000016,-0.6172385401311155
-0.43960000000000005,-0.6185117803009941
-0.44060000000000016,-0.618794722560967
-0.44160000000000005,-0.6189361936909535
-0.44260000000000016,-0.6230388564605621
