Potential V vs RHE, Current mA cm-2
0.05339999999999995,-0.054254178349824156
0.05239999999999995,-0.05576791944067974
0.051399999999999946,-0.05661674622059877
0.050399999999999945,-0.05723921919253938
0.049399999999999944,-0.0578051037124854
0.04839999999999994,-0.05831439978043681
0.04739999999999994,-0.05882369584838822
0.04639999999999994,-0.059304697690342335
0.04539999999999994,-0.059757405306299145
0.04439999999999994,-0.06022426003525461
0.04339999999999994,-0.06066282053821278
0.04239999999999994,-0.06112967526716823
0.04139999999999994,-0.06158238288312505
0.040399999999999936,-0.06204923761208051
0.039399999999999935,-0.06251609234103597
0.038399999999999934,-0.06295465284399412
0.03739999999999993,-0.06340736045995093
0.03639999999999993,-0.0638742151889064
0.03539999999999993,-0.06429862857886592
0.03439999999999993,-0.06476548330782138
0.03339999999999993,-0.06518989669778089
0.03239999999999993,-0.06562845720073905
0.03139999999999993,-0.06608116481669586
0.030399999999999927,-0.06649143109365672
0.029399999999999926,-0.06694413870961352
0.028399999999999925,-0.0673826992125717
0.027399999999999924,-0.06780711260253121
0.026399999999999924,-0.06825982021848803
0.025399999999999923,-0.06871252783444483
0.024399999999999922,-0.06912279411140569
0.02339999999999992,-0.06956135461436386
0.02239999999999992,-0.06999991511732201
0.02139999999999992,-0.07043847562028017
0.020399999999999918,-0.07089118323623698
0.019399999999999917,-0.0713438908521938
0.018399999999999916,-0.07178245135515196
0.017399999999999916,-0.07222101185811013
0.016399999999999915,-0.07264542524806963
0.015399999999999914,-0.0730839857510278
0.014399999999999913,-0.07352254625398597
0.013399999999999912,-0.07397525386994278
0.012399999999999911,-0.07441381437290093
0.01139999999999991,-0.07485237487585908
0.01039999999999991,-0.07529093537881726
0.009399999999999908,-0.07574364299477407
0.008399999999999908,-0.07615390927173492
0.007399999999999907,-0.07657832266169443
0.006399999999999906,-0.07701688316465259
0.005399999999999905,-0.07746959078060942
0.004399999999999904,-0.07792229839656621
0.003399999999999903,-0.07833256467352707
0.002399999999999902,-0.0787852722894839
0.0013999999999999013,-0.07922383279244205
0.00039999999999990044,-0.07964824618240157
-0.0006000000000001005,-0.08008680668535972
-0.0016000000000001013,-0.08049707296232057
-0.0026000000000001022,-0.0809214863522801
-0.003600000000000103,-0.0813741939682369
-0.004600000000000104,-0.08179860735819641
-0.005600000000000105,-0.08225131497415322
-0.006600000000000106,-0.08268987547711139
-0.007600000000000107,-0.08308599464107361
-0.008600000000000108,-0.08351040803103311
-0.009600000000000108,-0.08387823296899803
-0.01060000000000011,-0.0842884992459589
-0.01160000000000011,-0.0847129126359184
-0.012600000000000111,-0.08515147313887655
-0.013600000000000112,-0.08557588652883606
-0.014600000000000113,-0.08598615280579694
-0.015600000000000114,-0.08641056619575643
-0.016600000000000115,-0.08683497958571595
-0.017600000000000116,-0.08721695163667952
-0.018600000000000116,-0.08762721791364038
-0.019600000000000117,-0.08799504285160528
-0.020600000000000118,-0.08837701490256884
-0.02160000000000012,-0.08877313406653106
-0.02260000000000012,-0.08916925323049325
-0.02360000000000012,-0.08957951950745412
-0.024600000000000122,-0.08998978578441498
-0.025600000000000123,-0.09040005206137584
-0.026600000000000124,-0.0907820241123394
-0.027600000000000124,-0.09119229038930025
-0.028600000000000125,-0.09157426244026382
-0.029600000000000126,-0.09194208737822873
-0.030600000000000127,-0.09232405942919229
-0.03160000000000013,-0.09269188436715721
-0.03260000000000013,-0.0930880035311194
-0.03360000000000013,-0.09345582846908432
-0.03460000000000002,-0.09380950629405059
-0.03560000000000002,-0.0942056254580128
-0.03660000000000002,-0.0945451561699804
-0.03760000000000002,-0.09492712822094396
-0.03860000000000002,-0.09528080604591022
-0.039600000000000024,-0.09563448387087647
-0.040600000000000025,-0.09598816169584275
-0.041600000000000026,-0.09634183952080899
-0.04260000000000003,-0.0966813702327766
-0.04360000000000003,-0.0970209009447442
-0.04460000000000003,-0.09734628454371318
-0.04560000000000003,-0.09768581525568078
-0.04660000000000003,-0.09799705174165109
-0.04760000000000003,-0.0983365824536187
-0.04860000000000003,-0.09866196605258765
-0.04960000000000003,-0.09895905542555931
-0.050600000000000034,-0.09929858613752693
-0.051600000000000035,-0.09959567551049858
-0.052600000000000036,-0.09989276488347024
-0.053600000000000037,-0.10018985425644189
-0.05460000000000004,-0.10048694362941356
-0.05560000000000004,-0.10079818011538387
-0.05660000000000004,-0.10108112237535687
-0.05760000000000004,-0.10134991752233123
-0.05860000000000004,-0.10166115400830154
-0.05960000000000004,-0.10191580204227724
-0.06060000000000004,-0.1021845971892516
-0.061600000000000044,-0.10243924522322731
-0.06260000000000004,-0.10269389325720302
-0.06360000000000005,-0.10294854129117871
-0.06460000000000005,-0.10318904221215577
-0.06560000000000005,-0.10345783735913014
-0.06660000000000005,-0.10367004405410989
-0.06760000000000005,-0.1039246920880856
-0.06860000000000005,-0.10413689878306535
-0.06960000000000005,-0.10437739970404242
-0.07060000000000005,-0.10457545928602352
-0.07160000000000005,-0.10477351886800461
-0.07260000000000005,-0.10497157844998573
-0.07360000000000005,-0.10518378514496549
-0.07460000000000006,-0.10538184472694657
-0.07560000000000006,-0.10559405142192634
-0.07660000000000006,-0.1057779638909088
-0.07760000000000006,-0.10596187635989125
-0.07860000000000006,-0.10613164171587507
-0.07960000000000006,-0.10628725995886021
-0.08060000000000006,-0.10647117242784265
-0.08160000000000006,-0.10661264355782916
-0.08260000000000006,-0.10676826180081432
-0.08360000000000006,-0.10693802715679812
-0.08460000000000006,-0.10705120406078733
-0.08560000000000006,-0.10720682230377249
-0.08660000000000007,-0.10733414632076034
-0.08760000000000007,-0.10746147033774818
-0.08860000000000007,-0.10760294146773468
-0.08960000000000007,-0.10767367703272793
-0.09060000000000007,-0.1078010010497158
-0.09160000000000007,-0.10790003084070635
-0.09260000000000007,-0.10801320774469556
-0.09360000000000007,-0.10811223753568612
-0.09460000000000007,-0.10816882598768068
-0.09560000000000007,-0.10826785577867125
-0.09660000000000007,-0.10833859134366451
-0.09760000000000008,-0.10839517979565912
-0.09860000000000008,-0.10848006247365101
-0.09960000000000008,-0.10853665092564563
-0.10060000000000008,-0.10857909226464157
-0.10160000000000008,-0.10863568071663617
-0.10260000000000008,-0.10869226916863078
-0.10360000000000008,-0.10872056339462807
-0.10460000000000008,-0.10876300473362402
-0.10560000000000008,-0.10877715184662266
-0.10660000000000008,-0.10877715184662266
-0.10760000000000008,-0.10880544607261997
-0.10860000000000009,-0.10880544607261997
-0.10960000000000009,-0.10880544607261997
-0.11060000000000009,-0.10883374029861728
-0.11160000000000009,-0.10881959318561862
-0.11260000000000009,-0.10880544607261997
-0.11360000000000009,-0.10879129895962131
-0.11460000000000009,-0.10877715184662266
-0.11560000000000009,-0.10876300473362402
-0.11660000000000009,-0.10872056339462807
-0.1176000000000001,-0.10867812205563213
-0.1186000000000001,-0.10864982782963481
-0.1196000000000001,-0.10857909226464157
-0.1206000000000001,-0.10853665092564563
-0.1216000000000001,-0.10848006247365101
-0.1226000000000001,-0.10842347402165642
-0.1236000000000001,-0.1083668855696618
-0.1246000000000001,-0.10828200289166989
-0.1256000000000001,-0.10821126732667666
-0.1266000000000001,-0.1081405317616834
-0.1276000000000001,-0.1080556490836915
-0.1286000000000001,-0.1079990606316969
-0.1296000000000001,-0.10790003084070635
-0.1306000000000001,-0.1078292952757131
-0.1316000000000001,-0.10773026548472255
-0.1326000000000001,-0.10761708858073335
-0.1336000000000001,-0.10753220590274143
-0.1346000000000001,-0.10743317611175088
-0.1356000000000001,-0.10730585209476304
-0.1366000000000001,-0.10720682230377249
-0.1376000000000001,-0.10707949828678462
-0.1386000000000001,-0.10696632138279542
-0.1396000000000001,-0.10685314447880623
-0.1406000000000001,-0.10672582046181836
-0.14160000000000011,-0.10659849644483052
-0.14260000000000012,-0.10647117242784265
-0.14360000000000012,-0.10635799552385346
-0.14460000000000012,-0.10621652439386696
-0.14560000000000012,-0.10607505326388045
-0.14660000000000012,-0.1059477292468926
-0.14760000000000012,-0.10580625811690608
-0.14860000000000012,-0.10566478698691958
-0.14960000000000012,-0.10550916874393444
-0.15060000000000012,-0.10538184472694657
-0.15160000000000012,-0.10521207937096277
-0.15260000000000012,-0.10505646112797762
-0.15360000000000013,-0.10492913711098976
-0.15460000000000013,-0.10477351886800461
-0.15560000000000013,-0.10463204773801811
-0.15660000000000013,-0.10446228238203431
-0.15760000000000013,-0.1042925170260505
-0.15860000000000013,-0.104151045896064
-0.15960000000000002,-0.1039812805400802
-0.16060000000000002,-0.10382566229709504
-0.16160000000000002,-0.10365589694111124
-0.16260000000000002,-0.10348613158512744
-0.16360000000000002,-0.10333051334214227
-0.16460000000000002,-0.10314660087315983
-0.16560000000000002,-0.10303342396917063
-0.16660000000000003,-0.10289195283918412
-0.16760000000000003,-0.10270804037020166
-0.16860000000000003,-0.10253827501421786
-0.16960000000000003,-0.10235436254523542
-0.17060000000000003,-0.10217045007625294
-0.17160000000000003,-0.10202897894626643
-0.17260000000000003,-0.10181677225128669
-0.17360000000000003,-0.10166115400830154
-0.17460000000000003,-0.10147724153931909
-0.17560000000000003,-0.10129332907033663
-0.17660000000000003,-0.10112356371435283
-0.17760000000000004,-0.10093965124537037
-0.17860000000000004,-0.10078403300238521
-0.17960000000000004,-0.10060012053340277
-0.18060000000000004,-0.10043035517741895
-0.18160000000000004,-0.1002464427084365
-0.18260000000000004,-0.10006253023945405
-0.18360000000000004,-0.09987861777047159
-0.18460000000000004,-0.09970885241448779
-0.18560000000000004,-0.09953908705850398
-0.18660000000000004,-0.09936932170252018
-0.18760000000000004,-0.09917126212053906
-0.18860000000000005,-0.09900149676455527
-0.18960000000000005,-0.09883173140857146
-0.19060000000000005,-0.0986761131655863
-0.19160000000000005,-0.09852049492260115
-0.19260000000000005,-0.0983082882276214
-0.19360000000000005,-0.09812437575863896
-0.19460000000000005,-0.09796875751565379
-0.19560000000000005,-0.09778484504667133
-0.19660000000000005,-0.09761507969068753
-0.19760000000000005,-0.09747360856070103
-0.19860000000000005,-0.09731799031771587
-0.19960000000000006,-0.09713407784873342
-0.20060000000000006,-0.09697845960574826
-0.20160000000000006,-0.09680869424976446
-0.20260000000000006,-0.096624781780782
-0.20360000000000006,-0.09645501642479819
-0.20460000000000006,-0.09627110395581574
-0.20560000000000006,-0.09612963282582924
-0.20660000000000006,-0.09595986746984543
-0.20760000000000006,-0.09577595500086299
-0.20860000000000006,-0.09563448387087647
-0.20960000000000006,-0.09545057140189403
-0.21060000000000006,-0.09529495315890889
-0.21160000000000007,-0.0951110406899264
-0.21260000000000007,-0.09495542244694127
-0.21360000000000007,-0.09481395131695476
-0.21460000000000007,-0.09464418596097096
-0.21560000000000007,-0.09450271483098445
-0.21660000000000007,-0.0943470965879993
-0.21760000000000007,-0.09419147834501414
-0.21860000000000007,-0.094035860102029
-0.21960000000000007,-0.09388024185904384
-0.22060000000000007,-0.09371047650306003
-0.22160000000000007,-0.09355485826007487
-0.22260000000000008,-0.09338509290409107
-0.22360000000000008,-0.09324362177410456
-0.22460000000000008,-0.0930880035311194
-0.22560000000000008,-0.09293238528813427
-0.22660000000000008,-0.09279091415814776
-0.22760000000000008,-0.09264944302816126
-0.22860000000000008,-0.0924938247851761
-0.22960000000000008,-0.09233820654219095
-0.23060000000000008,-0.09221088252520308
-0.23160000000000008,-0.09206941139521659
-0.23260000000000008,-0.09191379315223143
-0.23360000000000009,-0.09178646913524359
-0.2346000000000001,-0.09163085089225843
-0.2356000000000001,-0.09151767398826924
-0.2366000000000001,-0.09134790863228542
-0.2376000000000001,-0.09122058461529756
-0.2386000000000001,-0.09110740771130836
-0.2396000000000001,-0.0909517894683232
-0.2406000000000001,-0.0908103183383367
-0.2416000000000001,-0.09068299432134884
-0.2426000000000001,-0.09056981741735964
-0.2436000000000001,-0.09045664051337043
-0.2446000000000001,-0.09030102227038528
-0.2456000000000001,-0.09017369825339744
-0.2466000000000001,-0.09004637423640958
-0.2476000000000001,-0.08991905021942173
-0.2486000000000001,-0.08982002042843118
-0.2496000000000001,-0.08966440218544602
-0.2506000000000001,-0.08955122528145683
-0.2516000000000001,-0.08942390126446896
-0.2526000000000001,-0.08928243013448246
-0.2536000000000001,-0.08918340034349191
-0.2546000000000001,-0.08905607632650406
-0.2556000000000001,-0.08894289942251486
-0.2566000000000001,-0.08882972251852565
-0.2576000000000001,-0.0887023985015378
-0.2586000000000001,-0.0885892215975486
-0.2596000000000001,-0.08849019180655805
-0.2606000000000001,-0.08837701490256884
-0.2616000000000001,-0.08827798511157829
-0.2626000000000001,-0.08816480820758908
-0.2636000000000001,-0.08806577841659853
-0.2646000000000001,-0.08796674862560798
-0.2656000000000001,-0.08788186594761609
-0.2666000000000001,-0.08776868904362688
-0.2676000000000001,-0.08768380636563497
-0.2686000000000001,-0.08758477657464442
-0.2696000000000001,-0.08748574678365387
-0.2706000000000001,-0.08740086410566196
-0.2716000000000001,-0.08731598142767007
-0.2726000000000001,-0.08721695163667952
-0.2736000000000001,-0.08713206895868761
-0.2746000000000001,-0.08703303916769706
-0.2756000000000001,-0.08694815648970515
-0.2766000000000001,-0.08686327381171326
-0.2776000000000001,-0.0867642440207227
-0.2786000000000001,-0.08669350845572944
-0.2796000000000001,-0.0865944786647389
-0.2806000000000001,-0.08652374309974564
-0.28160000000000013,-0.08645300753475238
-0.28260000000000013,-0.08633983063076318
-0.28360000000000013,-0.08626909506576994
-0.2846,-0.08615591816178074
-0.2856,-0.08608518259678749
-0.2866,-0.08602859414479287
-0.2876,-0.08591541724080368
-0.2886,-0.08585882878880907
-0.2896,-0.08577394611081718
-0.2906,-0.08570321054582393
-0.2916,-0.08563247498083068
-0.2926,-0.08554759230283876
-0.2936,-0.08550515096384281
-0.29460000000000003,-0.08543441539884956
-0.29560000000000003,-0.08534953272085766
-0.29660000000000003,-0.08527879715586441
-0.29760000000000003,-0.08520806159087116
-0.29860000000000003,-0.08515147313887655
-0.29960000000000003,-0.08506659046088466
-0.30060000000000003,-0.08501000200889006
-0.30160000000000003,-0.08495341355689547
-0.30260000000000004,-0.08486853087890354
-0.30360000000000004,-0.0847977953139103
-0.30460000000000004,-0.0847412068619157
-0.30560000000000004,-0.08467047129692246
-0.30660000000000004,-0.08464217707092515
-0.30760000000000004,-0.0845714415059319
-0.30860000000000004,-0.08450070594093864
-0.30960000000000004,-0.08444411748894404
-0.31060000000000004,-0.08437338192395079
-0.31160000000000004,-0.08431679347195618
-0.31260000000000004,-0.08427435213296022
-0.31360000000000005,-0.08421776368096563
-0.31460000000000005,-0.08414702811597238
-0.31560000000000005,-0.08410458677697644
-0.31660000000000005,-0.08404799832498183
-0.31760000000000005,-0.08400555698598587
-0.31860000000000005,-0.08396311564698994
-0.31960000000000005,-0.08393482142099262
-0.32060000000000005,-0.08386408585599937
-0.32160000000000005,-0.08380749740400478
-0.32260000000000005,-0.08375090895201018
-0.32360000000000005,-0.08370846761301422
-0.32460000000000006,-0.08365187916101963
-0.32560000000000006,-0.08360943782202368
-0.32660000000000006,-0.08356699648302772
-0.32760000000000006,-0.08349626091803447
-0.32860000000000006,-0.08346796669203715
-0.32960000000000006,-0.08338308401404526
-0.33060000000000006,-0.08335478978804794
-0.33160000000000006,-0.08334064267504931
-0.33260000000000006,-0.08325575999705741
-0.33360000000000006,-0.08322746577106012
-0.33460000000000006,-0.08318502443206416
-0.33560000000000006,-0.0831425830930682
-0.33660000000000007,-0.08310014175407225
-0.33760000000000007,-0.083029406189079
-0.33860000000000007,-0.0830011119630817
-0.33960000000000007,-0.08295867062408575
-0.34060000000000007,-0.0828879350590925
-0.34160000000000007,-0.08285964083309519
-0.34260000000000007,-0.0828030523811006
-0.34360000000000007,-0.08277475815510331
-0.3446000000000001,-0.08273231681610735
-0.3456000000000001,-0.08268987547711139
-0.3466000000000001,-0.08264743413811544
-0.34759999999999996,-0.0826049927991195
-0.3486000000000001,-0.08253425723412625
-0.34959999999999997,-0.08249181589513029
-0.3506000000000001,-0.08246352166913298
-0.35159999999999997,-0.0824352274431357
-0.3526000000000001,-0.08237863899114109
-0.35359999999999997,-0.08233619765214513
-0.3546000000000001,-0.08230790342614784
-0.35559999999999997,-0.08226546208715188
-0.3566000000000001,-0.08222302074815592
-0.3576,-0.08218057940915997
-0.3586000000000001,-0.08215228518316267
-0.3596,-0.08209569673116808
-0.3606000000000001,-0.08209569673116808
-0.3616,-0.08203910827917348
-0.3626000000000001,-0.08199666694017753
-0.3636,-0.08196837271418023
-0.3646000000000001,-0.08191178426218561
-0.3656,-0.08189763714918698
-0.3666000000000001,-0.08185519581019103
-0.3676,-0.08181275447119508
-0.3686000000000001,-0.08179860735819641
-0.3696,-0.08175616601920047
-0.3706000000000001,-0.08175616601920047
-0.3716,-0.08172787179320316
-0.3726000000000001,-0.08169957756720586
-0.3736,-0.08168543045420722
-0.3746000000000001,-0.08165713622820991
-0.3756,-0.08161469488921397
-0.3766000000000001,-0.08161469488921397
-0.3776,-0.08158640066321667
-0.3786000000000001,-0.08154395932422072
-0.3796,-0.08152981221122206
-0.3806000000000001,-0.08151566509822342
-0.3816,-0.08147322375922747
-0.3826000000000001,-0.08147322375922747
-0.3836,-0.08147322375922747
-0.3846000000000001,-0.08144492953323015
-0.3856,-0.08141663530723285
-0.3866000000000001,-0.08141663530723285
-0.3876,-0.08140248819423422
-0.3886000000000001,-0.08138834108123556
-0.3896,-0.08138834108123556
-0.3906000000000001,-0.08138834108123556
-0.3916,-0.0813741939682369
-0.3926000000000001,-0.0813741939682369
-0.3936,-0.08136004685523826
-0.3946000000000001,-0.0813458997422396
-0.3956,-0.0813741939682369
-0.3966000000000001,-0.0813741939682369
-0.3976,-0.08136004685523826
-0.3986000000000001,-0.0813458997422396
-0.3996,-0.0813458997422396
-0.4006000000000001,-0.08136004685523826
-0.4016,-0.08136004685523826
-0.4026000000000001,-0.0813741939682369
-0.4036,-0.08138834108123556
-0.4046000000000001,-0.08141663530723285
-0.4056,-0.08143078242023151
-0.40660000000000013,-0.08144492953323015
-0.4076,-0.08145907664622881
-0.40860000000000013,-0.08145907664622881
-0.4096,-0.0814873708722261
-0.41060000000000013,-0.08151566509822342
-0.4116,-0.08154395932422072
-0.41260000000000013,-0.08155810643721936
-0.4136,-0.08158640066321667
-0.41460000000000014,-0.08160054777621531
-0.4156,-0.08161469488921397
-0.41660000000000014,-0.08165713622820991
-0.4176,-0.08167128334120857
-0.41860000000000014,-0.08169957756720586
-0.41960000000000003,-0.08172787179320316
-0.42060000000000014,-0.08177031313219911
-0.42160000000000003,-0.08182690158419371
-0.42260000000000014,-0.08189763714918698
-0.42360000000000003,-0.08192593137518428
-0.42460000000000014,-0.08196837271418023
-0.42560000000000003,-0.08196837271418023
-0.42660000000000015,-0.08202496116617483
-0.42760000000000004,-0.08206740250517078
-0.42860000000000015,-0.08210984384416672
-0.42960000000000004,-0.08216643229616134
-0.43060000000000015,-0.08222302074815592
-0.43160000000000004,-0.08227960920015054
-0.43260000000000015,-0.08233619765214513
-0.43360000000000004,-0.08237863899114109
-0.43460000000000015,-0.0824352274431357
-0.43560000000000004,-0.08250596300812894
-0.43660000000000015,-0.08256255146012353
