Dec. 14, 2024   22:38:53
Cyclic Voltammetry
File: c:/users/guazh/data/banditlqround7_x0exp59_r20/2024-12-09-exp662\exp662-2024-12-14t22_33_58-arkoh\exp662_cv_50mvs_efin_-1400mv.bin
Data Source:  Experiment
Instrument Model:  CHI760E
Header: CV ran at 50 mVs
Note: 

Init E (V) = -1
High E (V) = -1
Low E (V) = -1.4
Final E (V) = -1
Init P/N = N
Scan Rate (V/s) = 0.05
Segment = 7
Sample Interval (V) = 0.001
Quiet Time (sec) = 60
Sensitivity (A/V) = 0.001
Comp R (ohm) = 1.4

Results:

Channel 1:
Segment 1:

Segment 2:

Segment 3:

Segment 4:

Segment 5:

Segment 6:

Segment 7:

Potential/V, Current/A

-1.000, 1.901e-6
-1.001, 2.818e-6
-1.002, 3.236e-6
-1.003, 3.373e-6
-1.004, 3.383e-6
-1.005, 3.477e-6
-1.006, 3.701e-6
-1.007, 3.967e-6
-1.008, 3.980e-6
-1.009, 3.969e-6
-1.010, 3.988e-6
-1.011, 4.141e-6
-1.012, 4.424e-6
-1.013, 4.429e-6
-1.014, 4.398e-6
-1.015, 4.389e-6
-1.016, 4.577e-6
-1.017, 4.783e-6
-1.018, 4.881e-6
-1.019, 4.772e-6
-1.020, 4.802e-6
-1.021, 5.020e-6
-1.022, 5.177e-6
-1.023, 5.285e-6
-1.024, 5.209e-6
-1.025, 5.196e-6
-1.026, 5.428e-6
-1.027, 5.616e-6
-1.028, 5.677e-6
-1.029, 5.656e-6
-1.030, 5.643e-6
-1.031, 5.885e-6
-1.032, 6.053e-6
-1.033, 6.125e-6
-1.034, 6.123e-6
-1.035, 6.155e-6
-1.036, 6.352e-6
-1.037, 6.638e-6
-1.038, 6.663e-6
-1.039, 6.657e-6
-1.040, 6.658e-6
-1.041, 6.908e-6
-1.042, 7.172e-6
-1.043, 7.240e-6
-1.044, 7.252e-6
-1.045, 7.326e-6
-1.046, 7.554e-6
-1.047, 7.828e-6
-1.048, 7.954e-6
-1.049, 7.911e-6
-1.050, 8.040e-6
-1.051, 8.269e-6
-1.052, 8.599e-6
-1.053, 8.669e-6
-1.054, 8.706e-6
-1.055, 8.801e-6
-1.056, 9.121e-6
-1.057, 9.360e-6
-1.058, 9.574e-6
-1.059, 9.593e-6
-1.060, 9.700e-6
-1.061, 1.003e-5
-1.062, 1.032e-5
-1.063, 1.051e-5
-1.064, 1.055e-5
-1.065, 1.072e-5
-1.066, 1.107e-5
-1.067, 1.138e-5
-1.068, 1.156e-5
-1.069, 1.167e-5
-1.070, 1.181e-5
-1.071, 1.219e-5
-1.072, 1.256e-5
-1.073, 1.278e-5
-1.074, 1.289e-5
-1.075, 1.308e-5
-1.076, 1.345e-5
-1.077, 1.384e-5
-1.078, 1.407e-5
-1.079, 1.423e-5
-1.080, 1.439e-5
-1.081, 1.483e-5
-1.082, 1.527e-5
-1.083, 1.551e-5
-1.084, 1.565e-5
-1.085, 1.585e-5
-1.086, 1.630e-5
-1.087, 1.680e-5
-1.088, 1.700e-5
-1.089, 1.719e-5
-1.090, 1.748e-5
-1.091, 1.789e-5
-1.092, 1.839e-5
-1.093, 1.867e-5
-1.094, 1.884e-5
-1.095, 1.912e-5
-1.096, 1.960e-5
-1.097, 2.011e-5
-1.098, 2.042e-5
-1.099, 2.064e-5
-1.100, 2.089e-5
-1.101, 2.143e-5
-1.102, 2.191e-5
-1.103, 2.228e-5
-1.104, 2.245e-5
-1.105, 2.280e-5
-1.106, 2.332e-5
-1.107, 2.381e-5
-1.108, 2.418e-5
-1.109, 2.440e-5
-1.110, 2.474e-5
-1.111, 2.529e-5
-1.112, 2.580e-5
-1.113, 2.615e-5
-1.114, 2.643e-5
-1.115, 2.674e-5
-1.116, 2.731e-5
-1.117, 2.783e-5
-1.118, 2.821e-5
-1.119, 2.846e-5
-1.120, 2.881e-5
-1.121, 2.933e-5
-1.122, 2.994e-5
-1.123, 3.026e-5
-1.124, 3.055e-5
-1.125, 3.087e-5
-1.126, 3.142e-5
-1.127, 3.197e-5
-1.128, 3.230e-5
-1.129, 3.259e-5
-1.130, 3.295e-5
-1.131, 3.349e-5
-1.132, 3.407e-5
-1.133, 3.440e-5
-1.134, 3.467e-5
-1.135, 3.503e-5
-1.136, 3.552e-5
-1.137, 3.609e-5
-1.138, 3.646e-5
-1.139, 3.666e-5
-1.140, 3.699e-5
-1.141, 3.756e-5
-1.142, 3.808e-5
-1.143, 3.846e-5
-1.144, 3.867e-5
-1.145, 3.898e-5
-1.146, 3.951e-5
-1.147, 4.002e-5
-1.148, 4.032e-5
-1.149, 4.051e-5
-1.150, 4.080e-5
-1.151, 4.134e-5
-1.152, 4.180e-5
-1.153, 4.214e-5
-1.154, 4.230e-5
-1.155, 4.256e-5
-1.156, 4.309e-5
-1.157, 4.355e-5
-1.158, 4.384e-5
-1.159, 4.399e-5
-1.160, 4.423e-5
-1.161, 4.472e-5
-1.162, 4.515e-5
-1.163, 4.540e-5
-1.164, 4.550e-5
-1.165, 4.579e-5
-1.166, 4.617e-5
-1.167, 4.662e-5
-1.168, 4.680e-5
-1.169, 4.692e-5
-1.170, 4.712e-5
-1.171, 4.755e-5
-1.172, 4.793e-5
-1.173, 4.812e-5
-1.174, 4.813e-5
-1.175, 4.839e-5
-1.176, 4.872e-5
-1.177, 4.909e-5
-1.178, 4.928e-5
-1.179, 4.928e-5
-1.180, 4.944e-5
-1.181, 4.971e-5
-1.182, 5.005e-5
-1.183, 5.017e-5
-1.184, 5.018e-5
-1.185, 5.026e-5
-1.186, 5.059e-5
-1.187, 5.079e-5
-1.188, 5.094e-5
-1.189, 5.088e-5
-1.190, 5.099e-5
-1.191, 5.131e-5
-1.192, 5.152e-5
-1.193, 5.155e-5
-1.194, 5.153e-5
-1.195, 5.158e-5
-1.196, 5.186e-5
-1.197, 5.211e-5
-1.198, 5.214e-5
-1.199, 5.213e-5
-1.200, 5.213e-5
-1.201, 5.238e-5
-1.202, 5.264e-5
-1.203, 5.265e-5
-1.204, 5.257e-5
-1.205, 5.263e-5
-1.206, 5.281e-5
-1.207, 5.310e-5
-1.208, 5.307e-5
-1.209, 5.296e-5
-1.210, 5.310e-5
-1.211, 5.321e-5
-1.212, 5.349e-5
-1.213, 5.351e-5
-1.214, 5.336e-5
-1.215, 5.346e-5
-1.216, 5.369e-5
-1.217, 5.387e-5
-1.218, 5.393e-5
-1.219, 5.378e-5
-1.220, 5.386e-5
-1.221, 5.409e-5
-1.222, 5.433e-5
-1.223, 5.438e-5
-1.224, 5.421e-5
-1.225, 5.435e-5
-1.226, 5.454e-5
-1.227, 5.475e-5
-1.228, 5.483e-5
-1.229, 5.483e-5
-1.230, 5.484e-5
-1.231, 5.511e-5
-1.232, 5.535e-5
-1.233, 5.533e-5
-1.234, 5.536e-5
-1.235, 5.538e-5
-1.236, 5.568e-5
-1.237, 5.595e-5
-1.238, 5.593e-5
-1.239, 5.592e-5
-1.240, 5.598e-5
-1.241, 5.631e-5
-1.242, 5.662e-5
-1.243, 5.666e-5
-1.244, 5.663e-5
-1.245, 5.677e-5
-1.246, 5.705e-5
-1.247, 5.736e-5
-1.248, 5.737e-5
-1.249, 5.744e-5
-1.250, 5.760e-5
-1.251, 5.784e-5
-1.252, 5.819e-5
-1.253, 5.826e-5
-1.254, 5.826e-5
-1.255, 5.845e-5
-1.256, 5.873e-5
-1.257, 5.912e-5
-1.258, 5.923e-5
-1.259, 5.923e-5
-1.260, 5.941e-5
-1.261, 5.977e-5
-1.262, 6.009e-5
-1.263, 6.034e-5
-1.264, 6.030e-5
-1.265, 6.051e-5
-1.266, 6.091e-5
-1.267, 6.124e-5
-1.268, 6.140e-5
-1.269, 6.141e-5
-1.270, 6.164e-5
-1.271, 6.204e-5
-1.272, 6.239e-5
-1.273, 6.256e-5
-1.274, 6.258e-5
-1.275, 6.279e-5
-1.276, 6.319e-5
-1.277, 6.364e-5
-1.278, 6.376e-5
-1.279, 6.386e-5
-1.280, 6.414e-5
-1.281, 6.449e-5
-1.282, 6.491e-5
-1.283, 6.504e-5
-1.284, 6.511e-5
-1.285, 6.538e-5
-1.286, 6.575e-5
-1.287, 6.623e-5
-1.288, 6.638e-5
-1.289, 6.641e-5
-1.290, 6.672e-5
-1.291, 6.709e-5
-1.292, 6.752e-5
-1.293, 6.770e-5
-1.294, 6.774e-5
-1.295, 6.804e-5
-1.296, 6.843e-5
-1.297, 6.886e-5
-1.298, 6.913e-5
-1.299, 6.911e-5
-1.300, 6.941e-5
-1.301, 6.981e-5
-1.302, 7.023e-5
-1.303, 7.045e-5
-1.304, 7.052e-5
-1.305, 7.074e-5
-1.306, 7.120e-5
-1.307, 7.162e-5
-1.308, 7.182e-5
-1.309, 7.177e-5
-1.310, 7.201e-5
-1.311, 7.251e-5
-1.312, 7.288e-5
-1.313, 7.311e-5
-1.314, 7.321e-5
-1.315, 7.347e-5
-1.316, 7.386e-5
-1.317, 7.426e-5
-1.318, 7.445e-5
-1.319, 7.450e-5
-1.320, 7.478e-5
-1.321, 7.528e-5
-1.322, 7.565e-5
-1.323, 7.583e-5
-1.324, 7.592e-5
-1.325, 7.616e-5
-1.326, 7.664e-5
-1.327, 7.709e-5
-1.328, 7.731e-5
-1.329, 7.742e-5
-1.330, 7.769e-5
-1.331, 7.813e-5
-1.332, 7.869e-5
-1.333, 7.890e-5
-1.334, 7.907e-5
-1.335, 7.940e-5
-1.336, 7.992e-5
-1.337, 8.045e-5
-1.338, 8.070e-5
-1.339, 8.087e-5
-1.340, 8.131e-5
-1.341, 8.200e-5
-1.342, 8.255e-5
-1.343, 8.294e-5
-1.344, 8.322e-5
-1.345, 8.376e-5
-1.346, 8.448e-5
-1.347, 8.520e-5
-1.348, 8.573e-5
-1.349, 8.610e-5
-1.350, 8.677e-5
-1.351, 8.773e-5
-1.352, 8.848e-5
-1.353, 8.919e-5
-1.354, 8.981e-5
-1.355, 9.070e-5
-1.356, 9.183e-5
-1.357, 9.287e-5
-1.358, 9.384e-5
-1.359, 9.478e-5
-1.360, 9.593e-5
-1.361, 9.735e-5
-1.362, 9.876e-5
-1.363, 9.994e-5
-1.364, 1.013e-4
-1.365, 1.029e-4
-1.366, 1.047e-4
-1.367, 1.067e-4
-1.368, 1.084e-4
-1.369, 1.102e-4
-1.370, 1.124e-4
-1.371, 1.148e-4
-1.372, 1.173e-4
-1.373, 1.196e-4
-1.374, 1.221e-4
-1.375, 1.249e-4
-1.376, 1.280e-4
-1.377, 1.313e-4
-1.378, 1.344e-4
-1.379, 1.376e-4
-1.380, 1.412e-4
-1.381, 1.451e-4
-1.382, 1.491e-4
-1.383, 1.531e-4
-1.384, 1.570e-4
-1.385, 1.615e-4
-1.386, 1.662e-4
-1.387, 1.711e-4
-1.388, 1.758e-4
-1.389, 1.807e-4
-1.390, 1.859e-4
-1.391, 1.914e-4
-1.392, 1.970e-4
-1.393, 2.027e-4
-1.394, 2.083e-4
-1.395, 2.143e-4
-1.396, 2.207e-4
-1.397, 2.271e-4
-1.398, 2.333e-4
-1.399, 2.396e-4
-1.400, 2.381e-4
-1.399, 2.324e-4
-1.398, 2.272e-4
-1.397, 2.219e-4
-1.396, 2.164e-4
-1.395, 2.110e-4
-1.394, 2.057e-4
-1.393, 2.004e-4
-1.392, 1.950e-4
-1.391, 1.897e-4
-1.390, 1.847e-4
-1.389, 1.799e-4
-1.388, 1.752e-4
-1.387, 1.702e-4
-1.386, 1.650e-4
-1.385, 1.603e-4
-1.384, 1.559e-4
-1.383, 1.516e-4
-1.382, 1.472e-4
-1.381, 1.432e-4
-1.380, 1.392e-4
-1.379, 1.354e-4
-1.378, 1.317e-4
-1.377, 1.278e-4
-1.376, 1.241e-4
-1.375, 1.206e-4
-1.374, 1.174e-4
-1.373, 1.142e-4
-1.372, 1.107e-4
-1.371, 1.074e-4
-1.370, 1.044e-4
-1.369, 1.015e-4
-1.368, 9.873e-5
-1.367, 9.571e-5
-1.366, 9.270e-5
-1.365, 8.998e-5
-1.364, 8.749e-5
-1.363, 8.518e-5
-1.362, 8.272e-5
-1.361, 8.016e-5
-1.360, 7.785e-5
-1.359, 7.566e-5
-1.358, 7.349e-5
-1.357, 7.108e-5
-1.356, 6.880e-5
-1.355, 6.688e-5
-1.354, 6.503e-5
-1.353, 6.324e-5
-1.352, 6.130e-5
-1.351, 5.938e-5
-1.350, 5.767e-5
-1.349, 5.609e-5
-1.348, 5.449e-5
-1.347, 5.267e-5
-1.346, 5.096e-5
-1.345, 4.951e-5
-1.344, 4.822e-5
-1.343, 4.687e-5
-1.342, 4.530e-5
-1.341, 4.393e-5
-1.340, 4.259e-5
-1.339, 4.136e-5
-1.338, 4.012e-5
-1.337, 3.864e-5
-1.336, 3.738e-5
-1.335, 3.629e-5
-1.334, 3.542e-5
-1.333, 3.457e-5
-1.332, 3.341e-5
-1.331, 3.221e-5
-1.330, 3.132e-5
-1.329, 3.051e-5
-1.328, 2.961e-5
-1.327, 2.857e-5
-1.326, 2.747e-5
-1.325, 2.666e-5
-1.324, 2.594e-5
-1.323, 2.524e-5
-1.322, 2.436e-5
-1.321, 2.351e-5
-1.320, 2.286e-5
-1.319, 2.234e-5
-1.318, 2.161e-5
-1.317, 2.075e-5
-1.316, 1.987e-5
-1.315, 1.914e-5
-1.314, 1.864e-5
-1.313, 1.805e-5
-1.312, 1.744e-5
-1.311, 1.681e-5
-1.310, 1.634e-5
-1.309, 1.593e-5
-1.308, 1.545e-5
-1.307, 1.471e-5
-1.306, 1.406e-5
-1.305, 1.353e-5
-1.304, 1.324e-5
-1.303, 1.289e-5
-1.302, 1.226e-5
-1.301, 1.175e-5
-1.300, 1.134e-5
-1.299, 1.104e-5
-1.298, 1.069e-5
-1.297, 1.013e-5
-1.296, 9.662e-6
-1.295, 9.340e-6
-1.294, 9.059e-6
-1.293, 8.733e-6
-1.292, 8.184e-6
-1.291, 7.699e-6
-1.290, 7.408e-6
-1.289, 7.218e-6
-1.288, 6.974e-6
-1.287, 6.514e-6
-1.286, 6.061e-6
-1.285, 5.842e-6
-1.284, 5.664e-6
-1.283, 5.358e-6
-1.282, 4.948e-6
-1.281, 4.480e-6
-1.280, 4.299e-6
-1.279, 4.228e-6
-1.278, 4.030e-6
-1.277, 3.688e-6
-1.276, 3.312e-6
-1.275, 3.108e-6
-1.274, 3.041e-6
-1.273, 2.828e-6
-1.272, 2.396e-6
-1.271, 2.021e-6
-1.270, 1.856e-6
-1.269, 1.873e-6
-1.268, 1.680e-6
-1.267, 1.347e-6
-1.266, 9.923e-7
-1.265, 8.641e-7
-1.264, 8.779e-7
-1.263, 6.598e-7
-1.262, 2.820e-7
-1.261, 3.137e-8
-1.260, -7.518e-8
-1.259, -8.011e-8
-1.258, -1.334e-7
-1.257, -4.550e-7
-1.256, -7.766e-7
-1.255, -8.674e-7
-1.254, -8.773e-7
-1.253, -1.019e-6
-1.252, -1.357e-6
-1.251, -1.673e-6
-1.250, -1.660e-6
-1.249, -1.607e-6
-1.248, -1.712e-6
-1.247, -1.980e-6
-1.246, -2.315e-6
-1.245, -2.367e-6
-1.244, -2.313e-6
-1.243, -2.476e-6
-1.242, -2.693e-6
-1.241, -3.002e-6
-1.240, -3.058e-6
-1.239, -2.949e-6
-1.238, -3.039e-6
-1.237, -3.237e-6
-1.236, -3.508e-6
-1.235, -3.558e-6
-1.234, -3.485e-6
-1.233, -3.617e-6
-1.232, -3.853e-6
-1.231, -4.133e-6
-1.230, -4.170e-6
-1.229, -4.192e-6
-1.228, -4.198e-6
-1.227, -4.411e-6
-1.226, -4.583e-6
-1.225, -4.638e-6
-1.224, -4.459e-6
-1.223, -4.532e-6
-1.222, -4.792e-6
-1.221, -5.002e-6
-1.220, -5.008e-6
-1.219, -4.972e-6
-1.218, -5.055e-6
-1.217, -5.281e-6
-1.216, -5.461e-6
-1.215, -5.447e-6
-1.214, -5.349e-6
-1.213, -5.377e-6
-1.212, -5.566e-6
-1.211, -5.736e-6
-1.210, -5.671e-6
-1.209, -5.562e-6
-1.208, -5.646e-6
-1.207, -5.904e-6
-1.206, -6.117e-6
-1.205, -6.046e-6
-1.204, -5.959e-6
-1.203, -6.015e-6
-1.202, -6.228e-6
-1.201, -6.456e-6
-1.200, -6.333e-6
-1.199, -6.285e-6
-1.198, -6.346e-6
-1.197, -6.567e-6
-1.196, -6.699e-6
-1.195, -6.665e-6
-1.194, -6.482e-6
-1.193, -6.560e-6
-1.192, -6.779e-6
-1.191, -6.966e-6
-1.190, -6.947e-6
-1.189, -6.783e-6
-1.188, -6.831e-6
-1.187, -7.098e-6
-1.186, -7.223e-6
-1.185, -7.205e-6
-1.184, -7.045e-6
-1.183, -7.078e-6
-1.182, -7.344e-6
-1.181, -7.462e-6
-1.180, -7.435e-6
-1.179, -7.264e-6
-1.178, -7.343e-6
-1.177, -7.550e-6
-1.176, -7.671e-6
-1.175, -7.584e-6
-1.174, -7.490e-6
-1.173, -7.525e-6
-1.172, -7.761e-6
-1.171, -7.959e-6
-1.170, -7.893e-6
-1.169, -7.785e-6
-1.168, -7.750e-6
-1.167, -7.921e-6
-1.166, -8.115e-6
-1.165, -8.001e-6
-1.164, -7.939e-6
-1.163, -8.006e-6
-1.162, -8.166e-6
-1.161, -8.297e-6
-1.160, -8.192e-6
-1.159, -8.058e-6
-1.158, -8.156e-6
-1.157, -8.343e-6
-1.156, -8.524e-6
-1.155, -8.480e-6
-1.154, -8.299e-6
-1.153, -8.368e-6
-1.152, -8.580e-6
-1.151, -8.659e-6
-1.150, -8.616e-6
-1.149, -8.389e-6
-1.148, -8.509e-6
-1.147, -8.696e-6
-1.146, -8.788e-6
-1.145, -8.696e-6
-1.144, -8.511e-6
-1.143, -8.582e-6
-1.142, -8.848e-6
-1.141, -8.955e-6
-1.140, -8.842e-6
-1.139, -8.717e-6
-1.138, -8.695e-6
-1.137, -8.988e-6
-1.136, -9.059e-6
-1.135, -9.008e-6
-1.134, -8.909e-6
-1.133, -8.947e-6
-1.132, -9.149e-6
-1.131, -9.295e-6
-1.130, -9.112e-6
-1.129, -8.970e-6
-1.128, -8.987e-6
-1.127, -9.235e-6
-1.126, -9.384e-6
-1.125, -9.244e-6
-1.124, -9.101e-6
-1.123, -9.197e-6
-1.122, -9.335e-6
-1.121, -9.500e-6
-1.120, -9.364e-6
-1.119, -9.220e-6
-1.118, -9.329e-6
-1.117, -9.456e-6
-1.116, -9.570e-6
-1.115, -9.512e-6
-1.114, -9.303e-6
-1.113, -9.411e-6
-1.112, -9.577e-6
-1.111, -9.702e-6
-1.110, -9.584e-6
-1.109, -9.438e-6
-1.108, -9.467e-6
-1.107, -9.731e-6
-1.106, -9.791e-6
-1.105, -9.716e-6
-1.104, -9.510e-6
-1.103, -9.610e-6
-1.102, -9.822e-6
-1.101, -9.925e-6
-1.100, -9.806e-6
-1.099, -9.701e-6
-1.098, -9.714e-6
-1.097, -1.000e-5
-1.096, -1.010e-5
-1.095, -9.967e-6
-1.094, -9.837e-6
-1.093, -9.847e-6
-1.092, -1.001e-5
-1.091, -1.020e-5
-1.090, -1.003e-5
-1.089, -9.936e-6
-1.088, -9.983e-6
-1.087, -1.021e-5
-1.086, -1.034e-5
-1.085, -1.010e-5
-1.084, -9.976e-6
-1.083, -1.006e-5
-1.082, -1.030e-5
-1.081, -1.040e-5
-1.080, -1.022e-5
-1.079, -1.010e-5
-1.078, -1.021e-5
-1.077, -1.042e-5
-1.076, -1.054e-5
-1.075, -1.046e-5
-1.074, -1.029e-5
-1.073, -1.038e-5
-1.072, -1.053e-5
-1.071, -1.061e-5
-1.070, -1.047e-5
-1.069, -1.032e-5
-1.068, -1.047e-5
-1.067, -1.074e-5
-1.066, -1.083e-5
-1.065, -1.076e-5
-1.064, -1.056e-5
-1.063, -1.061e-5
-1.062, -1.086e-5
-1.061, -1.084e-5
-1.060, -1.072e-5
-1.059, -1.066e-5
-1.058, -1.072e-5
-1.057, -1.100e-5
-1.056, -1.109e-5
-1.055, -1.091e-5
-1.054, -1.085e-5
-1.053, -1.083e-5
-1.052, -1.110e-5
-1.051, -1.119e-5
-1.050, -1.103e-5
-1.049, -1.095e-5
-1.048, -1.104e-5
-1.047, -1.127e-5
-1.046, -1.140e-5
-1.045, -1.123e-5
-1.044, -1.114e-5
-1.043, -1.125e-5
-1.042, -1.150e-5
-1.041, -1.161e-5
-1.040, -1.142e-5
-1.039, -1.128e-5
-1.038, -1.145e-5
-1.037, -1.166e-5
-1.036, -1.178e-5
-1.035, -1.172e-5
-1.034, -1.153e-5
-1.033, -1.171e-5
-1.032, -1.195e-5
-1.031, -1.204e-5
-1.030, -1.199e-5
-1.029, -1.186e-5
-1.028, -1.191e-5
-1.027, -1.224e-5
-1.026, -1.227e-5
-1.025, -1.222e-5
-1.024, -1.209e-5
-1.023, -1.221e-5
-1.022, -1.256e-5
-1.021, -1.263e-5
-1.020, -1.252e-5
-1.019, -1.238e-5
-1.018, -1.250e-5
-1.017, -1.281e-5
-1.016, -1.284e-5
-1.015, -1.272e-5
-1.014, -1.271e-5
-1.013, -1.282e-5
-1.012, -1.313e-5
-1.011, -1.327e-5
-1.010, -1.316e-5
-1.009, -1.309e-5
-1.008, -1.325e-5
-1.007, -1.352e-5
-1.006, -1.363e-5
-1.005, -1.355e-5
-1.004, -1.348e-5
-1.003, -1.366e-5
-1.002, -1.398e-5
-1.001, -1.412e-5
-1.000, -7.862e-6
-1.001, -4.602e-6
-1.002, -3.439e-6
-1.003, -2.805e-6
-1.004, -2.086e-6
-1.005, -1.365e-6
-1.006, -6.681e-7
-1.007, -3.189e-7
-1.008, -1.640e-7
-1.009, 1.448e-7
-1.010, 6.993e-7
-1.011, 1.102e-6
-1.012, 1.320e-6
-1.013, 1.362e-6
-1.014, 1.577e-6
-1.015, 1.975e-6
-1.016, 2.304e-6
-1.017, 2.424e-6
-1.018, 2.412e-6
-1.019, 2.549e-6
-1.020, 2.882e-6
-1.021, 3.165e-6
-1.022, 3.243e-6
-1.023, 3.189e-6
-1.024, 3.295e-6
-1.025, 3.547e-6
-1.026, 3.866e-6
-1.027, 3.871e-6
-1.028, 3.756e-6
-1.029, 3.845e-6
-1.030, 4.105e-6
-1.031, 4.340e-6
-1.032, 4.278e-6
-1.033, 4.121e-6
-1.034, 4.271e-6
-1.035, 4.472e-6
-1.036, 4.761e-6
-1.037, 4.707e-6
-1.038, 4.571e-6
-1.039, 4.638e-6
-1.040, 4.831e-6
-1.041, 5.019e-6
-1.042, 4.993e-6
-1.043, 4.857e-6
-1.044, 4.938e-6
-1.045, 5.143e-6
-1.046, 5.365e-6
-1.047, 5.301e-6
-1.048, 5.149e-6
-1.049, 5.171e-6
-1.050, 5.410e-6
-1.051, 5.585e-6
-1.052, 5.533e-6
-1.053, 5.368e-6
-1.054, 5.391e-6
-1.055, 5.640e-6
-1.056, 5.763e-6
-1.057, 5.750e-6
-1.058, 5.616e-6
-1.059, 5.632e-6
-1.060, 5.852e-6
-1.061, 5.980e-6
-1.062, 5.922e-6
-1.063, 5.815e-6
-1.064, 5.782e-6
-1.065, 6.033e-6
-1.066, 6.185e-6
-1.067, 6.101e-6
-1.068, 5.960e-6
-1.069, 6.029e-6
-1.070, 6.182e-6
-1.071, 6.383e-6
-1.072, 6.235e-6
-1.073, 6.131e-6
-1.074, 6.144e-6
-1.075, 6.373e-6
-1.076, 6.519e-6
-1.077, 6.430e-6
-1.078, 6.240e-6
-1.079, 6.337e-6
-1.080, 6.527e-6
-1.081, 6.633e-6
-1.082, 6.576e-6
-1.083, 6.382e-6
-1.084, 6.422e-6
-1.085, 6.631e-6
-1.086, 6.780e-6
-1.087, 6.704e-6
-1.088, 6.515e-6
-1.089, 6.589e-6
-1.090, 6.794e-6
-1.091, 6.875e-6
-1.092, 6.802e-6
-1.093, 6.673e-6
-1.094, 6.703e-6
-1.095, 6.928e-6
-1.096, 7.051e-6
-1.097, 6.926e-6
-1.098, 6.795e-6
-1.099, 6.829e-6
-1.100, 7.008e-6
-1.101, 7.165e-6
-1.102, 7.028e-6
-1.103, 6.915e-6
-1.104, 6.964e-6
-1.105, 7.144e-6
-1.106, 7.323e-6
-1.107, 7.177e-6
-1.108, 6.993e-6
-1.109, 7.071e-6
-1.110, 7.275e-6
-1.111, 7.433e-6
-1.112, 7.279e-6
-1.113, 7.113e-6
-1.114, 7.201e-6
-1.115, 7.377e-6
-1.116, 7.522e-6
-1.117, 7.405e-6
-1.118, 7.289e-6
-1.119, 7.334e-6
-1.120, 7.532e-6
-1.121, 7.631e-6
-1.122, 7.556e-6
-1.123, 7.389e-6
-1.124, 7.471e-6
-1.125, 7.650e-6
-1.126, 7.773e-6
-1.127, 7.664e-6
-1.128, 7.513e-6
-1.129, 7.584e-6
-1.130, 7.814e-6
-1.131, 7.909e-6
-1.132, 7.796e-6
-1.133, 7.659e-6
-1.134, 7.703e-6
-1.135, 7.935e-6
-1.136, 8.040e-6
-1.137, 7.915e-6
-1.138, 7.774e-6
-1.139, 7.860e-6
-1.140, 8.045e-6
-1.141, 8.183e-6
-1.142, 8.037e-6
-1.143, 7.918e-6
-1.144, 7.950e-6
-1.145, 8.174e-6
-1.146, 8.336e-6
-1.147, 8.168e-6
-1.148, 8.051e-6
-1.149, 8.104e-6
-1.150, 8.295e-6
-1.151, 8.436e-6
-1.152, 8.294e-6
-1.153, 8.158e-6
-1.154, 8.227e-6
-1.155, 8.447e-6
-1.156, 8.575e-6
-1.157, 8.401e-6
-1.158, 8.347e-6
-1.159, 8.387e-6
-1.160, 8.579e-6
-1.161, 8.712e-6
-1.162, 8.635e-6
-1.163, 8.452e-6
-1.164, 8.537e-6
-1.165, 8.721e-6
-1.166, 8.872e-6
-1.167, 8.753e-6
-1.168, 8.604e-6
-1.169, 8.660e-6
-1.170, 8.947e-6
-1.171, 9.045e-6
-1.172, 8.916e-6
-1.173, 8.784e-6
-1.174, 8.842e-6
-1.175, 9.101e-6
-1.176, 9.173e-6
-1.177, 9.092e-6
-1.178, 8.951e-6
-1.179, 9.013e-6
-1.180, 9.242e-6
-1.181, 9.390e-6
-1.182, 9.214e-6
-1.183, 9.125e-6
-1.184, 9.239e-6
-1.185, 9.426e-6
-1.186, 9.584e-6
-1.187, 9.414e-6
-1.188, 9.303e-6
-1.189, 9.408e-6
-1.190, 9.623e-6
-1.191, 9.754e-6
-1.192, 9.609e-6
-1.193, 9.516e-6
-1.194, 9.641e-6
-1.195, 9.809e-6
-1.196, 9.933e-6
-1.197, 9.802e-6
-1.198, 9.698e-6
-1.199, 9.816e-6
-1.200, 1.002e-5
-1.201, 1.015e-5
-1.202, 1.003e-5
-1.203, 9.958e-6
-1.204, 1.005e-5
-1.205, 1.031e-5
-1.206, 1.036e-5
-1.207, 1.032e-5
-1.208, 1.018e-5
-1.209, 1.030e-5
-1.210, 1.055e-5
-1.211, 1.063e-5
-1.212, 1.049e-5
-1.213, 1.045e-5
-1.214, 1.057e-5
-1.215, 1.082e-5
-1.216, 1.089e-5
-1.217, 1.081e-5
-1.218, 1.076e-5
-1.219, 1.083e-5
-1.220, 1.112e-5
-1.221, 1.122e-5
-1.222, 1.113e-5
-1.223, 1.103e-5
-1.224, 1.117e-5
-1.225, 1.143e-5
-1.226, 1.151e-5
-1.227, 1.142e-5
-1.228, 1.140e-5
-1.229, 1.156e-5
-1.230, 1.179e-5
-1.231, 1.189e-5
-1.232, 1.179e-5
-1.233, 1.171e-5
-1.234, 1.192e-5
-1.235, 1.213e-5
-1.236, 1.226e-5
-1.237, 1.219e-5
-1.238, 1.207e-5
-1.239, 1.229e-5
-1.240, 1.256e-5
-1.241, 1.268e-5
-1.242, 1.263e-5
-1.243, 1.254e-5
-1.244, 1.271e-5
-1.245, 1.301e-5
-1.246, 1.308e-5
-1.247, 1.308e-5
-1.248, 1.300e-5
-1.249, 1.315e-5
-1.250, 1.351e-5
-1.251, 1.358e-5
-1.252, 1.355e-5
-1.253, 1.351e-5
-1.254, 1.372e-5
-1.255, 1.401e-5
-1.256, 1.417e-5
-1.257, 1.406e-5
-1.258, 1.411e-5
-1.259, 1.423e-5
-1.260, 1.460e-5
-1.261, 1.476e-5
-1.262, 1.470e-5
-1.263, 1.471e-5
-1.264, 1.489e-5
-1.265, 1.523e-5
-1.266, 1.540e-5
-1.267, 1.535e-5
-1.268, 1.535e-5
-1.269, 1.556e-5
-1.270, 1.592e-5
-1.271, 1.612e-5
-1.272, 1.605e-5
-1.273, 1.608e-5
-1.274, 1.633e-5
-1.275, 1.668e-5
-1.276, 1.686e-5
-1.277, 1.688e-5
-1.278, 1.688e-5
-1.279, 1.721e-5
-1.280, 1.758e-5
-1.281, 1.775e-5
-1.282, 1.778e-5
-1.283, 1.778e-5
-1.284, 1.811e-5
-1.285, 1.847e-5
-1.286, 1.868e-5
-1.287, 1.876e-5
-1.288, 1.878e-5
-1.289, 1.908e-5
-1.290, 1.951e-5
-1.291, 1.972e-5
-1.292, 1.981e-5
-1.293, 1.986e-5
-1.294, 2.021e-5
-1.295, 2.066e-5
-1.296, 2.088e-5
-1.297, 2.097e-5
-1.298, 2.112e-5
-1.299, 2.145e-5
-1.300, 2.191e-5
-1.301, 2.217e-5
-1.302, 2.227e-5
-1.303, 2.242e-5
-1.304, 2.277e-5
-1.305, 2.326e-5
-1.306, 2.360e-5
-1.307, 2.367e-5
-1.308, 2.388e-5
-1.309, 2.426e-5
-1.310, 2.481e-5
-1.311, 2.514e-5
-1.312, 2.528e-5
-1.313, 2.547e-5
-1.314, 2.597e-5
-1.315, 2.648e-5
-1.316, 2.687e-5
-1.317, 2.707e-5
-1.318, 2.730e-5
-1.319, 2.786e-5
-1.320, 2.840e-5
-1.321, 2.880e-5
-1.322, 2.907e-5
-1.323, 2.934e-5
-1.324, 2.990e-5
-1.325, 3.054e-5
-1.326, 3.099e-5
-1.327, 3.133e-5
-1.328, 3.168e-5
-1.329, 3.230e-5
-1.330, 3.305e-5
-1.331, 3.354e-5
-1.332, 3.392e-5
-1.333, 3.441e-5
-1.334, 3.505e-5
-1.335, 3.587e-5
-1.336, 3.646e-5
-1.337, 3.690e-5
-1.338, 3.746e-5
-1.339, 3.828e-5
-1.340, 3.916e-5
-1.341, 3.987e-5
-1.342, 4.042e-5
-1.343, 4.114e-5
-1.344, 4.204e-5
-1.345, 4.305e-5
-1.346, 4.391e-5
-1.347, 4.467e-5
-1.348, 4.545e-5
-1.349, 4.658e-5
-1.350, 4.772e-5
-1.351, 4.882e-5
-1.352, 4.973e-5
-1.353, 5.075e-5
-1.354, 5.209e-5
-1.355, 5.350e-5
-1.356, 5.482e-5
-1.357, 5.599e-5
-1.358, 5.731e-5
-1.359, 5.896e-5
-1.360, 6.064e-5
-1.361, 6.230e-5
-1.362, 6.382e-5
-1.363, 6.549e-5
-1.364, 6.746e-5
-1.365, 6.958e-5
-1.366, 7.162e-5
-1.367, 7.363e-5
-1.368, 7.582e-5
-1.369, 7.825e-5
-1.370, 8.091e-5
-1.371, 8.346e-5
-1.372, 8.600e-5
-1.373, 8.864e-5
-1.374, 9.169e-5
-1.375, 9.488e-5
-1.376, 9.791e-5
-1.377, 1.011e-4
-1.378, 1.043e-4
-1.379, 1.079e-4
-1.380, 1.118e-4
-1.381, 1.156e-4
-1.382, 1.193e-4
-1.383, 1.233e-4
-1.384, 1.275e-4
-1.385, 1.319e-4
-1.386, 1.363e-4
-1.387, 1.408e-4
-1.388, 1.454e-4
-1.389, 1.505e-4
-1.390, 1.557e-4
-1.391, 1.609e-4
-1.392, 1.659e-4
-1.393, 1.712e-4
-1.394, 1.769e-4
-1.395, 1.828e-4
-1.396, 1.886e-4
-1.397, 1.943e-4
-1.398, 2.003e-4
-1.399, 2.067e-4
-1.400, 2.057e-4
-1.399, 2.007e-4
-1.398, 1.960e-4
-1.397, 1.913e-4
-1.396, 1.868e-4
-1.395, 1.823e-4
-1.394, 1.778e-4
-1.393, 1.730e-4
-1.392, 1.684e-4
-1.391, 1.640e-4
-1.390, 1.595e-4
-1.389, 1.551e-4
-1.388, 1.508e-4
-1.387, 1.466e-4
-1.386, 1.428e-4
-1.385, 1.389e-4
-1.384, 1.351e-4
-1.383, 1.311e-4
-1.382, 1.273e-4
-1.381, 1.239e-4
-1.380, 1.205e-4
-1.379, 1.170e-4
-1.378, 1.136e-4
-1.377, 1.104e-4
-1.376, 1.074e-4
-1.375, 1.045e-4
-1.374, 1.014e-4
-1.373, 9.823e-5
-1.372, 9.523e-5
-1.371, 9.245e-5
-1.370, 8.988e-5
-1.369, 8.718e-5
-1.368, 8.449e-5
-1.367, 8.181e-5
-1.366, 7.955e-5
-1.365, 7.734e-5
-1.364, 7.496e-5
-1.363, 7.251e-5
-1.362, 7.027e-5
-1.361, 6.827e-5
-1.360, 6.641e-5
-1.359, 6.434e-5
-1.358, 6.226e-5
-1.357, 6.036e-5
-1.356, 5.869e-5
-1.355, 5.700e-5
-1.354, 5.524e-5
-1.353, 5.332e-5
-1.352, 5.166e-5
-1.351, 5.016e-5
-1.350, 4.866e-5
-1.349, 4.710e-5
-1.348, 4.553e-5
-1.347, 4.395e-5
-1.346, 4.275e-5
-1.345, 4.162e-5
-1.344, 4.030e-5
-1.343, 3.886e-5
-1.342, 3.754e-5
-1.341, 3.653e-5
-1.340, 3.549e-5
-1.339, 3.427e-5
-1.338, 3.301e-5
-1.337, 3.195e-5
-1.336, 3.110e-5
-1.335, 3.022e-5
-1.334, 2.914e-5
-1.333, 2.803e-5
-1.332, 2.699e-5
-1.331, 2.619e-5
-1.330, 2.548e-5
-1.329, 2.460e-5
-1.328, 2.369e-5
-1.327, 2.284e-5
-1.326, 2.222e-5
-1.325, 2.164e-5
-1.324, 2.087e-5
-1.323, 1.996e-5
-1.322, 1.916e-5
-1.321, 1.856e-5
-1.320, 1.804e-5
-1.319, 1.736e-5
-1.318, 1.662e-5
-1.317, 1.605e-5
-1.316, 1.566e-5
-1.315, 1.514e-5
-1.314, 1.453e-5
-1.313, 1.375e-5
-1.312, 1.311e-5
-1.311, 1.272e-5
-1.310, 1.232e-5
-1.309, 1.188e-5
-1.308, 1.127e-5
-1.307, 1.077e-5
-1.306, 1.044e-5
-1.305, 1.006e-5
-1.304, 9.562e-6
-1.303, 8.924e-6
-1.302, 8.435e-6
-1.301, 8.243e-6
-1.300, 7.954e-6
-1.299, 7.585e-6
-1.298, 7.145e-6
-1.297, 6.701e-6
-1.296, 6.528e-6
-1.295, 6.338e-6
-1.294, 5.853e-6
-1.293, 5.365e-6
-1.292, 4.960e-6
-1.291, 4.802e-6
-1.290, 4.670e-6
-1.289, 4.303e-6
-1.288, 3.907e-6
-1.287, 3.614e-6
-1.286, 3.467e-6
-1.285, 3.299e-6
-1.284, 3.066e-6
-1.283, 2.552e-6
-1.282, 2.319e-6
-1.281, 2.203e-6
-1.280, 2.095e-6
-1.279, 1.805e-6
-1.278, 1.448e-6
-1.277, 1.131e-6
-1.276, 1.106e-6
-1.275, 9.894e-7
-1.274, 7.141e-7
-1.273, 3.037e-7
-1.272, 9.156e-8
-1.271, 5.801e-8
-1.270, 1.855e-8
-1.269, -1.462e-7
-1.268, -5.280e-7
-1.267, -7.757e-7
-1.266, -7.934e-7
-1.265, -8.398e-7
-1.264, -1.054e-6
-1.263, -1.416e-6
-1.262, -1.639e-6
-1.261, -1.570e-6
-1.260, -1.615e-6
-1.259, -1.816e-6
-1.258, -2.136e-6
-1.257, -2.309e-6
-1.256, -2.259e-6
-1.255, -2.265e-6
-1.254, -2.515e-6
-1.253, -2.801e-6
-1.252, -2.977e-6
-1.251, -2.996e-6
-1.250, -2.935e-6
-1.249, -3.140e-6
-1.248, -3.445e-6
-1.247, -3.543e-6
-1.246, -3.514e-6
-1.245, -3.486e-6
-1.244, -3.742e-6
-1.243, -4.137e-6
-1.242, -4.318e-6
-1.241, -4.243e-6
-1.240, -4.100e-6
-1.239, -4.196e-6
-1.238, -4.471e-6
-1.237, -4.511e-6
-1.236, -4.496e-6
-1.235, -4.505e-6
-1.234, -4.642e-6
-1.233, -4.955e-6
-1.232, -5.036e-6
-1.231, -4.998e-6
-1.230, -4.886e-6
-1.229, -5.082e-6
-1.228, -5.328e-6
-1.227, -5.409e-6
-1.226, -5.360e-6
-1.225, -5.271e-6
-1.224, -5.395e-6
-1.223, -5.676e-6
-1.222, -5.796e-6
-1.221, -5.727e-6
-1.220, -5.628e-6
-1.219, -5.827e-6
-1.218, -6.038e-6
-1.217, -6.131e-6
-1.216, -6.018e-6
-1.215, -6.006e-6
-1.214, -6.150e-6
-1.213, -6.347e-6
-1.212, -6.389e-6
-1.211, -6.313e-6
-1.210, -6.166e-6
-1.209, -6.391e-6
-1.208, -6.599e-6
-1.207, -6.677e-6
-1.206, -6.589e-6
-1.205, -6.469e-6
-1.204, -6.601e-6
-1.203, -6.875e-6
-1.202, -6.918e-6
-1.201, -6.864e-6
-1.200, -6.742e-6
-1.199, -6.867e-6
-1.198, -7.155e-6
-1.197, -7.154e-6
-1.196, -7.051e-6
-1.195, -6.889e-6
-1.194, -7.033e-6
-1.193, -7.292e-6
-1.192, -7.345e-6
-1.191, -7.260e-6
-1.190, -7.255e-6
-1.189, -7.383e-6
-1.188, -7.573e-6
-1.187, -7.642e-6
-1.186, -7.451e-6
-1.185, -7.330e-6
-1.184, -7.453e-6
-1.183, -7.710e-6
-1.182, -7.739e-6
-1.181, -7.668e-6
-1.180, -7.554e-6
-1.179, -7.710e-6
-1.178, -7.961e-6
-1.177, -7.992e-6
-1.176, -7.827e-6
-1.175, -7.678e-6
-1.174, -7.817e-6
-1.173, -8.005e-6
-1.172, -8.074e-6
-1.171, -7.991e-6
-1.170, -7.880e-6
-1.169, -7.991e-6
-1.168, -8.201e-6
-1.167, -8.230e-6
-1.166, -8.168e-6
-1.165, -7.989e-6
-1.164, -8.143e-6
-1.163, -8.356e-6
-1.162, -8.362e-6
-1.161, -8.278e-6
-1.160, -8.200e-6
-1.159, -8.352e-6
-1.158, -8.633e-6
-1.157, -8.618e-6
-1.156, -8.497e-6
-1.155, -8.382e-6
-1.154, -8.454e-6
-1.153, -8.694e-6
-1.152, -8.728e-6
-1.151, -8.593e-6
-1.150, -8.512e-6
-1.149, -8.568e-6
-1.148, -8.784e-6
-1.147, -8.810e-6
-1.146, -8.699e-6
-1.145, -8.592e-6
-1.144, -8.676e-6
-1.143, -8.898e-6
-1.142, -8.948e-6
-1.141, -8.820e-6
-1.140, -8.722e-6
-1.139, -8.848e-6
-1.138, -9.038e-6
-1.137, -9.040e-6
-1.136, -8.936e-6
-1.135, -8.781e-6
-1.134, -8.927e-6
-1.133, -9.099e-6
-1.132, -9.115e-6
-1.131, -9.019e-6
-1.130, -8.923e-6
-1.129, -9.082e-6
-1.128, -9.252e-6
-1.127, -9.290e-6
-1.126, -9.217e-6
-1.125, -9.035e-6
-1.124, -9.114e-6
-1.123, -9.338e-6
-1.122, -9.333e-6
-1.121, -9.250e-6
-1.120, -9.107e-6
-1.119, -9.236e-6
-1.118, -9.511e-6
-1.117, -9.473e-6
-1.116, -9.351e-6
-1.115, -9.247e-6
-1.114, -9.371e-6
-1.113, -9.560e-6
-1.112, -9.554e-6
-1.111, -9.425e-6
-1.110, -9.380e-6
-1.109, -9.419e-6
-1.108, -9.719e-6
-1.107, -9.707e-6
-1.106, -9.582e-6
-1.105, -9.452e-6
-1.104, -9.532e-6
-1.103, -9.731e-6
-1.102, -9.788e-6
-1.101, -9.631e-6
-1.100, -9.548e-6
-1.099, -9.681e-6
-1.098, -9.849e-6
-1.097, -9.888e-6
-1.096, -9.735e-6
-1.095, -9.622e-6
-1.094, -9.748e-6
-1.093, -9.934e-6
-1.092, -9.979e-6
-1.091, -9.864e-6
-1.090, -9.718e-6
-1.089, -9.857e-6
-1.088, -1.006e-5
-1.087, -1.005e-5
-1.086, -9.988e-6
-1.085, -9.885e-6
-1.084, -1.001e-5
-1.083, -1.031e-5
-1.082, -1.028e-5
-1.081, -1.014e-5
-1.080, -9.964e-6
-1.079, -1.006e-5
-1.078, -1.032e-5
-1.077, -1.031e-5
-1.076, -1.025e-5
-1.075, -1.014e-5
-1.074, -1.025e-5
-1.073, -1.046e-5
-1.072, -1.044e-5
-1.071, -1.027e-5
-1.070, -1.017e-5
-1.069, -1.026e-5
-1.068, -1.050e-5
-1.067, -1.054e-5
-1.066, -1.039e-5
-1.065, -1.033e-5
-1.064, -1.040e-5
-1.063, -1.066e-5
-1.062, -1.075e-5
-1.061, -1.055e-5
-1.060, -1.046e-5
-1.059, -1.061e-5
-1.058, -1.075e-5
-1.057, -1.080e-5
-1.056, -1.066e-5
-1.055, -1.054e-5
-1.054, -1.070e-5
-1.053, -1.092e-5
-1.052, -1.093e-5
-1.051, -1.083e-5
-1.050, -1.070e-5
-1.049, -1.094e-5
-1.048, -1.110e-5
-1.047, -1.113e-5
-1.046, -1.102e-5
-1.045, -1.090e-5
-1.044, -1.098e-5
-1.043, -1.123e-5
-1.042, -1.128e-5
-1.041, -1.120e-5
-1.040, -1.100e-5
-1.039, -1.121e-5
-1.038, -1.145e-5
-1.037, -1.148e-5
-1.036, -1.132e-5
-1.035, -1.124e-5
-1.034, -1.138e-5
-1.033, -1.164e-5
-1.032, -1.165e-5
-1.031, -1.154e-5
-1.030, -1.150e-5
-1.029, -1.159e-5
-1.028, -1.186e-5
-1.027, -1.188e-5
-1.026, -1.178e-5
-1.025, -1.173e-5
-1.024, -1.190e-5
-1.023, -1.212e-5
-1.022, -1.220e-5
-1.021, -1.202e-5
-1.020, -1.199e-5
-1.019, -1.221e-5
-1.018, -1.238e-5
-1.017, -1.249e-5
-1.016, -1.233e-5
-1.015, -1.228e-5
-1.014, -1.250e-5
-1.013, -1.273e-5
-1.012, -1.287e-5
-1.011, -1.282e-5
-1.010, -1.273e-5
-1.009, -1.290e-5
-1.008, -1.312e-5
-1.007, -1.320e-5
-1.006, -1.314e-5
-1.005, -1.303e-5
-1.004, -1.327e-5
-1.003, -1.361e-5
-1.002, -1.363e-5
-1.001, -1.363e-5
-1.000, -7.373e-6
-1.001, -4.556e-6
-1.002, -3.544e-6
-1.003, -2.728e-6
-1.004, -1.838e-6
-1.005, -1.149e-6
-1.006, -7.697e-7
-1.007, -4.856e-7
-1.008, -1.748e-7
-1.009, 3.244e-7
-1.010, 8.473e-7
-1.011, 9.647e-7
-1.012, 1.063e-6
-1.013, 1.320e-6
-1.014, 1.706e-6
-1.015, 2.043e-6
-1.016, 2.101e-6
-1.017, 2.108e-6
-1.018, 2.279e-6
-1.019, 2.583e-6
-1.020, 2.866e-6
-1.021, 2.906e-6
-1.022, 2.828e-6
-1.023, 2.986e-6
-1.024, 3.302e-6
-1.025, 3.518e-6
-1.026, 3.512e-6
-1.027, 3.424e-6
-1.028, 3.564e-6
-1.029, 3.818e-6
-1.030, 4.056e-6
-1.031, 4.039e-6
-1.032, 3.867e-6
-1.033, 3.957e-6
-1.034, 4.225e-6
-1.035, 4.406e-6
-1.036, 4.382e-6
-1.037, 4.266e-6
-1.038, 4.319e-6
-1.039, 4.598e-6
-1.040, 4.743e-6
-1.041, 4.646e-6
-1.042, 4.554e-6
-1.043, 4.576e-6
-1.044, 4.855e-6
-1.045, 5.043e-6
-1.046, 4.964e-6
-1.047, 4.889e-6
-1.048, 4.935e-6
-1.049, 5.082e-6
-1.050, 5.269e-6
-1.051, 5.183e-6
-1.052, 5.007e-6
-1.053, 5.091e-6
-1.054, 5.293e-6
-1.055, 5.481e-6
-1.056, 5.367e-6
-1.057, 5.265e-6
-1.058, 5.305e-6
-1.059, 5.502e-6
-1.060, 5.692e-6
-1.061, 5.589e-6
-1.062, 5.461e-6
-1.063, 5.524e-6
-1.064, 5.690e-6
-1.065, 5.805e-6
-1.066, 5.770e-6
-1.067, 5.579e-6
-1.068, 5.637e-6
-1.069, 5.812e-6
-1.070, 5.999e-6
-1.071, 5.913e-6
-1.072, 5.725e-6
-1.073, 5.743e-6
-1.074, 6.008e-6
-1.075, 6.160e-6
-1.076, 6.005e-6
-1.077, 5.913e-6
-1.078, 5.912e-6
-1.079, 6.183e-6
-1.080, 6.257e-6
-1.081, 6.164e-6
-1.082, 6.019e-6
-1.083, 6.049e-6
-1.084, 6.240e-6
-1.085, 6.394e-6
-1.086, 6.234e-6
-1.087, 6.156e-6
-1.088, 6.163e-6
-1.089, 6.372e-6
-1.090, 6.523e-6
-1.091, 6.390e-6
-1.092, 6.276e-6
-1.093, 6.278e-6
-1.094, 6.482e-6
-1.095, 6.671e-6
-1.096, 6.502e-6
-1.097, 6.378e-6
-1.098, 6.448e-6
-1.099, 6.581e-6
-1.100, 6.748e-6
-1.101, 6.649e-6
-1.102, 6.454e-6
-1.103, 6.548e-6
-1.104, 6.720e-6
-1.105, 6.864e-6
-1.106, 6.782e-6
-1.107, 6.619e-6
-1.108, 6.646e-6
-1.109, 6.822e-6
-1.110, 6.957e-6
-1.111, 6.863e-6
-1.112, 6.693e-6
-1.113, 6.751e-6
-1.114, 6.976e-6
-1.115, 7.069e-6
-1.116, 6.989e-6
-1.117, 6.826e-6
-1.118, 6.842e-6
-1.119, 7.056e-6
-1.120, 7.189e-6
-1.121, 7.052e-6
-1.122, 6.953e-6
-1.123, 6.956e-6
-1.124, 7.182e-6
-1.125, 7.310e-6
-1.126, 7.200e-6
-1.127, 7.083e-6
-1.128, 7.061e-6
-1.129, 7.299e-6
-1.130, 7.440e-6
-1.131, 7.292e-6
-1.132, 7.173e-6
-1.133, 7.208e-6
-1.134, 7.399e-6
-1.135, 7.556e-6
-1.136, 7.392e-6
-1.137, 7.267e-6
-1.138, 7.328e-6
-1.139, 7.503e-6
-1.140, 7.623e-6
-1.141, 7.558e-6
-1.142, 7.374e-6
-1.143, 7.456e-6
-1.144, 7.629e-6
-1.145, 7.765e-6
-1.146, 7.690e-6
-1.147, 7.482e-6
-1.148, 7.593e-6
-1.149, 7.759e-6
-1.150, 7.875e-6
-1.151, 7.795e-6
-1.152, 7.639e-6
-1.153, 7.675e-6
-1.154, 7.903e-6
-1.155, 8.015e-6
-1.156, 7.919e-6
-1.157, 7.766e-6
-1.158, 7.810e-6
-1.159, 8.016e-6
-1.160, 8.118e-6
-1.161, 8.036e-6
-1.162, 7.903e-6
-1.163, 7.914e-6
-1.164, 8.131e-6
-1.165, 8.276e-6
-1.166, 8.185e-6
-1.167, 8.063e-6
-1.168, 8.071e-6
-1.169, 8.221e-6
-1.170, 8.419e-6
-1.171, 8.301e-6
-1.172, 8.173e-6
-1.173, 8.243e-6
-1.174, 8.418e-6
-1.175, 8.596e-6
-1.176, 8.436e-6
-1.177, 8.337e-6
-1.178, 8.401e-6
-1.179, 8.541e-6
-1.180, 8.693e-6
-1.181, 8.639e-6
-1.182, 8.424e-6
-1.183, 8.557e-6
-1.184, 8.699e-6
-1.185, 8.849e-6
-1.186, 8.779e-6
-1.187, 8.597e-6
-1.188, 8.676e-6
-1.189, 8.929e-6
-1.190, 9.007e-6
-1.191, 8.966e-6
-1.192, 8.797e-6
-1.193, 8.849e-6
-1.194, 9.063e-6
-1.195, 9.200e-6
-1.196, 9.101e-6
-1.197, 8.976e-6
-1.198, 9.030e-6
-1.199, 9.226e-6
-1.200, 9.372e-6
-1.201, 9.282e-6
-1.202, 9.186e-6
-1.203, 9.238e-6
-1.204, 9.441e-6
-1.205, 9.555e-6
-1.206, 9.461e-6
-1.207, 9.363e-6
-1.208, 9.409e-6
-1.209, 9.590e-6
-1.210, 9.798e-6
-1.211, 9.652e-6
-1.212, 9.550e-6
-1.213, 9.610e-6
-1.214, 9.827e-6
-1.215, 1.001e-5
-1.216, 9.923e-6
-1.217, 9.766e-6
-1.218, 9.830e-6
-1.219, 1.007e-5
-1.220, 1.025e-5
-1.221, 1.016e-5
-1.222, 1.003e-5
-1.223, 1.014e-5
-1.224, 1.031e-5
-1.225, 1.050e-5
-1.226, 1.040e-5
-1.227, 1.030e-5
-1.228, 1.043e-5
-1.229, 1.066e-5
-1.230, 1.080e-5
-1.231, 1.073e-5
-1.232, 1.058e-5
-1.233, 1.064e-5
-1.234, 1.096e-5
-1.235, 1.109e-5
-1.236, 1.105e-5
-1.237, 1.090e-5
-1.238, 1.099e-5
-1.239, 1.127e-5
-1.240, 1.139e-5
-1.241, 1.130e-5
-1.242, 1.130e-5
-1.243, 1.134e-5
-1.244, 1.159e-5
-1.245, 1.180e-5
-1.246, 1.167e-5
-1.247, 1.164e-5
-1.248, 1.172e-5
-1.249, 1.200e-5
-1.250, 1.220e-5
-1.251, 1.212e-5
-1.252, 1.206e-5
-1.253, 1.214e-5
-1.254, 1.240e-5
-1.255, 1.265e-5
-1.256, 1.256e-5
-1.257, 1.246e-5
-1.258, 1.263e-5
-1.259, 1.287e-5
-1.260, 1.311e-5
-1.261, 1.306e-5
-1.262, 1.299e-5
-1.263, 1.313e-5
-1.264, 1.339e-5
-1.265, 1.362e-5
-1.266, 1.361e-5
-1.267, 1.352e-5
-1.268, 1.367e-5
-1.269, 1.401e-5
-1.270, 1.422e-5
-1.271, 1.419e-5
-1.272, 1.414e-5
-1.273, 1.431e-5
-1.274, 1.463e-5
-1.275, 1.484e-5
-1.276, 1.486e-5
-1.277, 1.480e-5
-1.278, 1.498e-5
-1.279, 1.532e-5
-1.280, 1.561e-5
-1.281, 1.559e-5
-1.282, 1.555e-5
-1.283, 1.574e-5
-1.284, 1.610e-5
-1.285, 1.638e-5
-1.286, 1.638e-5
-1.287, 1.643e-5
-1.288, 1.658e-5
-1.289, 1.695e-5
-1.290, 1.728e-5
-1.291, 1.726e-5
-1.292, 1.729e-5
-1.293, 1.753e-5
-1.294, 1.793e-5
-1.295, 1.822e-5
-1.296, 1.826e-5
-1.297, 1.831e-5
-1.298, 1.856e-5
-1.299, 1.897e-5
-1.300, 1.929e-5
-1.301, 1.935e-5
-1.302, 1.941e-5
-1.303, 1.971e-5
-1.304, 2.015e-5
-1.305, 2.047e-5
-1.306, 2.061e-5
-1.307, 2.068e-5
-1.308, 2.098e-5
-1.309, 2.145e-5
-1.310, 2.183e-5
-1.311, 2.194e-5
-1.312, 2.208e-5
-1.313, 2.241e-5
-1.314, 2.288e-5
-1.315, 2.331e-5
-1.316, 2.346e-5
-1.317, 2.367e-5
-1.318, 2.404e-5
-1.319, 2.454e-5
-1.320, 2.502e-5
-1.321, 2.518e-5
-1.322, 2.545e-5
-1.323, 2.579e-5
-1.324, 2.640e-5
-1.325, 2.693e-5
-1.326, 2.718e-5
-1.327, 2.740e-5
-1.328, 2.787e-5
-1.329, 2.848e-5
-1.330, 2.910e-5
-1.331, 2.938e-5
-1.332, 2.968e-5
-1.333, 3.029e-5
-1.334, 3.094e-5
-1.335, 3.158e-5
-1.336, 3.196e-5
-1.337, 3.244e-5
-1.338, 3.303e-5
-1.339, 3.379e-5
-1.340, 3.453e-5
-1.341, 3.506e-5
-1.342, 3.552e-5
-1.343, 3.631e-5
-1.344, 3.716e-5
-1.345, 3.802e-5
-1.346, 3.867e-5
-1.347, 3.927e-5
-1.348, 4.020e-5
-1.349, 4.121e-5
-1.350, 4.221e-5
-1.351, 4.303e-5
-1.352, 4.382e-5
-1.353, 4.485e-5
-1.354, 4.612e-5
-1.355, 4.733e-5
-1.356, 4.835e-5
-1.357, 4.942e-5
-1.358, 5.071e-5
-1.359, 5.226e-5
-1.360, 5.367e-5
-1.361, 5.505e-5
-1.362, 5.643e-5
-1.363, 5.808e-5
-1.364, 5.995e-5
-1.365, 6.180e-5
-1.366, 6.349e-5
-1.367, 6.530e-5
-1.368, 6.727e-5
-1.369, 6.963e-5
-1.370, 7.199e-5
-1.371, 7.419e-5
-1.372, 7.650e-5
-1.373, 7.917e-5
-1.374, 8.200e-5
-1.375, 8.492e-5
-1.376, 8.769e-5
-1.377, 9.060e-5
-1.378, 9.379e-5
-1.379, 9.727e-5
-1.380, 1.009e-4
-1.381, 1.043e-4
-1.382, 1.080e-4
-1.383, 1.119e-4
-1.384, 1.160e-4
-1.385, 1.202e-4
-1.386, 1.243e-4
-1.387, 1.285e-4
-1.388, 1.331e-4
-1.389, 1.379e-4
-1.390, 1.429e-4
-1.391, 1.478e-4
-1.392, 1.528e-4
-1.393, 1.582e-4
-1.394, 1.639e-4
-1.395, 1.696e-4
-1.396, 1.752e-4
-1.397, 1.810e-4
-1.398, 1.871e-4
-1.399, 1.936e-4
-1.400, 1.924e-4
-1.399, 1.875e-4
-1.398, 1.831e-4
-1.397, 1.789e-4
-1.396, 1.747e-4
-1.395, 1.707e-4
-1.394, 1.665e-4
-1.393, 1.622e-4
-1.392, 1.581e-4
-1.391, 1.540e-4
-1.390, 1.499e-4
-1.389, 1.456e-4
-1.388, 1.412e-4
-1.387, 1.371e-4
-1.386, 1.334e-4
-1.385, 1.299e-4
-1.384, 1.263e-4
-1.383, 1.227e-4
-1.382, 1.193e-4
-1.381, 1.160e-4
-1.380, 1.129e-4
-1.379, 1.095e-4
-1.378, 1.062e-4
-1.377, 1.032e-4
-1.376, 1.003e-4
-1.375, 9.761e-5
-1.374, 9.456e-5
-1.373, 9.167e-5
-1.372, 8.889e-5
-1.371, 8.644e-5
-1.370, 8.404e-5
-1.369, 8.143e-5
-1.368, 7.888e-5
-1.367, 7.651e-5
-1.366, 7.431e-5
-1.365, 7.218e-5
-1.364, 6.990e-5
-1.363, 6.766e-5
-1.362, 6.568e-5
-1.361, 6.377e-5
-1.360, 6.195e-5
-1.359, 5.989e-5
-1.358, 5.784e-5
-1.357, 5.612e-5
-1.356, 5.451e-5
-1.355, 5.296e-5
-1.354, 5.119e-5
-1.353, 4.949e-5
-1.352, 4.793e-5
-1.351, 4.655e-5
-1.350, 4.513e-5
-1.349, 4.363e-5
-1.348, 4.211e-5
-1.347, 4.080e-5
-1.346, 3.967e-5
-1.345, 3.843e-5
-1.344, 3.704e-5
-1.343, 3.567e-5
-1.342, 3.449e-5
-1.341, 3.362e-5
-1.340, 3.260e-5
-1.339, 3.141e-5
-1.338, 3.028e-5
-1.337, 2.928e-5
-1.336, 2.845e-5
-1.335, 2.759e-5
-1.334, 2.646e-5
-1.333, 2.551e-5
-1.332, 2.469e-5
-1.331, 2.395e-5
-1.330, 2.328e-5
-1.329, 2.229e-5
-1.328, 2.141e-5
-1.327, 2.065e-5
-1.326, 2.003e-5
-1.325, 1.945e-5
-1.324, 1.860e-5
-1.323, 1.773e-5
-1.322, 1.713e-5
-1.321, 1.670e-5
-1.320, 1.619e-5
-1.319, 1.549e-5
-1.318, 1.473e-5
-1.317, 1.419e-5
-1.316, 1.375e-5
-1.315, 1.329e-5
-1.314, 1.263e-5
-1.313, 1.199e-5
-1.312, 1.156e-5
-1.311, 1.127e-5
-1.310, 1.087e-5
-1.309, 1.030e-5
-1.308, 9.739e-6
-1.307, 9.357e-6
-1.306, 9.121e-6
-1.305, 8.770e-6
-1.304, 8.240e-6
-1.303, 7.718e-6
-1.302, 7.329e-6
-1.301, 7.173e-6
-1.300, 6.878e-6
-1.299, 6.345e-6
-1.298, 5.849e-6
-1.297, 5.568e-6
-1.296, 5.413e-6
-1.295, 5.236e-6
-1.294, 4.754e-6
-1.293, 4.360e-6
-1.292, 4.119e-6
-1.291, 3.952e-6
-1.290, 3.787e-6
-1.289, 3.282e-6
-1.288, 2.950e-6
-1.287, 2.730e-6
-1.286, 2.625e-6
-1.285, 2.500e-6
-1.284, 2.151e-6
-1.283, 1.774e-6
-1.282, 1.610e-6
-1.281, 1.586e-6
-1.280, 1.412e-6
-1.279, 1.044e-6
-1.278, 6.579e-7
-1.277, 5.385e-7
-1.276, 5.207e-7
-1.275, 3.461e-7
-1.274, 4.815e-8
-1.273, -2.932e-7
-1.272, -4.126e-7
-1.271, -4.491e-7
-1.270, -6.395e-7
-1.269, -9.927e-7
-1.268, -1.245e-6
-1.267, -1.315e-6
-1.266, -1.237e-6
-1.265, -1.323e-6
-1.264, -1.617e-6
-1.263, -1.946e-6
-1.262, -2.086e-6
-1.261, -2.060e-6
-1.260, -2.113e-6
-1.259, -2.438e-6
-1.258, -2.602e-6
-1.257, -2.714e-6
-1.256, -2.627e-6
-1.255, -2.718e-6
-1.254, -3.035e-6
-1.253, -3.187e-6
-1.252, -3.298e-6
-1.251, -3.232e-6
-1.250, -3.245e-6
-1.249, -3.534e-6
-1.248, -3.754e-6
-1.247, -3.795e-6
-1.246, -3.740e-6
-1.245, -3.751e-6
-1.244, -4.098e-6
-1.243, -4.308e-6
-1.242, -4.373e-6
-1.241, -4.286e-6
-1.240, -4.265e-6
-1.239, -4.526e-6
-1.238, -4.731e-6
-1.237, -4.740e-6
-1.236, -4.707e-6
-1.235, -4.761e-6
-1.234, -5.028e-6
-1.233, -5.291e-6
-1.232, -5.286e-6
-1.231, -5.183e-6
-1.230, -5.222e-6
-1.229, -5.469e-6
-1.228, -5.540e-6
-1.227, -5.568e-6
-1.226, -5.439e-6
-1.225, -5.508e-6
-1.224, -5.746e-6
-1.223, -5.939e-6
-1.222, -5.910e-6
-1.221, -5.748e-6
-1.220, -5.747e-6
-1.219, -5.970e-6
-1.218, -6.151e-6
-1.217, -6.187e-6
-1.216, -6.036e-6
-1.215, -6.055e-6
-1.214, -6.293e-6
-1.213, -6.381e-6
-1.212, -6.394e-6
-1.211, -6.300e-6
-1.210, -6.243e-6
-1.209, -6.519e-6
-1.208, -6.659e-6
-1.207, -6.698e-6
-1.206, -6.574e-6
-1.205, -6.526e-6
-1.204, -6.760e-6
-1.203, -6.939e-6
-1.202, -6.877e-6
-1.201, -6.761e-6
-1.200, -6.727e-6
-1.199, -6.972e-6
-1.198, -7.132e-6
-1.197, -7.104e-6
-1.196, -6.983e-6
-1.195, -6.973e-6
-1.194, -7.115e-6
-1.193, -7.301e-6
-1.192, -7.296e-6
-1.191, -7.145e-6
-1.190, -7.151e-6
-1.189, -7.344e-6
-1.188, -7.536e-6
-1.187, -7.523e-6
-1.186, -7.342e-6
-1.185, -7.347e-6
-1.184, -7.525e-6
-1.183, -7.644e-6
-1.182, -7.647e-6
-1.181, -7.530e-6
-1.180, -7.551e-6
-1.179, -7.791e-6
-1.178, -7.959e-6
-1.177, -7.882e-6
-1.176, -7.670e-6
-1.175, -7.636e-6
-1.174, -7.854e-6
-1.173, -7.962e-6
-1.172, -7.919e-6
-1.171, -7.854e-6
-1.170, -7.797e-6
-1.169, -8.045e-6
-1.168, -8.119e-6
-1.167, -8.102e-6
-1.166, -7.979e-6
-1.165, -7.916e-6
-1.164, -8.144e-6
-1.163, -8.279e-6
-1.162, -8.224e-6
-1.161, -8.074e-6
-1.160, -8.040e-6
-1.159, -8.215e-6
-1.158, -8.383e-6
-1.157, -8.330e-6
-1.156, -8.184e-6
-1.155, -8.158e-6
-1.154, -8.363e-6
-1.153, -8.525e-6
-1.152, -8.486e-6
-1.151, -8.357e-6
-1.150, -8.373e-6
-1.149, -8.508e-6
-1.148, -8.641e-6
-1.147, -8.621e-6
-1.146, -8.423e-6
-1.145, -8.402e-6
-1.144, -8.554e-6
-1.143, -8.736e-6
-1.142, -8.751e-6
-1.141, -8.547e-6
-1.140, -8.565e-6
-1.139, -8.753e-6
-1.138, -8.907e-6
-1.137, -8.854e-6
-1.136, -8.636e-6
-1.135, -8.641e-6
-1.134, -8.826e-6
-1.133, -9.008e-6
-1.132, -8.946e-6
-1.131, -8.792e-6
-1.130, -8.751e-6
-1.129, -8.964e-6
-1.128, -9.058e-6
-1.127, -9.023e-6
-1.126, -8.906e-6
-1.125, -8.857e-6
-1.124, -9.031e-6
-1.123, -9.218e-6
-1.122, -9.139e-6
-1.121, -9.004e-6
-1.120, -8.993e-6
-1.119, -9.168e-6
-1.118, -9.333e-6
-1.117, -9.253e-6
-1.116, -9.068e-6
-1.115, -9.108e-6
-1.114, -9.208e-6
-1.113, -9.415e-6
-1.112, -9.329e-6
-1.111, -9.178e-6
-1.110, -9.160e-6
-1.109, -9.325e-6
-1.108, -9.440e-6
-1.107, -9.447e-6
-1.106, -9.217e-6
-1.105, -9.315e-6
-1.104, -9.470e-6
-1.103, -9.610e-6
-1.102, -9.581e-6
-1.101, -9.383e-6
-1.100, -9.421e-6
-1.099, -9.592e-6
-1.098, -9.726e-6
-1.097, -9.692e-6
-1.096, -9.471e-6
-1.095, -9.466e-6
-1.094, -9.690e-6
-1.093, -9.807e-6
-1.092, -9.747e-6
-1.091, -9.594e-6
-1.090, -9.581e-6
-1.089, -9.742e-6
-1.088, -9.915e-6
-1.087, -9.856e-6
-1.086, -9.714e-6
-1.085, -9.693e-6
-1.084, -9.859e-6
-1.083, -1.001e-5
-1.082, -9.992e-6
-1.081, -9.820e-6
-1.080, -9.844e-6
-1.079, -1.002e-5
-1.078, -1.025e-5
-1.077, -1.009e-5
-1.076, -9.972e-6
-1.075, -1.001e-5
-1.074, -1.012e-5
-1.073, -1.028e-5
-1.072, -1.019e-5
-1.071, -1.003e-5
-1.070, -1.008e-5
-1.069, -1.025e-5
-1.068, -1.041e-5
-1.067, -1.040e-5
-1.066, -1.016e-5
-1.065, -1.022e-5
-1.064, -1.032e-5
-1.063, -1.051e-5
-1.062, -1.051e-5
-1.061, -1.026e-5
-1.060, -1.030e-5
-1.059, -1.052e-5
-1.058, -1.063e-5
-1.057, -1.061e-5
-1.056, -1.042e-5
-1.055, -1.042e-5
-1.054, -1.069e-5
-1.053, -1.081e-5
-1.052, -1.074e-5
-1.051, -1.058e-5
-1.050, -1.059e-5
-1.049, -1.076e-5
-1.048, -1.092e-5
-1.047, -1.089e-5
-1.046, -1.077e-5
-1.045, -1.075e-5
-1.044, -1.098e-5
-1.043, -1.122e-5
-1.042, -1.109e-5
-1.041, -1.096e-5
-1.040, -1.097e-5
-1.039, -1.115e-5
-1.038, -1.136e-5
-1.037, -1.127e-5
-1.036, -1.116e-5
-1.035, -1.119e-5
-1.034, -1.137e-5
-1.033, -1.150e-5
-1.032, -1.144e-5
-1.031, -1.124e-5
-1.030, -1.140e-5
-1.029, -1.154e-5
-1.028, -1.172e-5
-1.027, -1.173e-5
-1.026, -1.156e-5
-1.025, -1.162e-5
-1.024, -1.184e-5
-1.023, -1.200e-5
-1.022, -1.203e-5
-1.021, -1.180e-5
-1.020, -1.184e-5
-1.019, -1.211e-5
-1.018, -1.226e-5
-1.017, -1.228e-5
-1.016, -1.213e-5
-1.015, -1.213e-5
-1.014, -1.244e-5
-1.013, -1.261e-5
-1.012, -1.258e-5
-1.011, -1.243e-5
-1.010, -1.251e-5
-1.009, -1.277e-5
-1.008, -1.294e-5
-1.007, -1.294e-5
-1.006, -1.283e-5
-1.005, -1.291e-5
-1.004, -1.310e-5
-1.003, -1.340e-5
-1.002, -1.336e-5
-1.001, -1.324e-5
