Potential V vs RHE, Current mA cm-2
0.4132999999999999,-0.004935927725229113
0.4122999999999999,-0.0070268710264296385
0.4112999999999999,-0.007762520902359457
0.4102999999999999,-0.008085075078728684
0.4092999999999999,-0.008281719949409926
0.4082999999999999,-0.00843450876979535
0.4072999999999999,-0.008605688837079017
0.4062999999999999,-0.008751404100965117
0.4052999999999999,-0.008891460519651756
0.4042999999999999,-0.008963610795944873
0.4032999999999999,-0.009025858093138934
0.4022999999999999,-0.009131961440628812
0.4012999999999999,-0.009259285457616666
0.4002999999999999,-0.009339924001708973
0.3992999999999999,-0.009407830144102493
0.3982999999999999,-0.009478565709095747
0.3972999999999999,-0.009523836470691428
0.3962999999999999,-0.009632769240781035
0.3952999999999999,-0.009693601826675231
0.3942999999999999,-0.009731799031771586
0.39329999999999987,-0.009765752102968348
0.39229999999999987,-0.0098364876679616
0.39129999999999987,-0.009928443902452828
0.39029999999999987,-0.009979373509247966
0.38929999999999987,-0.01000200889004581
0.38829999999999987,-0.010045864940341626
0.38729999999999987,-0.010098209258436632
0.38629999999999987,-0.01019016549292786
0.38529999999999986,-0.010245339233622594
0.38429999999999986,-0.010259486346621246
0.38329999999999986,-0.010276462882219627
0.38229999999999986,-0.010328807200314634
0.38129999999999986,-0.01040944574440694
0.38029999999999986,-0.010473107752900867
0.37929999999999986,-0.010464619485101676
0.37829999999999986,-0.010514134380596953
0.37729999999999986,-0.010548087451793715
0.37629999999999986,-0.010645702531484402
0.37529999999999986,-0.010702290983479001
0.37429999999999986,-0.010729170498176437
0.37329999999999985,-0.010771611837172389
0.37229999999999985,-0.010818297310067934
0.37129999999999985,-0.010881959318561863
0.37029999999999985,-0.010910253544559163
0.36929999999999985,-0.010925815368857679
0.36829999999999985,-0.010941377193156193
0.36729999999999985,-0.010997965645150794
0.36629999999999985,-0.011065871787544316
0.36529999999999985,-0.011123874950838783
0.36429999999999985,-0.011136607352537568
0.36329999999999985,-0.011139436775137297
0.36229999999999984,-0.01117621926893379
0.36129999999999984,-0.011254028390426368
0.36029999999999984,-0.011309202131121104
0.35929999999999984,-0.011319105110220157
0.35829999999999984,-0.011309202131121104
0.35729999999999984,-0.011371449428315167
0.35629999999999984,-0.011463405662806393
0.35529999999999984,-0.011476138064505176
0.35429999999999984,-0.011493114600103558
0.35329999999999984,-0.011508676424402073
0.35229999999999984,-0.011536970650399374
0.35129999999999983,-0.011647318131788847
0.35029999999999983,-0.011664294667387227
0.34929999999999983,-0.011677027069086012
0.34829999999999983,-0.0116897594707848
0.34729999999999983,-0.011767568592277376
0.34629999999999983,-0.011831230600771302
0.34529999999999983,-0.011865183671968062
0.34429999999999983,-0.01185245127026928
0.3432999999999998,-0.011883574918866309
0.3422999999999998,-0.011910454433563745
0.3412999999999998,-0.011991092977656052
0.3402999999999998,-0.012030704894052273
0.3392999999999998,-0.012005240090654701
0.3382999999999998,-0.012043437295751058
0.3372999999999998,-0.012105684592945119
0.3362999999999998,-0.012177834869238235
0.3352999999999998,-0.012213202651734862
0.3342999999999998,-0.012214617363034726
0.3332999999999998,-0.012213202651734862
0.3322999999999998,-0.012275449948928922
0.3312999999999998,-0.012334867823523254
0.3302999999999998,-0.012380138585118937
0.3292999999999998,-0.012365991472120287
0.3282999999999998,-0.012368820894720016
0.3272999999999998,-0.012426824058014483
0.3262999999999998,-0.01249614491170787
0.3252999999999999,-0.012520195003805573
0.3242999999999999,-0.012525853849005035
0.3232999999999999,-0.012531512694204494
0.3222999999999999,-0.012598004125298152
0.3212999999999999,-0.012682886803290053
0.3202999999999999,-0.01268430151458992
0.3192999999999999,-0.012725328142286005
0.3182999999999999,-0.012723913430986139
0.3172999999999999,-0.012773428326481416
0.3162999999999999,-0.012849822736674128
0.3152999999999999,-0.012890849364370214
0.3142999999999999,-0.012879531673971295
0.3132999999999999,-0.012893678786969945
0.3122999999999999,-0.012947437816364817
0.3112999999999999,-0.013050711741254963
0.3102999999999999,-0.013054955875154558
0.3092999999999999,-0.013073347122052803
0.3082999999999999,-0.01308325010115186
0.3072999999999999,-0.013115788461048756
0.3062999999999999,-0.013219062385938904
0.3052999999999999,-0.01326291843623472
0.3042999999999999,-0.013254430168435529
0.3032999999999999,-0.01326291843623472
0.3022999999999999,-0.01330253035263094
0.3012999999999999,-0.01338175418542338
0.3002999999999999,-0.013405804277521088
0.2992999999999999,-0.013400145432321627
0.2982999999999999,-0.013425610235719199
0.2972999999999999,-0.013460978018215825
0.2962999999999999,-0.0135387871397084
0.2952999999999999,-0.013584057901304082
0.2942999999999999,-0.013575569633504894
0.2932999999999999,-0.013569910788305434
0.2922999999999999,-0.013632158085499493
0.2912999999999999,-0.013691575960093825
0.2902999999999999,-0.01371562605219153
0.2892999999999999,-0.0137127966295918
0.2882999999999999,-0.0137127966295918
0.2872999999999999,-0.013765140947686808
0.2862999999999999,-0.013824558822281138
0.2852999999999999,-0.013861341316077629
0.2842999999999999,-0.013855682470878171
0.2832999999999999,-0.013879732562975875
0.2822999999999999,-0.013939150437570205
0.2812999999999999,-0.014002812446064133
0.2802999999999999,-0.013999983023464403
0.2792999999999999,-0.014021203692962378
0.2782999999999999,-0.014021203692962378
0.2772999999999999,-0.01405515676415914
0.2762999999999999,-0.014128721751752121
0.2752999999999999,-0.014137210019551311
0.2742999999999999,-0.014138624730851175
0.2732999999999999,-0.014147112998650365
0.2722999999999999,-0.014175407224647668
0.2712999999999999,-0.01426028990263957
0.2702999999999999,-0.014288584128636872
0.2692999999999999,-0.014288584128636872
0.26829999999999987,-0.014288584128636872
0.26729999999999987,-0.014345172580631472
0.26629999999999987,-0.014430055258623373
0.26529999999999987,-0.014444202371622025
0.26429999999999987,-0.014430055258623373
0.26329999999999987,-0.014444202371622025
0.26229999999999987,-0.014472496597619325
0.26129999999999987,-0.014557379275611227
0.26029999999999986,-0.014571526388609878
0.25929999999999986,-0.014571526388609878
0.25829999999999986,-0.014585673501608528
0.25729999999999986,-0.014642261953603129
0.25629999999999986,-0.01469885040559773
0.25529999999999986,-0.014727144631595034
0.25429999999999986,-0.014712997518596381
0.25329999999999986,-0.014727144631595034
0.25229999999999986,-0.014797880196588285
0.25129999999999986,-0.014854468648582884
0.25029999999999986,-0.014882762874580187
0.24929999999999986,-0.014896909987578835
0.24829999999999985,-0.014868615761581536
0.24729999999999985,-0.014925204213576137
0.24629999999999985,-0.014995939778569388
0.24529999999999985,-0.01505252823056399
0.24429999999999985,-0.01503838111756534
0.24329999999999985,-0.01503838111756534
0.24229999999999985,-0.015080822456561293
0.24129999999999985,-0.015151558021554544
0.24029999999999985,-0.015179852247551842
0.23929999999999985,-0.015193999360550494
0.23829999999999985,-0.015179852247551842
0.23729999999999984,-0.015236440699546445
0.23629999999999984,-0.015293029151541045
0.23529999999999984,-0.015321323377538347
0.23429999999999984,-0.015321323377538347
0.23329999999999984,-0.015321323377538347
0.23229999999999984,-0.0153637647165343
0.23129999999999984,-0.015448647394526203
0.23029999999999984,-0.01546279450752485
0.22929999999999984,-0.01546279450752485
0.22829999999999984,-0.015476941620523503
0.22729999999999984,-0.015505235846520802
0.22629999999999983,-0.015575971411514053
0.22529999999999983,-0.015590118524512706
0.22429999999999983,-0.015590118524512706
0.22329999999999983,-0.015604265637511355
0.22229999999999983,-0.015646706976507305
0.22129999999999983,-0.015703295428501907
0.22029999999999983,-0.015745736767497857
0.21929999999999983,-0.015745736767497857
0.21829999999999983,-0.01575988388049651
0.21729999999999983,-0.01581647233249111
0.21629999999999983,-0.01585891367148706
0.21529999999999982,-0.01588720789748436
0.21429999999999982,-0.015873060784485714
0.21329999999999982,-0.01588720789748436
0.21229999999999982,-0.015957943462477614
0.21129999999999982,-0.016000384801473564
0.21029999999999982,-0.016028679027470863
0.20929999999999982,-0.016042826140469518
0.20829999999999982,-0.016056973253468165
0.20729999999999982,-0.01614185593146007
0.20629999999999982,-0.01619844438345467
0.20529999999999982,-0.01619844438345467
0.20429999999999982,-0.01619844438345467
0.20329999999999981,-0.01618429727045602
0.2022999999999998,-0.01625503283544927
0.2012999999999998,-0.016325768400442524
0.20029999999999992,-0.016339915513441175
0.19929999999999992,-0.016354062626439823
0.19829999999999992,-0.016339915513441175
0.19729999999999992,-0.016410651078434424
0.19629999999999992,-0.01648138664342768
0.19529999999999992,-0.01648138664342768
0.19429999999999992,-0.01656626932141958
0.19329999999999992,-0.01659456354741688
0.19229999999999992,-0.01662285777341418
0.19129999999999991,-0.016679446225408782
0.1902999999999999,-0.016693593338407434
0.1892999999999999,-0.01670774045140608
0.1882999999999999,-0.01673603467740338
0.1872999999999999,-0.016778476016399334
0.1862999999999999,-0.01683506446839394
0.1852999999999999,-0.016849211581392583
0.1842999999999999,-0.016849211581392583
0.1832999999999999,-0.01687750580738989
0.1822999999999999,-0.01691994714638584
0.1812999999999999,-0.017004829824377742
0.1802999999999999,-0.01703312405037504
0.1792999999999999,-0.01703312405037504
0.1782999999999999,-0.01703312405037504
0.1772999999999999,-0.017103859615368294
0.1762999999999999,-0.017146300954364244
0.1752999999999999,-0.017188742293360197
0.1742999999999999,-0.017188742293360197
0.1732999999999999,-0.017202889406358845
0.1722999999999999,-0.017273624971352097
0.1712999999999999,-0.01734436053634535
0.1702999999999999,-0.017358507649344
0.1692999999999999,-0.017358507649344
0.1682999999999999,-0.0173868018753413
0.1672999999999999,-0.017457537440334552
0.1662999999999999,-0.017514125892329157
0.1652999999999999,-0.017542420118326456
0.1642999999999999,-0.017556567231325104
0.1632999999999999,-0.017556567231325104
0.1622999999999999,-0.017627302796318356
0.1612999999999999,-0.01771218547431026
0.1602999999999999,-0.01772633258730891
0.1592999999999999,-0.01772633258730891
0.15829999999999989,-0.01772633258730891
0.15729999999999988,-0.017797068152302163
0.15629999999999988,-0.017896097943292714
0.15529999999999988,-0.017896097943292714
0.15429999999999988,-0.017910245056291362
0.15329999999999988,-0.017924392169290013
0.15229999999999988,-0.017980980621284618
0.15129999999999988,-0.018065863299276518
0.15029999999999988,-0.018094157525273817
0.14929999999999988,-0.018080010412275173
0.14829999999999988,-0.018108304638272472
0.14729999999999988,-0.01817904020326572
0.14629999999999987,-0.018278069994256275
0.14529999999999987,-0.018278069994256275
0.14429999999999987,-0.018306364220253574
0.14329999999999987,-0.018348805559249524
0.14229999999999987,-0.018433688237241428
0.14129999999999987,-0.01849027668923603
0.14029999999999987,-0.01850442380223468
0.13929999999999987,-0.01849027668923603
0.13829999999999987,-0.01851857091523333
0.13729999999999987,-0.01858930648022658
0.13629999999999987,-0.018674189158218484
0.13529999999999986,-0.018716630497214438
0.13429999999999986,-0.018716630497214438
0.13329999999999986,-0.018730777610213082
0.13229999999999986,-0.018801513175206338
0.13129999999999986,-0.01887224874019959
0.13029999999999986,-0.01892883719219419
0.12929999999999986,-0.01891469007919554
0.12829999999999986,-0.018957131418191494
0.12729999999999986,-0.019042014096183394
0.12629999999999986,-0.019112749661176646
0.12529999999999986,-0.019126896774175294
0.12429999999999986,-0.019141043887173945
0.12329999999999985,-0.0191551910001726
0.12229999999999985,-0.019254220791163148
0.12129999999999985,-0.0193249563561564
0.12029999999999985,-0.01933910346915505
0.11929999999999985,-0.019367397695152354
0.11829999999999985,-0.019367397695152354
0.11729999999999985,-0.019452280373144254
0.11629999999999985,-0.019565457277133456
0.11529999999999985,-0.019565457277133456
0.11429999999999985,-0.019579604390132108
0.11329999999999985,-0.01959375150313076
0.11229999999999984,-0.01967863418112266
0.11129999999999984,-0.019763516859114563
0.11029999999999984,-0.019805958198110513
0.10929999999999984,-0.019820105311109164
0.10829999999999984,-0.019862546650105117
0.10729999999999984,-0.019933282215098366
0.10629999999999984,-0.020018164893090266
0.10529999999999984,-0.02004645911908757
0.10429999999999984,-0.02006060623208622
0.10329999999999984,-0.02008890045808352
0.10229999999999984,-0.02015963602307677
0.10129999999999983,-0.020244518701068675
0.10029999999999983,-0.020301107153063276
0.09929999999999983,-0.020286960040064625
0.09829999999999983,-0.02032940137906058
0.09729999999999983,-0.02041428405705248
0.09629999999999983,-0.02048501962204573
0.09529999999999983,-0.020541608074040336
0.09429999999999983,-0.02055575518703898
0.09329999999999983,-0.020569902300037635
0.09229999999999983,-0.020697226317025485
0.09129999999999983,-0.02079625610801604
0.09029999999999982,-0.020838697447011986
0.08929999999999982,-0.02086699167300929
0.08829999999999982,-0.020895285899006594
0.08729999999999982,-0.020951874351001196
0.08629999999999982,-0.021022609915994445
0.08529999999999982,-0.021050904141991744
0.08429999999999982,-0.021093345480987697
0.08329999999999982,-0.021107492593986348
0.08229999999999982,-0.02122066949797555
0.08129999999999982,-0.021305552175967454
0.08029999999999982,-0.021333846401964753
0.07929999999999982,-0.021362140627962056
0.07829999999999981,-0.021390434853959358
0.07729999999999981,-0.021461170418952607
0.07629999999999981,-0.02158849443594046
0.07529999999999992,-0.02158849443594046
0.07429999999999992,-0.02163093577493641
0.07329999999999992,-0.02165923000093371
0.07229999999999992,-0.021758259791924264
0.07129999999999992,-0.02185728958291482
0.07029999999999992,-0.021885583808912118
0.06929999999999992,-0.02189973092191077
0.06829999999999992,-0.02197046648690402
0.06729999999999992,-0.02204120205189727
0.06629999999999991,-0.022168526068885124
0.06529999999999991,-0.022210967407881078
0.06429999999999991,-0.022239261633878377
0.06329999999999991,-0.022281702972874327
0.06229999999999991,-0.022366585650866227
0.06129999999999991,-0.02245146832885813
0.06029999999999991,-0.022493909667854084
0.05929999999999991,-0.022522203893851383
0.05829999999999991,-0.022592939458844635
0.05729999999999991,-0.022691969249835187
0.056299999999999906,-0.02277685192782709
0.055299999999999905,-0.022833440379821688
0.054299999999999904,-0.022847587492820343
0.0532999999999999,-0.022932470170812246
0.0522999999999999,-0.023031499961802798
0.0512999999999999,-0.023116382639794698
0.0502999999999999,-0.023172971091789302
0.0492999999999999,-0.023215412430785252
0.0482999999999999,-0.023257853769781203
0.0472999999999999,-0.02338517778676906
0.0462999999999999,-0.02347006046476096
0.045299999999999896,-0.02352664891675556
0.044299999999999895,-0.02356909025575151
0.043299999999999894,-0.02359738448174881
0.04229999999999989,-0.023724708498736664
0.04129999999999989,-0.023809591176728567
0.04029999999999989,-0.02390862096771912
0.03929999999999989,-0.02395106230671507
0.03829999999999989,-0.023993503645711022
0.03729999999999989,-0.024106680549700225
0.03629999999999989,-0.02423400456668808
0.03529999999999989,-0.02426229879268538
0.034299999999999886,-0.024318887244679982
0.033299999999999885,-0.024403769922671882
0.032299999999999884,-0.02447450548766513
0.031299999999999883,-0.02461597661765164
0.030299999999999883,-0.02465841795664759
0.02929999999999988,-0.024700859295643543
0.02829999999999988,-0.024771594860636792
0.02729999999999988,-0.024884771764625994
0.02629999999999988,-0.025012095781613848
0.025299999999999878,-0.0251111255726044
0.024299999999999877,-0.025181861137597652
0.023299999999999876,-0.025238449589592253
0.022299999999999875,-0.025337479380582808
0.021299999999999875,-0.02543650917157336
0.020299999999999874,-0.02546480339757066
0.019299999999999873,-0.025521391849565263
0.018299999999999872,-0.025606274527557166
0.01729999999999987,-0.02573359854454502
0.01629999999999987,-0.025846775448534223
0.01529999999999987,-0.02591751101352747
0.014299999999999868,-0.025959952352523425
0.013299999999999867,-0.026016540804518026
0.012299999999999978,-0.026172159047503182
0.011299999999999866,-0.02627118883849373
0.010299999999999976,-0.026356071516485634
0.009299999999999864,-0.026398512855481584
0.008299999999999974,-0.026469248420474833
0.007299999999999862,-0.02661071955046134
0.006299999999999972,-0.026709749341451892
0.00529999999999986,-0.026780484906445145
0.0042999999999999705,-0.026837073358439746
0.0032999999999998586,-0.026907808923433
0.0022999999999999687,-0.027063427166418155
0.0012999999999998568,-0.027176604070407354
0.00029999999999996696,-0.02723319252240196
-0.000700000000000145,-0.02731807520039386
-0.0017000000000000348,-0.02736051653938981
-0.0027000000000001467,-0.02750198766937631
-0.0037000000000000366,-0.02764345879936281
-0.0047000000000001485,-0.027714194364356067
-0.005700000000000038,-0.027770782816350672
-0.00670000000000015,-0.027841518381343924
-0.00770000000000004,-0.027982989511330426
-0.008700000000000152,-0.028124460641316927
-0.009700000000000042,-0.02819519620631018
-0.010700000000000154,-0.02829422599730073
-0.011700000000000044,-0.028379108675292634
-0.012700000000000156,-0.02850643269228049
-0.013700000000000045,-0.028647903822266993
-0.014700000000000157,-0.028690345161262943
-0.015700000000000047,-0.028746933613257548
-0.01670000000000016,-0.028860110517246747
-0.01770000000000005,-0.029001581647233248
-0.01870000000000016,-0.029143052777219756
-0.01970000000000005,-0.02921378834221301
-0.020700000000000163,-0.029256229681208955
-0.021700000000000053,-0.02935525947219951
-0.022700000000000164,-0.029510877715184666
-0.023700000000000054,-0.029652348845171168
-0.024700000000000166,-0.02973723152316307
-0.025700000000000056,-0.02979381997515767
-0.026700000000000168,-0.02986455554015093
-0.027700000000000058,-0.03002017378313608
-0.02870000000000017,-0.03011920357412663
-0.02970000000000006,-0.030204086252118532
-0.03070000000000017,-0.030288968930110433
-0.03170000000000006,-0.030345557382105034
-0.03270000000000017,-0.030501175625090193
-0.03370000000000006,-0.030628499642078044
-0.034700000000000175,-0.030713382320069947
-0.035700000000000065,-0.030769970772064545
-0.03670000000000018,-0.03085485345005645
-0.03770000000000007,-0.030982177467044306
-0.03870000000000018,-0.031123648597030807
-0.03970000000000007,-0.03120853127502271
-0.04070000000000018,-0.03132170817901191
-0.04170000000000007,-0.03137829663100652
-0.04270000000000018,-0.03151976776099302
-0.04370000000000007,-0.03161879755198357
-0.044700000000000184,-0.03163294466498222
-0.045700000000000074,-0.031731974455972776
-0.046700000000000186,-0.031802710020966025
-0.047700000000000076,-0.03191588692495523
-0.04870000000000019,-0.03209979939393768
-0.04970000000000008,-0.03212809361993498
-0.05070000000000019,-0.03219882918492823
-0.05170000000000008,-0.03228371186292014
-0.05270000000000019,-0.03243933010590529
-0.05370000000000008,-0.032552507009894496
-0.05470000000000019,-0.032623242574887745
-0.05570000000000008,-0.03267983102688235
-0.056700000000000195,-0.0327788608178729
-0.057700000000000085,-0.0329203319478594
-0.058700000000000196,-0.03304765596484726
-0.059700000000000086,-0.033104244416841865
-0.0607000000000002,-0.033146685755837804
-0.06170000000000009,-0.03325986265982701
-0.0627000000000002,-0.03341548090281216
-0.06370000000000009,-0.03350036358080407
-0.0647000000000002,-0.03357109914579732
