Potential V vs RHE, Current mA cm-2
0.013299999999999867,3.313253864283916
0.012299999999999978,1.5250587812545096
0.011299999999999866,-0.1766974413531431
0.010299999999999976,-1.8334658446250875
0.009299999999999864,-3.447651437771094
0.008299999999999974,-4.974124930325469
0.007299999999999862,-6.500598422879844
0.006299999999999972,-7.984630576438266
0.00529999999999986,-9.379535918105192
0.0042999999999999705,-10.775855971071984
0.0032999999999998586,-12.12831997374296
0.0022999999999999687,-13.3930718758223
0.0012999999999998568,-14.65640906660178
0.00029999999999996696,-15.830619445489761
-0.000700000000000145,-17.061418276372343
-0.0017000000000000348,-18.19318731626437
-0.0027000000000001467,-19.367397695152352
-0.0037000000000000366,-20.541608074040333
-0.0047000000000001485,-21.729965565926964
-0.005700000000000038,-22.904175944814945
-0.00670000000000015,-24.035944984706973
-0.00770000000000004,-25.210155363594954
-0.008700000000000152,-26.29948306449103
-0.009700000000000042,-27.38881076538711
-0.010700000000000154,-28.478138466283188
-0.011700000000000044,-29.525024828183312
-0.012700000000000156,-30.487028512091538
-0.013700000000000045,-31.449032195999767
-0.014700000000000157,-32.41103587990799
-0.015700000000000047,-33.330598224820264
-0.01670000000000016,-34.278454795729836
-0.01770000000000005,-35.198017140642115
-0.01870000000000016,-36.16002082455034
-0.01970000000000005,-37.164465847454515
-0.020700000000000163,-38.12646953136274
-0.021700000000000053,-39.08847321527096
-0.022700000000000164,-40.092918238175145
-0.023700000000000054,-40.99833347008877
-0.024700000000000166,-41.91789581500104
-0.025700000000000056,-42.837458159913304
-0.026700000000000168,-43.70043205283099
-0.027700000000000058,-44.4926703807554
-0.02870000000000017,-45.32735004767578
-0.02970000000000006,-46.147882601597495
-0.03070000000000017,-46.94012092952192
-0.03170000000000006,-47.67577080545174
-0.03270000000000017,-48.51045047237211
-0.03370000000000006,-49.33098302629383
-0.034700000000000175,-50.2505453712061
-0.035700000000000065,-51.127666377122424
-0.03670000000000018,-52.033081609036046
-0.03770000000000007,-52.95264395394832
-0.03870000000000018,-53.82976495986464
-0.03970000000000007,-54.69273885278232
-0.04070000000000018,-55.527418519702685
-0.04170000000000007,-56.30550973462846
-0.04270000000000018,-57.05530672355693
-0.04370000000000007,-57.7485152604908
-0.044700000000000184,-58.45587091042332
-0.045700000000000074,-59.14907944735718
-0.046700000000000186,-59.92717066228296
-0.047700000000000076,-60.67696765121143
-0.04870000000000019,-61.49750020513315
-0.04970000000000008,-62.33217987205352
-0.05070000000000019,-63.15271242597524
-0.05170000000000008,-64.02983343189156
-0.05270000000000019,-64.90695443780788
-0.05370000000000008,-65.76992833072556
-0.05470000000000019,-66.64704933664189
-0.05570000000000008,-67.43928766456631
-0.056700000000000195,-68.21737887949207
-0.057700000000000085,-68.96717586842054
-0.058700000000000196,-69.6603844053544
-0.059700000000000086,-70.39603428128423
-0.0607000000000002,-71.10338993121674
-0.06170000000000009,-71.8814811461425
-0.0627000000000002,-72.67371947406694
-0.06370000000000009,-73.49425202798865
-0.0647000000000002,-74.32893169490903
-0.06570000000000009,-75.14946424883075
-0.0667000000000002,-76.02658525474708
-0.0677000000000001,-76.9037062606634
-0.0687000000000002,-77.7242388145851
-0.0697000000000001,-78.55891848150549
-0.07070000000000021,-79.33700969643127
-0.0717000000000001,-80.12924802435568
-0.07270000000000021,-80.86489790028548
-0.0737000000000001,-81.61469488921396
-0.07470000000000021,-82.39278610413973
-0.0757000000000001,-83.18502443206415
-0.07670000000000021,-83.96311564698992
-0.0777000000000001,-84.7129126359184
-0.07870000000000021,-85.53344518984011
-0.0797000000000001,-86.41056619575643
-0.08070000000000022,-87.23109874967815
-0.0817000000000001,-88.02333707760259
-0.08270000000000022,-88.8438696315243
-0.08370000000000011,-89.67854929844468
-0.08470000000000022,-90.47078762636909
-0.08570000000000011,-91.24887884129487
-0.08670000000000022,-92.08355850821525
-0.08770000000000011,-92.81920838414506
-0.08870000000000022,-93.55485826007487
-0.08970000000000011,-94.30465524900335
-0.09070000000000022,-95.04030512493317
-0.09170000000000011,-95.83254345285758
-0.09270000000000023,-96.5681933287874
-0.09370000000000012,-97.36043165671182
-0.09470000000000023,-98.13852287163759
-0.09570000000000012,-98.93076119956201
-0.09670000000000023,-99.75129375348374
-0.09770000000000012,-100.62841475940007
-0.09870000000000023,-101.40650597432582
-0.09970000000000012,-102.24118564124619
-0.10070000000000023,-103.01927685617197
-0.10170000000000012,-103.81151518409638
-0.10270000000000024,-104.58960639902216
-0.10370000000000013,-105.29696204895468
-0.10470000000000024,-105.99017058588855
-0.10570000000000013,-106.64093778382647
-0.10670000000000024,-107.39073477275493
-0.10770000000000013,-108.0839433096888
-0.10870000000000024,-108.83374029861727
-0.10970000000000013,-109.61183151354304
-0.11070000000000024,-110.3050400504769
-0.11170000000000013,-111.09727837840134
-0.11270000000000002,-111.91781093232305
-0.11370000000000013,-112.71004926024747
-0.11470000000000002,-113.44569913617728
-0.11570000000000014,-114.19549612510575
-0.11670000000000003,-114.88870466203963
-0.11770000000000014,-115.53947185997755
-0.11870000000000003,-116.20438617091412
-0.11970000000000014,-116.81271202985609
-0.12070000000000003,-117.46347922779398
-0.12170000000000014,-118.11424642573192
-0.12270000000000003,-118.72257228467387
-0.12370000000000014,-119.47236927360234
-0.12470000000000003,-120.12313647154028
-0.12570000000000014,-120.85878634747009
-0.12670000000000003,-121.56614199740261
-0.12770000000000015,-122.25935053433648
-0.12870000000000004,-122.95255907127036
-0.12970000000000015,-123.6174733822069
-0.13070000000000004,-124.26824058014482
-0.13170000000000015,-124.91900777808273
-0.13270000000000004,-125.48489229802875
-0.13370000000000015,-126.05077681797478
-0.13470000000000004,-126.61666133792076
-0.13570000000000015,-127.14010451887084
-0.13670000000000004,-127.76257749081147
-0.13770000000000016,-128.32846201075745
-0.13870000000000005,-128.89434653070347
-0.13970000000000016,-129.50267238964545
-0.14070000000000005,-130.06855690959148
-0.14170000000000016,-130.7193241075294
-0.14270000000000005,-131.37009130546733
-0.14370000000000016,-131.95012293841197
-0.14470000000000005,-132.47356611936203
-0.14570000000000016,-132.99700930031207
-0.14670000000000005,-133.46386402926754
-0.14770000000000016,-133.90242453222572
-0.14870000000000005,-134.34098503518388
-0.14970000000000017,-134.73710419914607
-0.15070000000000006,-135.1332233631083
-0.15170000000000017,-135.6142252050624
-0.15270000000000006,-136.03863859502192
-0.15370000000000017,-136.51964043697603
-0.15470000000000006,-137.00064227893017
-0.15570000000000017,-137.52408545988024
-0.15670000000000006,-138.00508730183432
-0.15770000000000017,-138.48608914378846
-0.15870000000000006,-138.96709098574257
-0.15970000000000018,-139.4056514887007
-0.16070000000000007,-139.74518220066832
-0.16170000000000018,-140.0988600256346
-0.16270000000000007,-140.36765517260895
-0.16370000000000018,-140.62230320658463
-0.16470000000000007,-140.89109835355902
-0.16570000000000018,-141.14574638753473
-0.16670000000000007,-141.41454153450906
-0.16770000000000018,-141.61260111649017
-0.16870000000000007,-142.03701450644968
-0.16970000000000018,-142.31995676642268
-0.17070000000000007,-142.6028990263957
-0.17170000000000019,-142.8858412863687
-0.17270000000000008,-143.16878354634173
-0.1737000000000002,-143.4517258063147
-0.17470000000000008,-143.73466806628772
-0.1757000000000002,-143.87613919627424
-0.17670000000000008,-144.01761032626072
-0.1777000000000002,-144.15908145624724
-0.17870000000000008,-144.30055258623375
-0.1797000000000002,-144.44202371622026
-0.18070000000000008,-144.44202371622026
-0.1817000000000002,-144.58349484620675
-0.18270000000000008,-144.72496597619326
-0.1837000000000002,-144.72496597619326
-0.1847000000000001,-144.86643710617977
-0.1857000000000002,-145.00790823616626
-0.1867000000000001,-145.00790823616626
-0.1877000000000002,-145.00790823616626
-0.1887000000000001,-145.00790823616626
-0.1897000000000002,-145.00790823616626
-0.1907000000000001,-145.14937936615277
-0.1917000000000001,-145.00790823616626
-0.19269999999999998,-145.00790823616626
-0.1937000000000001,-145.00790823616626
-0.19469999999999998,-144.86643710617977
-0.1957000000000001,-144.72496597619326
-0.19669999999999999,-144.58349484620675
-0.1977000000000001,-144.44202371622026
-0.1987,-144.15908145624724
-0.1997000000000001,-144.01761032626072
-0.2007,-143.87613919627424
-0.2017000000000001,-143.73466806628772
-0.2027,-143.5931969363012
-0.2037000000000001,-143.3102546763282
-0.2047,-143.16878354634173
-0.2057000000000001,-142.8858412863687
-0.2067,-142.6028990263957
-0.2077000000000001,-142.31995676642268
-0.2087,-141.89554337646317
-0.2097000000000001,-141.47112998650366
-0.2107,-141.06086370954282
-0.2117000000000001,-140.66474454558062
-0.2127,-140.22618404262244
-0.2137000000000001,-139.84421199165885
-0.2147,-139.44809282769666
-0.2157000000000001,-139.09441500273041
-0.2167,-138.65585449977226
-0.21770000000000012,-138.27388244880868
-0.2187,-137.83532194585052
-0.21970000000000012,-137.3543201038964
-0.2207,-136.83087692294635
-0.22170000000000012,-136.30743374199628
-0.2227,-135.65666654405837
-0.22370000000000012,-135.03419357211774
-0.2247,-134.38342637417986
-0.22570000000000012,-133.73265917624192
-0.2267,-133.08189197830401
-0.22770000000000012,-132.47356611936203
-0.22870000000000001,-131.8510931474214
-0.22970000000000013,-131.24276728847948
-0.23070000000000002,-130.63444142953747
-0.23170000000000013,-129.98367423159957
-0.23270000000000002,-129.41778971165354
-0.23370000000000013,-128.752875400717
-0.23470000000000002,-128.05966686378312
-0.23570000000000013,-127.4088996658452
-0.23670000000000002,-126.61666133792076
-0.2376999999999999,-125.88101146199097
-0.23870000000000002,-125.10292024706521
-0.2396999999999999,-124.26824058014482
-0.24070000000000003,-123.43356091322445
-0.24169999999999991,-122.65546969829869
-0.24270000000000003,-121.82079003137831
-0.24369999999999992,-121.04269881645253
-0.24470000000000003,-120.29290182752408
-0.24569999999999992,-119.51481061259831
-0.24670000000000003,-118.76501362366983
-0.24769999999999992,-118.02936374774
-0.24870000000000003,-117.25127253281424
-0.24969999999999992,-116.45903420488982
-0.25070000000000003,-115.62435453796945
-0.2516999999999999,-114.80382198404773
-0.25270000000000004,-113.92670097813141
-0.2536999999999999,-113.06372708521374
-0.25470000000000004,-112.18660607929739
-0.2556999999999999,-111.26704373438514
-0.25670000000000004,-110.4465111804634
-0.25769999999999993,-109.56939017454708
-0.25870000000000004,-108.73471050762672
-0.25969999999999993,-107.99906063169689
-0.26070000000000004,-107.16438096477653
-0.26169999999999993,-106.34384841085482
-0.26270000000000004,-105.59405142192634
-0.26369999999999993,-104.77351886800463
-0.26470000000000005,-103.98128054008019
-0.26569999999999994,-103.16074798615847
-0.26670000000000005,-102.28362698024215
-0.26769999999999994,-101.50553576531638
-0.26870000000000005,-100.58597342040412
-0.26969999999999994,-99.75129375348374
-0.27070000000000005,-98.93076119956201
-0.27169999999999994,-98.09608153264163
-0.27270000000000005,-97.36043165671182
-0.27369999999999994,-96.5681933287874
-0.27470000000000006,-95.83254345285758
-0.27569999999999995,-95.08274646392913
-0.27670000000000006,-94.34709658799929
-0.27769999999999995,-93.69632939006138
-0.27870000000000006,-92.94653240113291
-0.27969999999999995,-92.2108825252031
-0.28070000000000006,-91.46108553627462
-0.28169999999999995,-90.76787699934074
-0.28270000000000006,-89.98978578441499
-0.28369999999999995,-89.23998879548651
-0.28470000000000006,-88.46189758056073
-0.28569999999999995,-87.71210059163228
-0.28670000000000007,-87.01889205469841
-0.28769999999999996,-86.32568351776455
-0.28870000000000007,-85.70321054582392
-0.28969999999999996,-85.052443347886
-0.29070000000000007,-84.44411748894404
-0.29169999999999996,-83.83579163000208
-0.29270000000000007,-83.26990711005605
-0.29369999999999996,-82.6615812511141
-0.2947000000000001,-82.03910827917348
-0.29569999999999996,-81.47322375922747
-0.2967000000000001,-80.86489790028548
-0.29769999999999996,-80.25657204134353
-0.2987000000000001,-79.64824618240156
-0.29969999999999997,-79.0399203234596
-0.3007000000000001,-78.43159446451764
-0.30169999999999997,-77.86570994457162
-0.3027000000000001,-77.28567831162695
-0.30369999999999997,-76.71979379168094
-0.3047000000000001,-76.23879194972683
-0.30569999999999997,-75.77193722077136
-0.3067000000000001,-75.29093537881725
-0.3077,-74.89481621485504
-0.3087000000000001,-74.41381437290093
-0.3097,-73.97525386994278
-0.3107000000000001,-73.49425202798865
-0.3117,-73.01325018603454
-0.3127000000000001,-72.57468968307639
-0.3137,-72.10783495412092
-0.3147000000000001,-71.6268331121668
-0.3157,-71.1458312702127
-0.3167000000000001,-70.70727076725453
-0.3177,-70.31115160329232
-0.3187000000000001,-69.95747377832606
-0.3197,-69.61794306635846
-0.3207000000000001,-69.30670658038814
-0.3217,-69.0096172074165
-0.3227000000000001,-68.74082206044213
-0.3237,-68.44373268747047
-0.3247000000000001,-68.13249620150016
-0.3257,-67.82125971552985
-0.3267000000000001,-67.48172900356225
-0.3277,-67.128051178596
-0.3287000000000001,-66.77437335362974
-0.3297,-66.43484264166212
-0.3307000000000001,-66.12360615569182
-0.3317,-65.82651678272015
-0.3327000000000001,-65.51528029674984
-0.3337,-65.3030736017701
-0.3347000000000001,-65.0767197937917
-0.3357,-64.90695443780788
-0.3367000000000001,-64.68060062982947
-0.3377,-64.55327661284163
-0.3387000000000001,-64.42595259585376
-0.3397,-64.25618723986996
-0.3407000000000001,-64.0722747708875
-0.3417,-63.902509414903705
-0.3427000000000001,-63.732744058919906
-0.3437,-63.54883158993744
-0.3447000000000001,-63.3366248949577
-0.3457,-63.15271242597524
-0.3467000000000001,-63.02538840898739
-0.3477,-62.855623053003576
-0.3487000000000001,-62.77074037501168
-0.3497,-62.72829903601572
-0.3507000000000001,-62.64341635802381
-0.3517,-62.64341635802381
-0.3527000000000001,-62.64341635802381
-0.3537,-62.64341635802381
-0.3547000000000001,-62.58682790602922
-0.3557,-62.58682790602922
-0.35670000000000013,-62.544386567033264
-0.3577,-62.501945228037314
-0.35870000000000013,-62.459503889041365
-0.3597,-62.41706255004542
-0.36070000000000013,-62.37462121104946
-0.3617,-62.37462121104946
-0.3626999999999999,-62.33217987205352
-0.3637,-62.41706255004542
-0.3646999999999999,-62.501945228037314
-0.3657,-62.58682790602922
-0.3666999999999999,-62.68585769701977
-0.3677,-62.81318171400764
-0.3686999999999999,-62.89806439199953
-0.36970000000000003,-62.98294706999144
-0.3706999999999999,-63.11027108697928
-0.37170000000000003,-63.20930087796983
-0.3726999999999999,-63.251742216965795
-0.37370000000000003,-63.3366248949577
-0.3746999999999999,-63.421507572949594
-0.37570000000000003,-63.5063902509415
-0.3766999999999999,-63.633714267929356
-0.37770000000000004,-63.732744058919906
-0.3786999999999999,-63.902509414903705
-0.37970000000000004,-64.11471610988345
-0.3806999999999999,-64.34106991786187
-0.38170000000000004,-64.55327661284163
-0.38269999999999993,-64.82207175981598
-0.38370000000000004,-65.03427845479574
-0.38469999999999993,-65.2464851497755
-0.38570000000000004,-65.51528029674984
-0.38669999999999993,-64.42595259585376
-0.38570000000000004,-61.07308681517363
-0.38469999999999993,-58.05975174646111
-0.38370000000000004,-55.25862337272834
-0.38269999999999993,-52.64140746797801
-0.38170000000000004,-50.29298671020206
-0.3806999999999999,-47.987007291422046
-0.37970000000000004,-45.93567590661774
-0.3786999999999999,-43.96922719980534
-0.37770000000000004,-42.087661170984845
-0.3766999999999999,-40.34756627215084
-0.37570000000000003,-38.734795390304704
-0.3746999999999999,-37.122024508458566
-0.37370000000000003,-35.594136304604326
-0.3726999999999999,-34.10868943974604
-0.37170000000000003,-32.62324257488775
-0.3706999999999999,-31.27926684001596
-0.36970000000000003,-29.878702653149578
-0.3686999999999999,-28.53472691827779
-0.3677,-27.261486748399253
-0.3666999999999999,-26.087276369511276
-0.3657,-24.9130659906233
-0.3646999999999999,-23.86617962872317
-0.3637,-22.819293266823045
-0.3626999999999999,-21.814848243918867
-0.3617,-20.85284456001064
-0.36070000000000013,-19.93328221509837
-0.3597,-19.01371987018609
-0.35870000000000013,-18.10830463827247
-0.3577,-17.231183632356142
-0.35670000000000013,-16.354062626439823
-0.3557,-15.448647394526201
-0.3547000000000001,-14.57152638860988
-0.3537,-13.698649516593148
-0.3527000000000001,-12.869628694872238
-0.3517,-12.084463923447142
-0.3507000000000001,-11.299299152022046
-0.3497,-10.557990430892769
-0.3487000000000001,-9.902979099055257
-0.3477,-9.205526428221793
-0.3467000000000001,-8.55051509638428
-0.3457,-7.940774526142452
-0.3447000000000001,-7.28576319430494
-0.3437,-6.632166573767292
-0.3427000000000001,-6.021011292225596
-0.3417,-5.367414671687949
-0.3407000000000001,-4.712403339850438
-0.3397,-4.0588067193127895
-0.3387000000000001,-3.403795387475278
-0.3377,-2.794054817233447
-0.3367000000000001,-2.1828995356917518
-0.3357,-1.6156003044458718
-0.3347000000000001,-1.0490084288499246
-0.3337,-0.5255652478998613
-0.3327000000000001,-0.002205534916489592
-0.3317,0.4776065348344364
-0.3307000000000001,0.9137620285828272
-0.3297,1.4373466806628774
-0.3287000000000001,1.9169338113171246
-0.3277,2.396520941971372
-0.3267000000000001,2.919964122921436
-0.3257,3.4434073038714996
-0.3247000000000001,3.9668504848215624
-0.3237,4.44643761547581
-0.3227000000000001,4.9698807964258735
-0.3217,5.405611876784305
-0.3207000000000001,5.886613718738418
-0.3197,6.322344799096849
-0.3187000000000001,6.75807587945528
-0.3177,7.107509570521944
-0.3167000000000001,7.49938460058456
-0.3157,7.848818291651225
-0.3147000000000001,8.242108033013702
-0.3137,8.63398306307632
-0.3127000000000001,9.025858093138934
-0.3117,9.419147834501414
-0.3107000000000001,9.854878914859846
-0.3097,10.248168656222326
-0.3087000000000001,10.683899736580756
-0.3077,11.119630816939189
-0.3067000000000001,11.469064508005852
-0.30569999999999997,11.862354249368334
-0.3047000000000001,12.254229279430946
-0.30369999999999997,12.515950869905978
-0.3027000000000001,12.821528510676828
-0.30169999999999997,13.127106151447675
-0.3007000000000001,13.431269080918659
-0.29969999999999997,13.736846721689506
-0.2987000000000001,14.042424362460354
-0.29769999999999996,14.345172580631472
-0.2967000000000001,14.69885040559773
-0.29569999999999996,15.05252823056399
-0.2947000000000001,15.3920589425316
-0.29369999999999996,15.74573676749786
-0.29270000000000007,16.04282614046952
-0.29169999999999996,16.396503965435777
-0.29070000000000007,16.70774045140608
-0.28969999999999996,17.00482982437774
-0.28870000000000007,17.2736249713521
-0.28769999999999996,17.48583166633185
-0.28670000000000007,17.75462681330621
-0.28569999999999995,17.966833508285966
-0.28470000000000006,18.19318731626437
-0.28369999999999995,18.49027668923603
-0.28270000000000006,18.702483384215785
-0.28169999999999995,18.97127853119014
-0.28070000000000006,19.3249563561564
-0.27969999999999995,19.579604390132108
-0.27870000000000006,19.93328221509837
-0.27769999999999995,20.187930249074075
-0.27670000000000006,20.499166735044383
-0.27569999999999995,20.75381476902009
-0.27470000000000006,20.980168576998494
-0.27369999999999994,21.19237527197825
-0.27270000000000005,21.418729079956652
-0.27169999999999994,21.63093577493641
-0.27070000000000005,21.800701130920213
-0.26969999999999994,22.027054938898623
-0.26870000000000005,22.196820294882425
-0.26769999999999994,22.46561544185678
-0.26670000000000005,22.72026347583249
-0.26569999999999994,22.989058622806844
