Potential V vs RHE, Current mA cm-2
0.013299999999999867,-0.040347566272150845
0.012299999999999978,-1.152706767130032
0.011299999999999866,-1.8617600706223882
0.010299999999999976,-2.3710561385738016
0.009299999999999864,-2.785566549434257
0.008299999999999974,-3.1449032195999767
0.007299999999999862,-3.4816045089678553
0.006299999999999972,-3.7744497480399173
0.00529999999999986,-4.01636538031684
0.0042999999999999705,-4.24413389959511
0.0032999999999998586,-4.483220109272302
0.0022999999999999687,-4.723721030249357
0.0012999999999998568,-4.951489549527628
0.00029999999999996696,-5.138231441109813
-0.000700000000000145,-5.323558621392133
-0.0017000000000000348,-5.542838872871213
-0.0027000000000001467,-5.776266237348945
-0.0037000000000000366,-6.008278890526811
-0.0047000000000001485,-6.214826740307106
-0.005700000000000038,-6.421374590087401
-0.00670000000000015,-6.674607912763243
-0.00770000000000004,-6.933500080638546
-0.008700000000000152,-7.192392248513847
-0.009700000000000042,-7.421575479091982
-0.010700000000000154,-7.669149956568364
-0.011700000000000044,-7.936530392242855
-0.012700000000000156,-8.235034476514379
-0.013700000000000045,-8.520806159087115
-0.014700000000000157,-8.806577841659854
-0.015700000000000047,-9.085275967733265
-0.01670000000000016,-9.40924485540236
-0.01770000000000005,-9.768581525568079
-0.01870000000000016,-10.093965124537037
-0.01970000000000005,-10.409445744406941
-0.020700000000000163,-10.723511652976978
-0.021700000000000053,-11.077189477943236
-0.022700000000000164,-11.473308641905447
-0.023700000000000054,-11.858110115468737
-0.024700000000000166,-12.228764476033378
-0.025700000000000056,-12.610736526996936
-0.026700000000000168,-13.015343958758336
-0.027700000000000058,-13.446830905217174
-0.02870000000000017,-13.858511893477898
-0.02970000000000006,-14.26028990263957
-0.03070000000000017,-14.67055617960043
-0.03170000000000006,-15.080822456561293
-0.03270000000000017,-15.547677185516752
-0.03370000000000006,-15.986237688474914
-0.034700000000000175,-16.410651078434423
-0.035700000000000065,-16.849211581392588
-0.03670000000000018,-17.301919197349395
-0.03770000000000007,-17.782921039303513
-0.03870000000000018,-18.249775768258974
-0.03970000000000007,-18.660042045219836
-0.04070000000000018,-19.084455435179343
-0.04170000000000007,-19.537163051136158
-0.04270000000000018,-20.00401778009162
-0.04370000000000007,-20.456725396048434
-0.044700000000000184,-20.89528589900659
-0.045700000000000074,-21.319699288966106
-0.046700000000000186,-21.758259791924264
-0.047700000000000076,-22.210967407881075
-0.04870000000000019,-22.649527910839236
-0.04970000000000008,-23.059794187800097
-0.05070000000000019,-23.44176623876366
-0.05170000000000008,-23.83788540272587
-0.05270000000000019,-24.262298792685378
-0.05370000000000008,-24.64427084364894
-0.05470000000000019,-24.997948668615198
-0.05570000000000008,-25.323332267584156
-0.056700000000000195,-25.719451431546364
-0.057700000000000085,-26.058982143513976
-0.058700000000000196,-26.370218629484285
-0.059700000000000086,-26.65316088945729
-0.0607000000000002,-26.9643973754276
-0.06170000000000009,-27.303928087395207
-0.0627000000000002,-27.62931168636417
-0.06370000000000009,-27.912253946337174
-0.0647000000000002,-28.12446064131693
-0.06570000000000009,-28.336667336296685
-0.0667000000000002,-28.548874031276437
-0.0677000000000001,-28.80352206525215
-0.0687000000000002,-29.001581647233255
-0.0697000000000001,-29.171347003217054
-0.07070000000000021,-29.32696524620221
-0.0717000000000001,-29.510877715184666
-0.07270000000000021,-29.708937297165768
-0.0737000000000001,-29.836261314153624
-0.07470000000000021,-29.906996879146874
-0.0757000000000001,-29.96358533114148
-0.07670000000000021,-30.04846800913338
-0.0777000000000001,-30.11920357412663
-0.07870000000000021,-30.189939139119886
-0.0797000000000001,-30.17579202612123
-0.08070000000000022,-30.11920357412663
-0.0817000000000001,-30.11920357412663
-0.08270000000000022,-30.147497800123933
-0.08370000000000011,-30.11920357412663
-0.08470000000000022,-30.04846800913338
-0.08570000000000011,-29.96358533114148
-0.08670000000000022,-29.864555540150924
-0.08770000000000011,-29.793819975157668
-0.08870000000000022,-29.68064307116847
-0.08970000000000011,-29.539171941181966
-0.09070000000000022,-29.34111235920086
-0.09170000000000011,-29.18549411621571
-0.09270000000000023,-29.015728760231898
-0.09370000000000012,-28.86011051724675
-0.09470000000000023,-28.775227839254843
-0.09570000000000012,-28.49228557928184
-0.09670000000000023,-28.11031352831828
-0.09770000000000012,-27.855665494342567
-0.09870000000000023,-27.685900138358768
-0.09970000000000012,-27.40295787838576
-0.10070000000000023,-27.091721392415455
-0.10170000000000012,-26.808779132442442
-0.10270000000000024,-26.539983985468087
-0.10370000000000013,-26.257041725495082
-0.10470000000000024,-25.94580523952477
-0.10570000000000013,-25.563833188561212
-0.10670000000000024,-25.210155363594954
-0.10770000000000013,-24.856477538628695
-0.10870000000000024,-24.488652600663784
-0.10970000000000013,-24.120827662698876
-0.11070000000000024,-23.753002724733967
-0.11170000000000013,-23.399324899767706
-0.11270000000000002,-23.031499961802798
-0.11370000000000013,-22.67782213683654
-0.11470000000000002,-22.295850085872978
-0.11570000000000014,-21.91387803490942
-0.11670000000000003,-21.531905983945855
-0.11770000000000014,-21.19237527197825
-0.11870000000000003,-20.810403221014692
-0.11970000000000014,-20.44257828304978
-0.12070000000000003,-20.06060623208622
-0.12170000000000014,-19.70692840711996
-0.12270000000000003,-19.353250582153702
-0.12370000000000014,-19.01371987018609
-0.12470000000000003,-18.645894932221182
-0.12570000000000014,-18.263922881257624
-0.12670000000000003,-17.952686395287316
-0.12770000000000015,-17.613155683319707
-0.12870000000000004,-17.28777208435075
-0.12970000000000015,-16.962388485381787
-0.13070000000000004,-16.622857773414182
-0.13170000000000015,-16.325768400442524
-0.13270000000000004,-16.04282614046952
-0.13370000000000015,-15.74573676749786
-0.13470000000000004,-15.4203531685289
-0.13570000000000015,-15.094969569559943
-0.13670000000000004,-14.812027309586934
-0.13770000000000016,-14.557379275611227
-0.13870000000000005,-14.274437015638219
-0.13970000000000016,-13.9716887974671
-0.14070000000000005,-13.68167298099477
-0.14170000000000016,-13.424195524419334
-0.14270000000000005,-13.175206335643086
-0.14370000000000016,-12.904996477368863
-0.14470000000000005,-12.637616041694372
-0.14570000000000016,-12.353259070421501
-0.14670000000000005,-12.108514015544849
-0.14770000000000016,-11.889233764065768
-0.14870000000000005,-11.650147554388578
-0.14970000000000017,-11.38701125261368
-0.15070000000000006,-11.139436775137298
-0.15170000000000017,-10.914497678458758
-0.15270000000000006,-10.734829343375898
-0.15370000000000017,-10.539599183994524
-0.15470000000000006,-10.328807200314634
-0.15570000000000017,-10.122259350534337
-0.15670000000000006,-9.955323417150264
-0.15770000000000017,-9.8081934419643
-0.15870000000000006,-9.646916353779686
-0.15970000000000018,-9.463003884797232
-0.16070000000000007,-9.3144591983114
-0.16170000000000018,-9.187135181323548
-0.16270000000000007,-9.08103183383367
-0.16370000000000018,-8.984831465442848
-0.16470000000000007,-8.861751582354591
-0.16570000000000018,-8.734427565366737
-0.16670000000000007,-8.650959598674698
-0.16770000000000018,-8.580224033681448
-0.16870000000000007,-8.50241491218887
-0.16970000000000018,-8.418946945496833
-0.17070000000000007,-8.332649556205066
-0.17170000000000019,-8.28596408330952
-0.17270000000000008,-8.256255146012354
-0.1737000000000002,-8.216643229616132
-0.17470000000000008,-8.158640066321666
-0.1757000000000002,-8.099222191727335
-0.17670000000000008,-8.07800152222936
-0.1777000000000002,-8.076586810929495
-0.17870000000000008,-8.048292584932193
-0.1797000000000002,-8.008680668535973
-0.18070000000000008,-7.986045287738133
-0.1817000000000002,-7.976142308639078
-0.18270000000000008,-7.991704132937592
-0.1837000000000002,-7.983215865138402
-0.1847000000000001,-7.95775106174083
-0.1857000000000002,-7.942189237442316
-0.1867000000000001,-7.945018660042045
-0.1877000000000002,-7.981801153838537
-0.1887000000000001,-8.005851245936244
-0.1897000000000002,-7.983215865138402
-0.1907000000000001,-7.991704132937592
-0.1917000000000001,-8.011510091135703
-0.19269999999999998,-8.056780852731386
-0.1937000000000001,-8.085075078728684
-0.19469999999999998,-8.076586810929495
-0.1957000000000001,-8.092148635228009
-0.19669999999999999,-8.128931129024501
-0.1977000000000001,-8.1855195810191
-0.1987,-8.219472652215863
-0.1997000000000001,-8.223716786115459
-0.2007,-8.244937455613433
-0.2017000000000001,-8.307184752807496
-0.2027,-8.370846761301422
-0.2037000000000001,-8.418946945496833
-0.2047,-8.434508769795347
-0.2057000000000001,-8.46280299579265
-0.2067,-8.530709138186172
-0.2077000000000001,-8.595785857979964
-0.2087,-8.658033155174026
-0.2097000000000001,-8.703303916769705
-0.2107,-8.737256987966468
-0.2117000000000001,-8.812236686859313
-0.2127,-8.897119364851218
-0.2137000000000001,-8.967854929844465
-0.2147,-9.028687515738664
-0.2157000000000001,-9.116399616330296
-0.2167,-9.184305758723816
-0.21770000000000012,-9.263529591516258
-0.2187,-9.317288620911132
-0.21970000000000012,-9.359729959907083
-0.2207,-9.407830144102494
-0.22170000000000012,-9.504030512493316
-0.2227,-9.615792705182653
-0.22370000000000012,-9.704919517074153
-0.2247,-9.764337391668482
-0.22570000000000012,-9.837902379261465
-0.2267,-9.924199768553231
-0.22770000000000012,-10.020400136944055
-0.22870000000000001,-10.095379835836901
-0.22970000000000013,-10.166115400830154
-0.23070000000000002,-10.255242212721651
-0.23170000000000013,-10.355686715012068
-0.23270000000000002,-10.477351886800463
-0.23370000000000013,-10.573552255191283
-0.23470000000000002,-10.634384841085481
-0.23570000000000013,-10.717852807777518
-0.23670000000000002,-10.812638464868474
-0.2376999999999999,-10.927230080157543
-0.23870000000000002,-11.020601025948634
-0.2396999999999999,-11.087092457042292
-0.24070000000000003,-11.18753695933271
-0.24169999999999991,-11.324763955419618
-0.24270000000000003,-11.432282014209362
-0.24369999999999992,-11.528482382600183
-0.24470000000000003,-11.590729679794245
-0.24569999999999992,-11.661465244787498
-0.24670000000000003,-11.770398014877104
-0.24769999999999992,-11.872257228467388
-0.24870000000000003,-11.964213462958616
-0.24969999999999992,-12.033534316652002
-0.25070000000000003,-12.10002574774566
-0.2516999999999999,-12.197640827436347
-0.25270000000000004,-12.306573597525954
-0.2536999999999999,-12.387212141618262
-0.25470000000000004,-12.452288861412054
-0.2556999999999999,-12.524439137705171
-0.25670000000000004,-12.596589413998286
-0.25769999999999993,-12.672983824190998
-0.25870000000000004,-12.752207656983442
-0.25969999999999993,-12.808796108978042
-0.26070000000000004,-12.869628694872238
-0.26169999999999993,-12.95168195026441
-0.26270000000000004,-13.045052896055504
-0.26369999999999993,-13.087494235051453
-0.26470000000000005,-13.124276728847946
-0.26569999999999994,-13.169547490443627
-0.26670000000000005,-13.254430168435528
-0.26769999999999994,-13.3364834238277
-0.26870000000000005,-13.398730721021762
-0.26969999999999994,-13.446830905217174
-0.27070000000000005,-13.50483406851164
-0.27169999999999994,-13.572740210905161
-0.27270000000000005,-13.66469644539639
-0.27369999999999994,-13.726943742590452
-0.27470000000000006,-13.742505566888967
-0.27569999999999995,-13.789191039784512
-0.27670000000000006,-13.865585449977225
-0.27769999999999995,-13.953297550568857
-0.27870000000000006,-14.04383907376022
-0.27969999999999995,-14.09759810315509
-0.28070000000000006,-14.175407224647667
-0.28169999999999995,-14.274437015638219
-0.28270000000000006,-14.373466806628771
-0.28369999999999995,-14.458349484620674
-0.28470000000000006,-14.500790823616628
-0.28569999999999995,-14.585673501608527
-0.28670000000000007,-14.684703292599082
-0.28769999999999996,-14.797880196588284
-0.28870000000000007,-14.911057100577487
-0.28969999999999996,-14.995939778569388
-0.29070000000000007,-15.080822456561293
-0.29169999999999996,-15.193999360550496
-0.29270000000000007,-15.321323377538347
-0.29369999999999996,-15.406206055530248
-0.2947000000000001,-15.491088733522153
-0.29569999999999996,-15.575971411514052
-0.2967000000000001,-15.717442541500558
-0.29769999999999996,-15.858913671487063
-0.2987000000000001,-15.972090575476265
-0.29969999999999997,-16.056973253468165
-0.3007000000000001,-16.141855931460068
-0.30169999999999997,-16.25503283544927
-0.3027000000000001,-16.396503965435777
-0.30369999999999997,-16.495533756426326
-0.3047000000000001,-16.580416434418233
-0.30569999999999997,-16.693593338407435
-0.3067000000000001,-16.806770242396635
-0.3077,-16.94824137238314
-0.3087000000000001,-17.047271163373694
-0.3097,-17.132153841365596
-0.3107000000000001,-17.2453307453548
-0.3117,-17.358507649344002
-0.3127000000000001,-17.499978779330505
-0.3137,-17.599008570321057
-0.3147000000000001,-17.683891248312957
-0.3157,-17.797068152302163
-0.3167000000000001,-17.924392169290012
-0.3177,-18.06586329927652
-0.3187000000000001,-18.164893090267068
-0.3197,-18.23562865526032
-0.3207000000000001,-18.320511333252224
-0.3217,-18.461982463238726
-0.3227000000000001,-18.603453593225233
-0.3237,-18.716630497214435
-0.3247000000000001,-18.80151317520634
-0.3257,-18.900542966196888
-0.3267000000000001,-19.027866983184744
-0.3277,-19.155191000172596
-0.3287000000000001,-19.2683679041618
-0.3297,-19.353250582153702
-0.3307000000000001,-19.452280373144255
-0.3317,-19.579604390132108
-0.3327000000000001,-19.721075520118614
-0.3337,-19.820105311109163
-0.3347000000000001,-19.919135102099716
-0.3357,-20.01816489309027
-0.3367000000000001,-20.159636023076775
-0.3377,-20.301107153063278
-0.3387000000000001,-20.414284057052477
-0.3397,-20.51331384804303
-0.3407000000000001,-20.626490752032236
-0.3417,-20.73966765602144
-0.3427000000000001,-20.90943301200524
-0.3437,-21.022609915994444
-0.3447000000000001,-21.079198367989047
-0.3457,-21.22066949797555
-0.3467000000000001,-21.362140627962056
-0.3477,-21.54605309694451
-0.3487000000000001,-21.67337711393236
-0.3497,-21.772406904922917
-0.3507000000000001,-21.885583808912116
-0.3517,-22.027054938898623
-0.3527000000000001,-22.196820294882425
-0.3537,-22.33829142486893
-0.3547000000000001,-22.437321215859484
-0.3557,-22.578792345845983
-0.35670000000000013,-22.748557701829792
-0.3577,-22.932470170812245
-0.35870000000000013,-23.088088413797397
-0.3597,-23.24370665678255
-0.36070000000000013,-23.399324899767706
-0.3617,-23.56909025575151
-0.3626999999999999,-23.767149837732617
-0.3637,-23.93691519371642
-0.3646999999999999,-24.092533436701576
-0.3657,-24.24815167968673
-0.3666999999999999,-24.474505487665134
-0.3677,-24.686712182644893
-0.3686999999999999,-24.9130659906233
-0.36970000000000003,-25.1394197986017
-0.3706999999999999,-25.37992071957876
-0.37170000000000003,-25.648715866553115
-0.3726999999999999,-25.931658126526123
-0.37370000000000003,-26.22874749949778
-0.3746999999999999,-26.483395533473487
-0.37570000000000003,-26.837073358439746
-0.3766999999999999,-27.247339635400607
-0.37770000000000004,-27.714194364356068
-0.3786999999999999,-28.166901980312883
-0.37970000000000004,-28.662050935265643
-0.3806999999999999,-29.242082568210304
-0.38170000000000004,-29.949438218142824
-0.38269999999999993,-30.727529433068593
-0.38370000000000004,-31.57635621298762
-0.38469999999999993,-32.65153680088505
-0.38570000000000004,-33.88233563176763
-0.38669999999999993,-33.99551253575683
-0.38570000000000004,-33.712570275783825
-0.38469999999999993,-33.99551253575683
-0.38370000000000004,-34.50480860370825
-0.38269999999999993,-35.07069312365426
-0.38170000000000004,-35.74975454758948
-0.3806999999999999,-36.4288159715247
-0.37970000000000004,-37.107877395459916
-0.3786999999999999,-37.716203254401876
-0.37770000000000004,-38.29623488734655
-0.3766999999999999,-38.86211940729255
-0.37570000000000003,-39.328974136248014
-0.3746999999999999,-39.76753463920618
-0.37370000000000003,-40.191948029165694
-0.3726999999999999,-40.559772967130606
-0.37170000000000003,-40.84271522710361
-0.3706999999999999,-41.06906903508202
-0.36970000000000003,-41.168098826072566
-0.3686999999999999,-41.23883439106582
-0.3677,-41.25298150406447
-0.3666999999999999,-41.182245939071215
-0.3657,-41.02662769608606
-0.3646999999999999,-40.814421001106304
-0.3637,-40.57392008012925
-0.3626999999999999,-40.31927204615355
-0.3617,-40.05047689917919
-0.36070000000000013,-39.79582886520348
-0.3597,-39.47044526623452
-0.35870000000000013,-39.08847321527096
-0.3577,-38.692354051308754
-0.35670000000000013,-38.33867622634249
-0.3557,-37.95670417537893
-0.3547000000000001,-37.50399655942213
-0.3537,-37.037141830466666
-0.3527000000000001,-36.61272844050715
-0.3517,-36.244903502542236
-0.3507000000000001,-35.82049011258273
-0.3497,-35.339488270628614
-0.3487000000000001,-34.8301922026772
-0.3477,-34.32089613472579
-0.3467000000000001,-33.825747179773025
-0.3457,-33.344745337818914
-0.3447000000000001,-32.8637434958648
-0.3437,-32.354447427913385
-0.3427000000000001,-31.85929847296063
-0.3417,-31.37829663100651
-0.3407000000000001,-30.8690005630551
-0.3397,-30.331410269106385
-0.3387000000000001,-29.822114201154974
-0.3377,-29.32696524620221
-0.3367000000000001,-28.8176691782508
-0.3357,-28.265931771303435
-0.3347000000000001,-27.714194364356068
-0.3337,-27.162456957408708
-0.3327000000000001,-26.59657243746269
-0.3317,-26.101423482509926
-0.3307000000000001,-25.60627452755716
-0.3297,-25.09697845960575
-0.3287000000000001,-24.531093939659737
-0.3277,-23.993503645711023
-0.3267000000000001,-23.48420757775961
-0.3257,-22.932470170812245
-0.3247000000000001,-22.36658565086623
-0.3237,-21.871436695913467
-0.3227000000000001,-21.2631108369715
-0.3217,-20.69722631702549
-0.3207000000000001,-20.21622447507137
-0.3197,-19.70692840711996
-0.3187000000000001,-19.141043887173947
-0.3177,-18.631747819222536
-0.3167000000000001,-18.13659886426977
-0.3157,-17.641449909317007
-0.3147000000000001,-17.132153841365596
-0.3137,-16.60871066041553
-0.3127000000000001,-16.071120366466815
-0.3117,-15.575971411514052
-0.3107000000000001,-15.080822456561293
-0.3097,-14.599820614607177
-0.3087000000000001,-14.096183391855226
-0.3077,-13.636402219399088
-0.3067000000000001,-13.227550653738092
-0.30569999999999997,-12.797478418579121
-0.3047000000000001,-12.334867823523254
-0.30369999999999997,-11.865183671968062
-0.3027000000000001,-11.425208457710037
-0.30169999999999997,-11.023430448548366
-0.3007000000000001,-10.635799552385345
-0.29969999999999997,-10.23543625452354
-0.2987000000000001,-9.832243534062004
-0.29769999999999996,-9.440368503999391
-0.2967000000000001,-9.082446545133534
-0.29569999999999996,-8.740086410566196
-0.2947000000000001,-8.360943782202368
-0.29369999999999996,-7.977557019938943
-0.29270000000000007,-7.636611596671468
-0.29169999999999996,-7.3183015542018355
-0.29070000000000007,-7.012723913430986
-0.28969999999999996,-6.685925603162163
-0.28870000000000007,-6.360542004193205
-0.28769999999999996,-6.069111476421008
-0.28670000000000007,-5.798901618146785
-0.28569999999999995,-5.531521182472294
-0.28470000000000006,-5.252823056398881
-0.28369999999999995,-4.979783775524929
-0.28270000000000006,-4.723721030249357
-0.28169999999999995,-4.487464243171897
-0.28070000000000006,-4.254036878694166
-0.27969999999999995,-4.0121212464172435
-0.27870000000000006,-3.7631320576409975
-0.27769999999999995,-3.542437094862052
-0.27670000000000006,-3.3486216467805416
-0.27569999999999995,-3.1463179308998415
-0.27470000000000006,-2.942599503719276
-0.27369999999999994,-2.719075118340601
-0.27270000000000005,-2.5266743815589554
-0.27169999999999994,-2.382373828972722
-0.27070000000000005,-2.226755585987568
-0.26969999999999994,-2.054160807404033
-0.26870000000000005,-1.8688336271217136
-0.26769999999999994,-1.7047271163373692
