Aug. 18, 2024   09:03:45
Cyclic Voltammetry
File: c:/users/guazh/data/20240813_batch_94_500/2024-08-15-exp121\exp121-2024-08-18t08_58_46-h2koh\exp121_cv_50mvs_efin_-1400mv.bin
Data Source:  Experiment
Instrument Model:  CHI760E
Header: CV ran at 50 mVs
Note: 

Init E (V) = -1
High E (V) = -1
Low E (V) = -1.4
Final E (V) = -1
Init P/N = N
Scan Rate (V/s) = 0.05
Segment = 7
Sample Interval (V) = 0.001
Quiet Time (sec) = 60
Sensitivity (A/V) = 0.001
Comp R (ohm) = 1.6

Results:

Channel 1:
Segment 1:

Segment 2:

Segment 3:

Segment 4:

Segment 5:
Ep = -1.310V
ip = 4.144e-5A
Ah = 3.045e-5C

Segment 6:

Segment 7:

Potential/V, Current/A

-1.000, 9.856e-5
-1.001, 1.024e-4
-1.002, 1.050e-4
-1.003, 1.080e-4
-1.004, 1.104e-4
-1.005, 1.129e-4
-1.006, 1.153e-4
-1.007, 1.171e-4
-1.008, 1.194e-4
-1.009, 1.209e-4
-1.010, 1.229e-4
-1.011, 1.250e-4
-1.012, 1.265e-4
-1.013, 1.286e-4
-1.014, 1.302e-4
-1.015, 1.321e-4
-1.016, 1.336e-4
-1.017, 1.350e-4
-1.018, 1.369e-4
-1.019, 1.385e-4
-1.020, 1.402e-4
-1.021, 1.421e-4
-1.022, 1.438e-4
-1.023, 1.456e-4
-1.024, 1.468e-4
-1.025, 1.488e-4
-1.026, 1.503e-4
-1.027, 1.516e-4
-1.028, 1.535e-4
-1.029, 1.548e-4
-1.030, 1.570e-4
-1.031, 1.586e-4
-1.032, 1.605e-4
-1.033, 1.623e-4
-1.034, 1.636e-4
-1.035, 1.656e-4
-1.036, 1.668e-4
-1.037, 1.683e-4
-1.038, 1.700e-4
-1.039, 1.718e-4
-1.040, 1.739e-4
-1.041, 1.751e-4
-1.042, 1.771e-4
-1.043, 1.787e-4
-1.044, 1.802e-4
-1.045, 1.822e-4
-1.046, 1.834e-4
-1.047, 1.855e-4
-1.048, 1.871e-4
-1.049, 1.891e-4
-1.050, 1.913e-4
-1.051, 1.925e-4
-1.052, 1.949e-4
-1.053, 1.962e-4
-1.054, 1.981e-4
-1.055, 2.001e-4
-1.056, 2.013e-4
-1.057, 2.039e-4
-1.058, 2.056e-4
-1.059, 2.081e-4
-1.060, 2.097e-4
-1.061, 2.112e-4
-1.062, 2.135e-4
-1.063, 2.149e-4
-1.064, 2.172e-4
-1.065, 2.191e-4
-1.066, 2.213e-4
-1.067, 2.236e-4
-1.068, 2.248e-4
-1.069, 2.277e-4
-1.070, 2.289e-4
-1.071, 2.311e-4
-1.072, 2.335e-4
-1.073, 2.347e-4
-1.074, 2.372e-4
-1.075, 2.391e-4
-1.076, 2.413e-4
-1.077, 2.434e-4
-1.078, 2.453e-4
-1.079, 2.478e-4
-1.080, 2.492e-4
-1.081, 2.520e-4
-1.082, 2.544e-4
-1.083, 2.570e-4
-1.084, 2.597e-4
-1.085, 2.609e-4
-1.086, 2.640e-4
-1.087, 2.655e-4
-1.088, 2.672e-4
-1.089, 2.698e-4
-1.090, 2.714e-4
-1.091, 2.742e-4
-1.092, 2.762e-4
-1.093, 2.783e-4
-1.094, 2.805e-4
-1.095, 2.820e-4
-1.096, 2.847e-4
-1.097, 2.866e-4
-1.098, 2.890e-4
-1.099, 2.911e-4
-1.100, 2.930e-4
-1.101, 2.957e-4
-1.102, 2.973e-4
-1.103, 3.007e-4
-1.104, 3.020e-4
-1.105, 3.045e-4
-1.106, 3.069e-4
-1.107, 3.083e-4
-1.108, 3.119e-4
-1.109, 3.131e-4
-1.110, 3.155e-4
-1.111, 3.176e-4
-1.112, 3.198e-4
-1.113, 3.221e-4
-1.114, 3.243e-4
-1.115, 3.263e-4
-1.116, 3.283e-4
-1.117, 3.303e-4
-1.118, 3.334e-4
-1.119, 3.346e-4
-1.120, 3.378e-4
-1.121, 3.391e-4
-1.122, 3.407e-4
-1.123, 3.434e-4
-1.124, 3.453e-4
-1.125, 3.483e-4
-1.126, 3.487e-4
-1.127, 3.514e-4
-1.128, 3.536e-4
-1.129, 3.547e-4
-1.130, 3.572e-4
-1.131, 3.581e-4
-1.132, 3.610e-4
-1.133, 3.630e-4
-1.134, 3.646e-4
-1.135, 3.679e-4
-1.136, 3.701e-4
-1.137, 3.735e-4
-1.138, 3.747e-4
-1.139, 3.773e-4
-1.140, 3.799e-4
-1.141, 3.816e-4
-1.142, 3.845e-4
-1.143, 3.865e-4
-1.144, 3.893e-4
-1.145, 3.916e-4
-1.146, 3.928e-4
-1.147, 3.969e-4
-1.148, 3.983e-4
-1.149, 4.002e-4
-1.150, 4.029e-4
-1.151, 4.042e-4
-1.152, 4.079e-4
-1.153, 4.097e-4
-1.154, 4.126e-4
-1.155, 4.153e-4
-1.156, 4.176e-4
-1.157, 4.207e-4
-1.158, 4.217e-4
-1.159, 4.251e-4
-1.160, 4.271e-4
-1.161, 4.294e-4
-1.162, 4.320e-4
-1.163, 4.329e-4
-1.164, 4.367e-4
-1.165, 4.378e-4
-1.166, 4.414e-4
-1.167, 4.443e-4
-1.168, 4.458e-4
-1.169, 4.490e-4
-1.170, 4.503e-4
-1.171, 4.547e-4
-1.172, 4.565e-4
-1.173, 4.582e-4
-1.174, 4.622e-4
-1.175, 4.621e-4
-1.176, 4.655e-4
-1.177, 4.676e-4
-1.178, 4.702e-4
-1.179, 4.742e-4
-1.180, 4.747e-4
-1.181, 4.787e-4
-1.182, 4.799e-4
-1.183, 4.817e-4
-1.184, 4.852e-4
-1.185, 4.861e-4
-1.186, 4.909e-4
-1.187, 4.919e-4
-1.188, 4.947e-4
-1.189, 4.973e-4
-1.190, 4.995e-4
-1.191, 5.029e-4
-1.192, 5.055e-4
-1.193, 5.096e-4
-1.194, 5.105e-4
-1.195, 5.122e-4
-1.196, 5.167e-4
-1.197, 5.174e-4
-1.198, 5.227e-4
-1.199, 5.242e-4
-1.200, 5.268e-4
-1.201, 5.301e-4
-1.202, 5.301e-4
-1.203, 5.352e-4
-1.204, 5.365e-4
-1.205, 5.385e-4
-1.206, 5.419e-4
-1.207, 5.427e-4
-1.208, 5.477e-4
-1.209, 5.487e-4
-1.210, 5.515e-4
-1.211, 5.545e-4
-1.212, 5.545e-4
-1.213, 5.578e-4
-1.214, 5.583e-4
-1.215, 5.628e-4
-1.216, 5.649e-4
-1.217, 5.655e-4
-1.218, 5.708e-4
-1.219, 5.705e-4
-1.220, 5.752e-4
-1.221, 5.774e-4
-1.222, 5.788e-4
-1.223, 5.828e-4
-1.224, 5.831e-4
-1.225, 5.872e-4
-1.226, 5.889e-4
-1.227, 5.904e-4
-1.228, 5.940e-4
-1.229, 5.935e-4
-1.230, 5.994e-4
-1.231, 5.965e-4
-1.232, 5.991e-4
-1.233, 6.020e-4
-1.234, 6.030e-4
-1.235, 6.084e-4
-1.236, 6.096e-4
-1.237, 6.137e-4
-1.238, 6.165e-4
-1.239, 6.178e-4
-1.240, 6.229e-4
-1.241, 6.217e-4
-1.242, 6.262e-4
-1.243, 6.270e-4
-1.244, 6.296e-4
-1.245, 6.348e-4
-1.246, 6.337e-4
-1.247, 6.389e-4
-1.248, 6.382e-4
-1.249, 6.422e-4
-1.250, 6.452e-4
-1.251, 6.434e-4
-1.252, 6.485e-4
-1.253, 6.489e-4
-1.254, 6.518e-4
-1.255, 6.546e-4
-1.256, 6.546e-4
-1.257, 6.592e-4
-1.258, 6.572e-4
-1.259, 6.631e-4
-1.260, 6.651e-4
-1.261, 6.651e-4
-1.262, 6.690e-4
-1.263, 6.667e-4
-1.264, 6.711e-4
-1.265, 6.697e-4
-1.266, 6.708e-4
-1.267, 6.757e-4
-1.268, 6.780e-4
-1.269, 6.835e-4
-1.270, 6.795e-4
-1.271, 6.851e-4
-1.272, 6.865e-4
-1.273, 6.840e-4
-1.274, 6.901e-4
-1.275, 6.884e-4
-1.276, 6.926e-4
-1.277, 6.921e-4
-1.278, 6.892e-4
-1.279, 6.966e-4
-1.280, 6.943e-4
-1.281, 6.990e-4
-1.282, 7.010e-4
-1.283, 7.017e-4
-1.284, 7.083e-4
-1.285, 7.038e-4
-1.286, 7.108e-4
-1.287, 7.104e-4
-1.288, 7.127e-4
-1.289, 7.171e-4
-1.290, 7.157e-4
-1.291, 7.211e-4
-1.292, 7.186e-4
-1.293, 7.231e-4
-1.294, 7.245e-4
-1.295, 7.215e-4
-1.296, 7.277e-4
-1.297, 7.266e-4
-1.298, 7.305e-4
-1.299, 7.314e-4
-1.300, 7.336e-4
-1.301, 7.397e-4
-1.302, 7.326e-4
-1.303, 7.385e-4
-1.304, 7.374e-4
-1.305, 7.399e-4
-1.306, 7.441e-4
-1.307, 7.432e-4
-1.308, 7.497e-4
-1.309, 7.475e-4
-1.310, 7.502e-4
-1.311, 7.525e-4
-1.312, 7.495e-4
-1.313, 7.578e-4
-1.314, 7.505e-4
-1.315, 7.568e-4
-1.316, 7.586e-4
-1.317, 7.576e-4
-1.318, 7.629e-4
-1.319, 7.567e-4
-1.320, 7.627e-4
-1.321, 7.633e-4
-1.322, 7.642e-4
-1.323, 7.703e-4
-1.324, 7.673e-4
-1.325, 7.721e-4
-1.326, 7.715e-4
-1.327, 7.719e-4
-1.328, 7.757e-4
-1.329, 7.712e-4
-1.330, 7.773e-4
-1.331, 7.702e-4
-1.332, 7.751e-4
-1.333, 7.775e-4
-1.334, 7.752e-4
-1.335, 7.808e-4
-1.336, 7.759e-4
-1.337, 7.846e-4
-1.338, 7.857e-4
-1.339, 7.858e-4
-1.340, 7.898e-4
-1.341, 7.838e-4
-1.342, 7.898e-4
-1.343, 7.887e-4
-1.344, 7.887e-4
-1.345, 7.973e-4
-1.346, 7.947e-4
-1.347, 8.021e-4
-1.348, 8.007e-4
-1.349, 8.044e-4
-1.350, 8.082e-4
-1.351, 8.079e-4
-1.352, 8.144e-4
-1.353, 8.094e-4
-1.354, 8.138e-4
-1.355, 8.157e-4
-1.356, 8.152e-4
-1.357, 8.242e-4
-1.358, 8.176e-4
-1.359, 8.293e-4
-1.360, 8.270e-4
-1.361, 8.324e-4
-1.362, 8.356e-4
-1.363, 8.279e-4
-1.364, 8.367e-4
-1.365, 8.328e-4
-1.366, 8.329e-4
-1.367, 8.378e-4
-1.368, 8.346e-4
-1.369, 8.453e-4
-1.370, 8.418e-4
-1.371, 8.474e-4
-1.372, 8.484e-4
-1.373, 8.483e-4
-1.374, 8.550e-4
-1.375, 8.485e-4
-1.376, 8.538e-4
-1.377, 8.570e-4
-1.378, 8.583e-4
-1.379, 8.646e-4
-1.380, 8.567e-4
-1.381, 8.654e-4
-1.382, 8.638e-4
-1.383, 8.644e-4
-1.384, 8.709e-4
-1.385, 8.654e-4
-1.386, 8.738e-4
-1.387, 8.683e-4
-1.388, 8.698e-4
-1.389, 8.720e-4
-1.390, 8.650e-4
-1.391, 8.700e-4
-1.392, 8.677e-4
-1.393, 8.771e-4
-1.394, 8.747e-4
-1.395, 8.735e-4
-1.396, 8.785e-4
-1.397, 8.742e-4
-1.398, 8.764e-4
-1.399, 8.751e-4
-1.400, 8.680e-4
-1.399, 8.661e-4
-1.398, 8.532e-4
-1.397, 8.551e-4
-1.396, 8.431e-4
-1.395, 8.374e-4
-1.394, 8.364e-4
-1.393, 8.234e-4
-1.392, 8.224e-4
-1.391, 8.103e-4
-1.390, 8.057e-4
-1.389, 8.054e-4
-1.388, 7.979e-4
-1.387, 7.968e-4
-1.386, 7.871e-4
-1.385, 7.845e-4
-1.384, 7.783e-4
-1.383, 7.713e-4
-1.382, 7.701e-4
-1.381, 7.552e-4
-1.380, 7.570e-4
-1.379, 7.479e-4
-1.378, 7.397e-4
-1.377, 7.398e-4
-1.376, 7.292e-4
-1.375, 7.288e-4
-1.374, 7.143e-4
-1.373, 7.039e-4
-1.372, 6.977e-4
-1.371, 6.933e-4
-1.370, 6.871e-4
-1.369, 6.758e-4
-1.368, 6.738e-4
-1.367, 6.665e-4
-1.366, 6.550e-4
-1.365, 6.543e-4
-1.364, 6.404e-4
-1.363, 6.400e-4
-1.362, 6.324e-4
-1.361, 6.278e-4
-1.360, 6.290e-4
-1.359, 6.145e-4
-1.358, 6.158e-4
-1.357, 6.074e-4
-1.356, 6.027e-4
-1.355, 6.043e-4
-1.354, 5.919e-4
-1.353, 5.908e-4
-1.352, 5.813e-4
-1.351, 5.743e-4
-1.350, 5.723e-4
-1.349, 5.645e-4
-1.348, 5.643e-4
-1.347, 5.614e-4
-1.346, 5.581e-4
-1.345, 5.532e-4
-1.344, 5.461e-4
-1.343, 5.513e-4
-1.342, 5.414e-4
-1.341, 5.394e-4
-1.340, 5.359e-4
-1.339, 5.313e-4
-1.338, 5.305e-4
-1.337, 5.212e-4
-1.336, 5.211e-4
-1.335, 5.139e-4
-1.334, 5.095e-4
-1.333, 5.098e-4
-1.332, 4.975e-4
-1.331, 4.956e-4
-1.330, 4.917e-4
-1.329, 4.880e-4
-1.328, 4.883e-4
-1.327, 4.817e-4
-1.326, 4.837e-4
-1.325, 4.719e-4
-1.324, 4.737e-4
-1.323, 4.694e-4
-1.322, 4.696e-4
-1.321, 4.702e-4
-1.320, 4.579e-4
-1.319, 4.580e-4
-1.318, 4.547e-4
-1.317, 4.502e-4
-1.316, 4.515e-4
-1.315, 4.458e-4
-1.314, 4.490e-4
-1.313, 4.417e-4
-1.312, 4.364e-4
-1.311, 4.355e-4
-1.310, 4.336e-4
-1.309, 4.372e-4
-1.308, 4.289e-4
-1.307, 4.263e-4
-1.306, 4.233e-4
-1.305, 4.172e-4
-1.304, 4.172e-4
-1.303, 4.058e-4
-1.302, 4.057e-4
-1.301, 4.041e-4
-1.300, 3.984e-4
-1.299, 3.992e-4
-1.298, 3.908e-4
-1.297, 3.933e-4
-1.296, 3.864e-4
-1.295, 3.810e-4
-1.294, 3.815e-4
-1.293, 3.725e-4
-1.292, 3.734e-4
-1.291, 3.684e-4
-1.290, 3.647e-4
-1.289, 3.645e-4
-1.288, 3.569e-4
-1.287, 3.597e-4
-1.286, 3.517e-4
-1.285, 3.517e-4
-1.284, 3.484e-4
-1.283, 3.431e-4
-1.282, 3.466e-4
-1.281, 3.367e-4
-1.280, 3.360e-4
-1.279, 3.362e-4
-1.278, 3.331e-4
-1.277, 3.358e-4
-1.276, 3.282e-4
-1.275, 3.299e-4
-1.274, 3.255e-4
-1.273, 3.212e-4
-1.272, 3.212e-4
-1.271, 3.164e-4
-1.270, 3.177e-4
-1.269, 3.123e-4
-1.268, 3.111e-4
-1.267, 3.118e-4
-1.266, 3.066e-4
-1.265, 3.090e-4
-1.264, 3.018e-4
-1.263, 3.019e-4
-1.262, 3.010e-4
-1.261, 2.964e-4
-1.260, 2.991e-4
-1.259, 2.912e-4
-1.258, 2.956e-4
-1.257, 2.919e-4
-1.256, 2.892e-4
-1.255, 2.892e-4
-1.254, 2.810e-4
-1.253, 2.840e-4
-1.252, 2.781e-4
-1.251, 2.759e-4
-1.250, 2.762e-4
-1.249, 2.697e-4
-1.248, 2.737e-4
-1.247, 2.673e-4
-1.246, 2.682e-4
-1.245, 2.673e-4
-1.244, 2.621e-4
-1.243, 2.662e-4
-1.242, 2.600e-4
-1.241, 2.626e-4
-1.240, 2.599e-4
-1.239, 2.560e-4
-1.238, 2.588e-4
-1.237, 2.538e-4
-1.236, 2.550e-4
-1.235, 2.518e-4
-1.234, 2.475e-4
-1.233, 2.488e-4
-1.232, 2.441e-4
-1.231, 2.459e-4
-1.230, 2.439e-4
-1.229, 2.422e-4
-1.228, 2.424e-4
-1.227, 2.391e-4
-1.226, 2.422e-4
-1.225, 2.378e-4
-1.224, 2.387e-4
-1.223, 2.359e-4
-1.222, 2.316e-4
-1.221, 2.354e-4
-1.220, 2.293e-4
-1.219, 2.303e-4
-1.218, 2.288e-4
-1.217, 2.264e-4
-1.216, 2.247e-4
-1.215, 2.197e-4
-1.214, 2.229e-4
-1.213, 2.169e-4
-1.212, 2.148e-4
-1.211, 2.154e-4
-1.210, 2.124e-4
-1.209, 2.144e-4
-1.208, 2.099e-4
-1.207, 2.096e-4
-1.206, 2.105e-4
-1.205, 2.062e-4
-1.204, 2.074e-4
-1.203, 2.050e-4
-1.202, 2.052e-4
-1.201, 2.040e-4
-1.200, 2.010e-4
-1.199, 2.022e-4
-1.198, 1.980e-4
-1.197, 1.988e-4
-1.196, 1.963e-4
-1.195, 1.950e-4
-1.194, 1.964e-4
-1.193, 1.935e-4
-1.192, 1.938e-4
-1.191, 1.902e-4
-1.190, 1.897e-4
-1.189, 1.889e-4
-1.188, 1.867e-4
-1.187, 1.871e-4
-1.186, 1.826e-4
-1.185, 1.828e-4
-1.184, 1.805e-4
-1.183, 1.780e-4
-1.182, 1.799e-4
-1.181, 1.750e-4
-1.180, 1.750e-4
-1.179, 1.732e-4
-1.178, 1.711e-4
-1.177, 1.711e-4
-1.176, 1.670e-4
-1.175, 1.686e-4
-1.174, 1.644e-4
-1.173, 1.656e-4
-1.172, 1.652e-4
-1.171, 1.618e-4
-1.170, 1.645e-4
-1.169, 1.576e-4
-1.168, 1.579e-4
-1.167, 1.562e-4
-1.166, 1.535e-4
-1.165, 1.557e-4
-1.164, 1.522e-4
-1.163, 1.517e-4
-1.162, 1.509e-4
-1.161, 1.501e-4
-1.160, 1.501e-4
-1.159, 1.425e-4
-1.158, 1.442e-4
-1.157, 1.406e-4
-1.156, 1.394e-4
-1.155, 1.391e-4
-1.154, 1.355e-4
-1.153, 1.362e-4
-1.152, 1.315e-4
-1.151, 1.321e-4
-1.150, 1.314e-4
-1.149, 1.303e-4
-1.148, 1.314e-4
-1.147, 1.258e-4
-1.146, 1.268e-4
-1.145, 1.257e-4
-1.144, 1.250e-4
-1.143, 1.254e-4
-1.142, 1.227e-4
-1.141, 1.231e-4
-1.140, 1.211e-4
-1.139, 1.210e-4
-1.138, 1.206e-4
-1.137, 1.161e-4
-1.136, 1.179e-4
-1.135, 1.144e-4
-1.134, 1.141e-4
-1.133, 1.133e-4
-1.132, 1.107e-4
-1.131, 1.113e-4
-1.130, 1.084e-4
-1.129, 1.090e-4
-1.128, 1.078e-4
-1.127, 1.064e-4
-1.126, 1.077e-4
-1.125, 1.037e-4
-1.124, 1.034e-4
-1.123, 1.031e-4
-1.122, 1.028e-4
-1.121, 1.019e-4
-1.120, 9.798e-5
-1.119, 9.802e-5
-1.118, 9.593e-5
-1.117, 9.565e-5
-1.116, 9.521e-5
-1.115, 9.412e-5
-1.114, 9.493e-5
-1.113, 9.161e-5
-1.112, 9.334e-5
-1.111, 9.153e-5
-1.110, 9.033e-5
-1.109, 9.035e-5
-1.108, 8.836e-5
-1.107, 8.897e-5
-1.106, 8.709e-5
-1.105, 8.670e-5
-1.104, 8.683e-5
-1.103, 8.396e-5
-1.102, 8.501e-5
-1.101, 8.223e-5
-1.100, 8.241e-5
-1.099, 8.226e-5
-1.098, 7.992e-5
-1.097, 8.094e-5
-1.096, 7.839e-5
-1.095, 7.885e-5
-1.094, 7.771e-5
-1.093, 7.749e-5
-1.092, 7.700e-5
-1.091, 7.477e-5
-1.090, 7.430e-5
-1.089, 7.353e-5
-1.088, 7.248e-5
-1.087, 7.314e-5
-1.086, 7.074e-5
-1.085, 6.973e-5
-1.084, 6.875e-5
-1.083, 6.828e-5
-1.082, 6.807e-5
-1.081, 6.639e-5
-1.080, 6.629e-5
-1.079, 6.384e-5
-1.078, 6.429e-5
-1.077, 6.319e-5
-1.076, 6.185e-5
-1.075, 6.321e-5
-1.074, 5.965e-5
-1.073, 5.992e-5
-1.072, 5.875e-5
-1.071, 5.786e-5
-1.070, 5.782e-5
-1.069, 5.581e-5
-1.068, 5.701e-5
-1.067, 5.469e-5
-1.066, 5.349e-5
-1.065, 5.368e-5
-1.064, 5.216e-5
-1.063, 5.183e-5
-1.062, 5.083e-5
-1.061, 5.058e-5
-1.060, 5.024e-5
-1.059, 4.986e-5
-1.058, 4.893e-5
-1.057, 4.774e-5
-1.056, 4.815e-5
-1.055, 4.702e-5
-1.054, 4.630e-5
-1.053, 4.669e-5
-1.052, 4.407e-5
-1.051, 4.506e-5
-1.050, 4.287e-5
-1.049, 4.263e-5
-1.048, 4.188e-5
-1.047, 4.003e-5
-1.046, 4.048e-5
-1.045, 3.862e-5
-1.044, 3.896e-5
-1.043, 3.844e-5
-1.042, 3.732e-5
-1.041, 3.765e-5
-1.040, 3.572e-5
-1.039, 3.635e-5
-1.038, 3.518e-5
-1.037, 3.364e-5
-1.036, 3.472e-5
-1.035, 3.196e-5
-1.034, 3.265e-5
-1.033, 3.152e-5
-1.032, 3.107e-5
-1.031, 3.074e-5
-1.030, 2.839e-5
-1.029, 2.845e-5
-1.028, 2.696e-5
-1.027, 2.698e-5
-1.026, 2.667e-5
-1.025, 2.480e-5
-1.024, 2.514e-5
-1.023, 2.330e-5
-1.022, 2.299e-5
-1.021, 2.158e-5
-1.020, 2.013e-5
-1.019, 2.042e-5
-1.018, 1.796e-5
-1.017, 1.807e-5
-1.016, 1.641e-5
-1.015, 1.588e-5
-1.014, 1.621e-5
-1.013, 1.454e-5
-1.012, 1.479e-5
-1.011, 1.350e-5
-1.010, 1.332e-5
-1.009, 1.256e-5
-1.008, 1.170e-5
-1.007, 1.192e-5
-1.006, 1.064e-5
-1.005, 1.048e-5
-1.004, 9.785e-6
-1.003, 8.937e-6
-1.002, 8.567e-6
-1.001, 6.938e-6
-1.000, 9.208e-6
-1.001, 1.133e-5
-1.002, 1.383e-5
-1.003, 1.626e-5
-1.004, 1.740e-5
-1.005, 1.948e-5
-1.006, 2.084e-5
-1.007, 2.210e-5
-1.008, 2.415e-5
-1.009, 2.473e-5
-1.010, 2.695e-5
-1.011, 2.792e-5
-1.012, 2.964e-5
-1.013, 3.098e-5
-1.014, 3.228e-5
-1.015, 3.437e-5
-1.016, 3.536e-5
-1.017, 3.721e-5
-1.018, 3.850e-5
-1.019, 3.958e-5
-1.020, 4.147e-5
-1.021, 4.141e-5
-1.022, 4.411e-5
-1.023, 4.490e-5
-1.024, 4.632e-5
-1.025, 4.799e-5
-1.026, 4.786e-5
-1.027, 5.026e-5
-1.028, 5.068e-5
-1.029, 5.187e-5
-1.030, 5.305e-5
-1.031, 5.289e-5
-1.032, 5.493e-5
-1.033, 5.471e-5
-1.034, 5.626e-5
-1.035, 5.783e-5
-1.036, 5.800e-5
-1.037, 6.048e-5
-1.038, 5.973e-5
-1.039, 6.128e-5
-1.040, 6.253e-5
-1.041, 6.304e-5
-1.042, 6.589e-5
-1.043, 6.387e-5
-1.044, 6.679e-5
-1.045, 6.697e-5
-1.046, 6.732e-5
-1.047, 6.954e-5
-1.048, 6.880e-5
-1.049, 7.054e-5
-1.050, 7.041e-5
-1.051, 7.293e-5
-1.052, 7.427e-5
-1.053, 7.316e-5
-1.054, 7.663e-5
-1.055, 7.492e-5
-1.056, 7.779e-5
-1.057, 7.783e-5
-1.058, 7.765e-5
-1.059, 8.110e-5
-1.060, 7.878e-5
-1.061, 8.160e-5
-1.062, 8.146e-5
-1.063, 8.292e-5
-1.064, 8.531e-5
-1.065, 8.280e-5
-1.066, 8.559e-5
-1.067, 8.494e-5
-1.068, 8.645e-5
-1.069, 8.801e-5
-1.070, 8.623e-5
-1.071, 8.982e-5
-1.072, 8.871e-5
-1.073, 9.014e-5
-1.074, 9.115e-5
-1.075, 9.100e-5
-1.076, 9.427e-5
-1.077, 9.180e-5
-1.078, 9.527e-5
-1.079, 9.528e-5
-1.080, 9.576e-5
-1.081, 9.950e-5
-1.082, 9.515e-5
-1.083, 9.933e-5
-1.084, 9.806e-5
-1.085, 9.868e-5
-1.086, 1.009e-4
-1.087, 9.831e-5
-1.088, 1.019e-4
-1.089, 1.008e-4
-1.090, 1.029e-4
-1.091, 1.040e-4
-1.092, 1.031e-4
-1.093, 1.070e-4
-1.094, 1.050e-4
-1.095, 1.068e-4
-1.096, 1.071e-4
-1.097, 1.071e-4
-1.098, 1.108e-4
-1.099, 1.073e-4
-1.100, 1.107e-4
-1.101, 1.104e-4
-1.102, 1.115e-4
-1.103, 1.147e-4
-1.104, 1.100e-4
-1.105, 1.148e-4
-1.106, 1.133e-4
-1.107, 1.139e-4
-1.108, 1.163e-4
-1.109, 1.134e-4
-1.110, 1.179e-4
-1.111, 1.157e-4
-1.112, 1.173e-4
-1.113, 1.192e-4
-1.114, 1.172e-4
-1.115, 1.210e-4
-1.116, 1.187e-4
-1.117, 1.218e-4
-1.118, 1.223e-4
-1.119, 1.212e-4
-1.120, 1.248e-4
-1.121, 1.205e-4
-1.122, 1.253e-4
-1.123, 1.251e-4
-1.124, 1.255e-4
-1.125, 1.292e-4
-1.126, 1.254e-4
-1.127, 1.294e-4
-1.128, 1.284e-4
-1.129, 1.296e-4
-1.130, 1.315e-4
-1.131, 1.294e-4
-1.132, 1.329e-4
-1.133, 1.311e-4
-1.134, 1.332e-4
-1.135, 1.342e-4
-1.136, 1.335e-4
-1.137, 1.382e-4
-1.138, 1.329e-4
-1.139, 1.376e-4
-1.140, 1.377e-4
-1.141, 1.386e-4
-1.142, 1.414e-4
-1.143, 1.379e-4
-1.144, 1.417e-4
-1.145, 1.397e-4
-1.146, 1.423e-4
-1.147, 1.433e-4
-1.148, 1.409e-4
-1.149, 1.444e-4
-1.150, 1.419e-4
-1.151, 1.464e-4
-1.152, 1.458e-4
-1.153, 1.453e-4
-1.154, 1.492e-4
-1.155, 1.446e-4
-1.156, 1.495e-4
-1.157, 1.498e-4
-1.158, 1.509e-4
-1.159, 1.544e-4
-1.160, 1.479e-4
-1.161, 1.531e-4
-1.162, 1.516e-4
-1.163, 1.531e-4
-1.164, 1.554e-4
-1.165, 1.515e-4
-1.166, 1.565e-4
-1.167, 1.538e-4
-1.168, 1.569e-4
-1.169, 1.582e-4
-1.170, 1.570e-4
-1.171, 1.614e-4
-1.172, 1.566e-4
-1.173, 1.612e-4
-1.174, 1.609e-4
-1.175, 1.615e-4
-1.176, 1.652e-4
-1.177, 1.589e-4
-1.178, 1.643e-4
-1.179, 1.627e-4
-1.180, 1.638e-4
-1.181, 1.674e-4
-1.182, 1.612e-4
-1.183, 1.669e-4
-1.184, 1.646e-4
-1.185, 1.656e-4
-1.186, 1.675e-4
-1.187, 1.642e-4
-1.188, 1.692e-4
-1.189, 1.648e-4
-1.190, 1.683e-4
-1.191, 1.682e-4
-1.192, 1.654e-4
-1.193, 1.731e-4
-1.194, 1.641e-4
-1.195, 1.720e-4
-1.196, 1.708e-4
-1.197, 1.718e-4
-1.198, 1.775e-4
-1.199, 1.707e-4
-1.200, 1.773e-4
-1.201, 1.754e-4
-1.202, 1.777e-4
-1.203, 1.799e-4
-1.204, 1.751e-4
-1.205, 1.803e-4
-1.206, 1.776e-4
-1.207, 1.814e-4
-1.208, 1.813e-4
-1.209, 1.792e-4
-1.210, 1.848e-4
-1.211, 1.801e-4
-1.212, 1.863e-4
-1.213, 1.846e-4
-1.214, 1.838e-4
-1.215, 1.901e-4
-1.216, 1.822e-4
-1.217, 1.892e-4
-1.218, 1.865e-4
-1.219, 1.891e-4
-1.220, 1.926e-4
-1.221, 1.879e-4
-1.222, 1.923e-4
-1.223, 1.887e-4
-1.224, 1.937e-4
-1.225, 1.947e-4
-1.226, 1.900e-4
-1.227, 1.963e-4
-1.228, 1.915e-4
-1.229, 1.965e-4
-1.230, 1.966e-4
-1.231, 1.948e-4
-1.232, 2.011e-4
-1.233, 1.943e-4
-1.234, 2.009e-4
-1.235, 1.983e-4
-1.236, 1.971e-4
-1.237, 2.032e-4
-1.238, 1.972e-4
-1.239, 2.033e-4
-1.240, 2.000e-4
-1.241, 2.057e-4
-1.242, 2.076e-4
-1.243, 2.032e-4
-1.244, 2.098e-4
-1.245, 2.046e-4
-1.246, 2.093e-4
-1.247, 2.095e-4
-1.248, 2.081e-4
-1.249, 2.157e-4
-1.250, 2.059e-4
-1.251, 2.125e-4
-1.252, 2.122e-4
-1.253, 2.147e-4
-1.254, 2.195e-4
-1.255, 2.122e-4
-1.256, 2.177e-4
-1.257, 2.162e-4
-1.258, 2.207e-4
-1.259, 2.225e-4
-1.260, 2.175e-4
-1.261, 2.238e-4
-1.262, 2.208e-4
-1.263, 2.251e-4
-1.264, 2.260e-4
-1.265, 2.243e-4
-1.266, 2.303e-4
-1.267, 2.235e-4
-1.268, 2.291e-4
-1.269, 2.300e-4
-1.270, 2.314e-4
-1.271, 2.372e-4
-1.272, 2.283e-4
-1.273, 2.372e-4
-1.274, 2.346e-4
-1.275, 2.354e-4
-1.276, 2.393e-4
-1.277, 2.305e-4
-1.278, 2.390e-4
-1.279, 2.330e-4
-1.280, 2.388e-4
-1.281, 2.404e-4
-1.282, 2.352e-4
-1.283, 2.450e-4
-1.284, 2.357e-4
-1.285, 2.431e-4
-1.286, 2.431e-4
-1.287, 2.398e-4
-1.288, 2.508e-4
-1.289, 2.386e-4
-1.290, 2.476e-4
-1.291, 2.456e-4
-1.292, 2.448e-4
-1.293, 2.508e-4
-1.294, 2.392e-4
-1.295, 2.494e-4
-1.296, 2.447e-4
-1.297, 2.466e-4
-1.298, 2.498e-4
-1.299, 2.403e-4
-1.300, 2.514e-4
-1.301, 2.463e-4
-1.302, 2.497e-4
-1.303, 2.517e-4
-1.304, 2.459e-4
-1.305, 2.556e-4
-1.306, 2.487e-4
-1.307, 2.538e-4
-1.308, 2.551e-4
-1.309, 2.546e-4
-1.310, 2.623e-4
-1.311, 2.541e-4
-1.312, 2.607e-4
-1.313, 2.597e-4
-1.314, 2.605e-4
-1.315, 2.654e-4
-1.316, 2.582e-4
-1.317, 2.651e-4
-1.318, 2.620e-4
-1.319, 2.632e-4
-1.320, 2.663e-4
-1.321, 2.588e-4
-1.322, 2.674e-4
-1.323, 2.607e-4
-1.324, 2.702e-4
-1.325, 2.710e-4
-1.326, 2.650e-4
-1.327, 2.764e-4
-1.328, 2.666e-4
-1.329, 2.745e-4
-1.330, 2.740e-4
-1.331, 2.730e-4
-1.332, 2.810e-4
-1.333, 2.710e-4
-1.334, 2.808e-4
-1.335, 2.763e-4
-1.336, 2.747e-4
-1.337, 2.842e-4
-1.338, 2.785e-4
-1.339, 2.874e-4
-1.340, 2.809e-4
-1.341, 2.860e-4
-1.342, 2.882e-4
-1.343, 2.847e-4
-1.344, 2.957e-4
-1.345, 2.858e-4
-1.346, 2.930e-4
-1.347, 2.902e-4
-1.348, 2.888e-4
-1.349, 2.974e-4
-1.350, 2.902e-4
-1.351, 2.950e-4
-1.352, 2.969e-4
-1.353, 2.957e-4
-1.354, 3.032e-4
-1.355, 2.982e-4
-1.356, 3.046e-4
-1.357, 3.012e-4
-1.358, 3.035e-4
-1.359, 3.064e-4
-1.360, 3.026e-4
-1.361, 3.121e-4
-1.362, 3.016e-4
-1.363, 3.081e-4
-1.364, 3.093e-4
-1.365, 3.024e-4
-1.366, 3.129e-4
-1.367, 3.025e-4
-1.368, 3.121e-4
-1.369, 3.103e-4
-1.370, 3.107e-4
-1.371, 3.195e-4
-1.372, 3.102e-4
-1.373, 3.194e-4
-1.374, 3.173e-4
-1.375, 3.145e-4
-1.376, 3.220e-4
-1.377, 3.156e-4
-1.378, 3.248e-4
-1.379, 3.203e-4
-1.380, 3.247e-4
-1.381, 3.284e-4
-1.382, 3.238e-4
-1.383, 3.354e-4
-1.384, 3.252e-4
-1.385, 3.325e-4
-1.386, 3.352e-4
-1.387, 3.309e-4
-1.388, 3.394e-4
-1.389, 3.302e-4
-1.390, 3.378e-4
-1.391, 3.401e-4
-1.392, 3.453e-4
-1.393, 3.504e-4
-1.394, 3.453e-4
-1.395, 3.503e-4
-1.396, 3.484e-4
-1.397, 3.538e-4
-1.398, 3.565e-4
-1.399, 3.512e-4
-1.400, 3.592e-4
-1.399, 3.479e-4
-1.398, 3.522e-4
-1.397, 3.482e-4
-1.396, 3.401e-4
-1.395, 3.462e-4
-1.394, 3.341e-4
-1.393, 3.403e-4
-1.392, 3.366e-4
-1.391, 3.298e-4
-1.390, 3.357e-4
-1.389, 3.262e-4
-1.388, 3.292e-4
-1.387, 3.233e-4
-1.386, 3.227e-4
-1.385, 3.246e-4
-1.384, 3.187e-4
-1.383, 3.240e-4
-1.382, 3.141e-4
-1.381, 3.174e-4
-1.380, 3.167e-4
-1.379, 3.098e-4
-1.378, 3.133e-4
-1.377, 3.014e-4
-1.376, 3.064e-4
-1.375, 3.026e-4
-1.374, 2.965e-4
-1.373, 3.018e-4
-1.372, 2.904e-4
-1.371, 2.923e-4
-1.370, 2.893e-4
-1.369, 2.841e-4
-1.368, 2.882e-4
-1.367, 2.806e-4
-1.366, 2.841e-4
-1.365, 2.783e-4
-1.364, 2.775e-4
-1.363, 2.778e-4
-1.362, 2.717e-4
-1.361, 2.773e-4
-1.360, 2.697e-4
-1.359, 2.749e-4
-1.358, 2.711e-4
-1.357, 2.680e-4
-1.356, 2.739e-4
-1.355, 2.602e-4
-1.354, 2.693e-4
-1.353, 2.637e-4
-1.352, 2.625e-4
-1.351, 2.656e-4
-1.350, 2.548e-4
-1.349, 2.610e-4
-1.348, 2.547e-4
-1.347, 2.546e-4
-1.346, 2.571e-4
-1.345, 2.480e-4
-1.344, 2.547e-4
-1.343, 2.452e-4
-1.342, 2.464e-4
-1.341, 2.476e-4
-1.340, 2.383e-4
-1.339, 2.450e-4
-1.338, 2.284e-4
-1.337, 2.342e-4
-1.336, 2.314e-4
-1.335, 2.267e-4
-1.334, 2.307e-4
-1.333, 2.225e-4
-1.332, 2.270e-4
-1.331, 2.221e-4
-1.330, 2.192e-4
-1.329, 2.232e-4
-1.328, 2.138e-4
-1.327, 2.216e-4
-1.326, 2.124e-4
-1.325, 2.140e-4
-1.324, 2.147e-4
-1.323, 2.070e-4
-1.322, 2.141e-4
-1.321, 2.029e-4
-1.320, 2.063e-4
-1.319, 2.047e-4
-1.318, 1.971e-4
-1.317, 2.040e-4
-1.316, 1.903e-4
-1.315, 1.942e-4
-1.314, 1.934e-4
-1.313, 1.872e-4
-1.312, 1.903e-4
-1.311, 1.815e-4
-1.310, 1.848e-4
-1.309, 1.806e-4
-1.308, 1.789e-4
-1.307, 1.815e-4
-1.306, 1.743e-4
-1.305, 1.772e-4
-1.304, 1.708e-4
-1.303, 1.677e-4
-1.302, 1.696e-4
-1.301, 1.624e-4
-1.300, 1.664e-4
-1.299, 1.615e-4
-1.298, 1.604e-4
-1.297, 1.629e-4
-1.296, 1.569e-4
-1.295, 1.598e-4
-1.294, 1.538e-4
-1.293, 1.555e-4
-1.292, 1.555e-4
-1.291, 1.503e-4
-1.290, 1.538e-4
-1.289, 1.465e-4
-1.288, 1.496e-4
-1.287, 1.482e-4
-1.286, 1.441e-4
-1.285, 1.472e-4
-1.284, 1.392e-4
-1.283, 1.459e-4
-1.282, 1.375e-4
-1.281, 1.376e-4
-1.280, 1.402e-4
-1.279, 1.348e-4
-1.278, 1.387e-4
-1.277, 1.322e-4
-1.276, 1.352e-4
-1.275, 1.343e-4
-1.274, 1.283e-4
-1.273, 1.332e-4
-1.272, 1.253e-4
-1.271, 1.282e-4
-1.270, 1.253e-4
-1.269, 1.190e-4
-1.268, 1.241e-4
-1.267, 1.155e-4
-1.266, 1.185e-4
-1.265, 1.147e-4
-1.264, 1.145e-4
-1.263, 1.173e-4
-1.262, 1.097e-4
-1.261, 1.149e-4
-1.260, 1.073e-4
-1.259, 1.083e-4
-1.258, 1.090e-4
-1.257, 1.031e-4
-1.256, 1.078e-4
-1.255, 9.989e-5
-1.254, 1.020e-4
-1.253, 1.016e-4
-1.252, 9.773e-5
-1.251, 1.010e-4
-1.250, 9.433e-5
-1.249, 9.829e-5
-1.248, 9.410e-5
-1.247, 9.282e-5
-1.246, 9.523e-5
-1.245, 9.036e-5
-1.244, 9.483e-5
-1.243, 8.823e-5
-1.242, 8.991e-5
-1.241, 8.967e-5
-1.240, 8.547e-5
-1.239, 9.039e-5
-1.238, 8.425e-5
-1.237, 8.726e-5
-1.236, 8.603e-5
-1.235, 8.344e-5
-1.234, 8.594e-5
-1.233, 8.021e-5
-1.232, 8.296e-5
-1.231, 8.114e-5
-1.230, 7.970e-5
-1.229, 8.250e-5
-1.228, 7.658e-5
-1.227, 8.142e-5
-1.226, 7.467e-5
-1.225, 7.497e-5
-1.224, 7.724e-5
-1.223, 7.229e-5
-1.222, 7.610e-5
-1.221, 6.982e-5
-1.220, 6.996e-5
-1.219, 7.145e-5
-1.218, 6.665e-5
-1.217, 7.083e-5
-1.216, 6.543e-5
-1.215, 6.628e-5
-1.214, 6.578e-5
-1.213, 6.379e-5
-1.212, 6.607e-5
-1.211, 6.138e-5
-1.210, 6.495e-5
-1.209, 6.130e-5
-1.208, 6.120e-5
-1.207, 6.228e-5
-1.206, 5.824e-5
-1.205, 6.198e-5
-1.204, 5.714e-5
-1.203, 5.851e-5
-1.202, 5.864e-5
-1.201, 5.621e-5
-1.200, 5.934e-5
-1.199, 5.542e-5
-1.198, 5.694e-5
-1.197, 5.527e-5
-1.196, 5.377e-5
-1.195, 5.466e-5
-1.194, 5.031e-5
-1.193, 5.329e-5
-1.192, 4.915e-5
-1.191, 4.947e-5
-1.190, 4.991e-5
-1.189, 4.726e-5
-1.188, 4.990e-5
-1.187, 4.596e-5
-1.186, 4.784e-5
-1.185, 4.725e-5
-1.184, 4.460e-5
-1.183, 4.694e-5
-1.182, 4.274e-5
-1.181, 4.490e-5
-1.180, 4.393e-5
-1.179, 4.316e-5
-1.178, 4.435e-5
-1.177, 4.033e-5
-1.176, 4.248e-5
-1.175, 4.090e-5
-1.174, 4.039e-5
-1.173, 4.166e-5
-1.172, 3.832e-5
-1.171, 4.092e-5
-1.170, 3.746e-5
-1.169, 3.831e-5
-1.168, 3.888e-5
-1.167, 3.634e-5
-1.166, 3.899e-5
-1.165, 3.531e-5
-1.164, 3.666e-5
-1.163, 3.613e-5
-1.162, 3.485e-5
-1.161, 3.666e-5
-1.160, 3.248e-5
-1.159, 3.384e-5
-1.158, 3.341e-5
-1.157, 3.241e-5
-1.156, 3.316e-5
-1.155, 3.044e-5
-1.154, 3.235e-5
-1.153, 3.028e-5
-1.152, 3.049e-5
-1.151, 3.124e-5
-1.150, 2.936e-5
-1.149, 3.112e-5
-1.148, 2.815e-5
-1.147, 2.876e-5
-1.146, 2.884e-5
-1.145, 2.781e-5
-1.144, 2.860e-5
-1.143, 2.667e-5
-1.142, 2.710e-5
-1.141, 2.645e-5
-1.140, 2.595e-5
-1.139, 2.714e-5
-1.138, 2.495e-5
-1.137, 2.605e-5
-1.136, 2.518e-5
-1.135, 2.493e-5
-1.134, 2.543e-5
-1.133, 2.371e-5
-1.132, 2.506e-5
-1.131, 2.276e-5
-1.130, 2.411e-5
-1.129, 2.412e-5
-1.128, 2.216e-5
-1.127, 2.376e-5
-1.126, 2.142e-5
-1.125, 2.234e-5
-1.124, 2.216e-5
-1.123, 2.095e-5
-1.122, 2.193e-5
-1.121, 2.032e-5
-1.120, 2.152e-5
-1.119, 2.065e-5
-1.118, 2.039e-5
-1.117, 2.084e-5
-1.116, 1.864e-5
-1.115, 2.041e-5
-1.114, 1.833e-5
-1.113, 1.919e-5
-1.112, 1.922e-5
-1.111, 1.777e-5
-1.110, 1.921e-5
-1.109, 1.663e-5
-1.108, 1.732e-5
-1.107, 1.730e-5
-1.106, 1.580e-5
-1.105, 1.698e-5
-1.104, 1.500e-5
-1.103, 1.601e-5
-1.102, 1.571e-5
-1.101, 1.509e-5
-1.100, 1.528e-5
-1.099, 1.390e-5
-1.098, 1.469e-5
-1.097, 1.387e-5
-1.096, 1.359e-5
-1.095, 1.454e-5
-1.094, 1.332e-5
-1.093, 1.383e-5
-1.092, 1.221e-5
-1.091, 1.242e-5
-1.090, 1.265e-5
-1.089, 1.140e-5
-1.088, 1.239e-5
-1.087, 1.095e-5
-1.086, 1.129e-5
-1.085, 1.128e-5
-1.084, 1.064e-5
-1.083, 1.099e-5
-1.082, 1.017e-5
-1.081, 1.039e-5
-1.080, 9.716e-6
-1.079, 9.263e-6
-1.078, 1.014e-5
-1.077, 8.681e-6
-1.076, 9.420e-6
-1.075, 8.312e-6
-1.074, 8.395e-6
-1.073, 8.592e-6
-1.072, 7.565e-6
-1.071, 8.682e-6
-1.070, 7.418e-6
-1.069, 7.328e-6
-1.068, 7.641e-6
-1.067, 6.497e-6
-1.066, 6.933e-6
-1.065, 5.500e-6
-1.064, 5.849e-6
-1.063, 6.343e-6
-1.062, 5.377e-6
-1.061, 6.208e-6
-1.060, 4.801e-6
-1.059, 5.460e-6
-1.058, 4.696e-6
-1.057, 4.169e-6
-1.056, 5.090e-6
-1.055, 3.797e-6
-1.054, 4.681e-6
-1.053, 3.341e-6
-1.052, 3.376e-6
-1.051, 3.770e-6
-1.050, 2.927e-6
-1.049, 3.762e-6
-1.048, 2.258e-6
-1.047, 2.567e-6
-1.046, 2.536e-6
-1.045, 1.705e-6
-1.044, 2.435e-6
-1.043, 1.433e-6
-1.042, 1.662e-6
-1.041, 1.475e-6
-1.040, 8.917e-7
-1.039, 1.515e-6
-1.038, 2.820e-7
-1.037, 7.999e-7
-1.036, -2.597e-7
-1.035, -4.106e-7
-1.034, -1.028e-7
-1.033, -1.194e-6
-1.032, -6.514e-7
-1.031, -1.597e-6
-1.030, -1.343e-6
-1.029, -1.211e-6
-1.028, -1.809e-6
-1.027, -1.228e-6
-1.026, -2.253e-6
-1.025, -2.213e-6
-1.024, -1.957e-6
-1.023, -2.961e-6
-1.022, -2.550e-6
-1.021, -3.970e-6
-1.020, -3.432e-6
-1.019, -4.359e-6
-1.018, -3.999e-6
-1.017, -3.866e-6
-1.016, -4.898e-6
-1.015, -4.524e-6
-1.014, -5.219e-6
-1.013, -5.429e-6
-1.012, -5.274e-6
-1.011, -6.004e-6
-1.010, -5.806e-6
-1.009, -6.607e-6
-1.008, -6.559e-6
-1.007, -6.329e-6
-1.006, -6.748e-6
-1.005, -6.848e-6
-1.004, -7.676e-6
-1.003, -7.215e-6
-1.002, -7.725e-6
-1.001, -8.036e-6
-1.000, -6.293e-6
-1.001, -4.441e-6
-1.002, -2.260e-6
-1.003, -1.470e-6
-1.004, -1.304e-7
-1.005, 9.509e-7
-1.006, 1.306e-6
-1.007, 2.760e-6
-1.008, 3.230e-6
-1.009, 4.240e-6
-1.010, 5.347e-6
-1.011, 5.315e-6
-1.012, 6.637e-6
-1.013, 6.330e-6
-1.014, 7.313e-6
-1.015, 8.104e-6
-1.016, 8.299e-6
-1.017, 9.336e-6
-1.018, 9.122e-6
-1.019, 1.047e-5
-1.020, 1.023e-5
-1.021, 1.085e-5
-1.022, 1.196e-5
-1.023, 1.167e-5
-1.024, 1.309e-5
-1.025, 1.286e-5
-1.026, 1.370e-5
-1.027, 1.437e-5
-1.028, 1.425e-5
-1.029, 1.556e-5
-1.030, 1.542e-5
-1.031, 1.643e-5
-1.032, 1.710e-5
-1.033, 1.708e-5
-1.034, 1.847e-5
-1.035, 1.797e-5
-1.036, 1.933e-5
-1.037, 1.940e-5
-1.038, 2.008e-5
-1.039, 2.119e-5
-1.040, 2.033e-5
-1.041, 2.216e-5
-1.042, 2.173e-5
-1.043, 2.254e-5
-1.044, 2.345e-5
-1.045, 2.287e-5
-1.046, 2.453e-5
-1.047, 2.383e-5
-1.048, 2.469e-5
-1.049, 2.552e-5
-1.050, 2.528e-5
-1.051, 2.673e-5
-1.052, 2.597e-5
-1.053, 2.731e-5
-1.054, 2.714e-5
-1.055, 2.741e-5
-1.056, 2.851e-5
-1.057, 2.767e-5
-1.058, 2.905e-5
-1.059, 2.873e-5
-1.060, 2.907e-5
-1.061, 2.994e-5
-1.062, 2.954e-5
-1.063, 3.110e-5
-1.064, 3.030e-5
-1.065, 3.094e-5
-1.066, 3.211e-5
-1.067, 3.121e-5
-1.068, 3.277e-5
-1.069, 3.196e-5
-1.070, 3.295e-5
-1.071, 3.307e-5
-1.072, 3.275e-5
-1.073, 3.453e-5
-1.074, 3.315e-5
-1.075, 3.471e-5
-1.076, 3.428e-5
-1.077, 3.470e-5
-1.078, 3.590e-5
-1.079, 3.482e-5
-1.080, 3.625e-5
-1.081, 3.563e-5
-1.082, 3.648e-5
-1.083, 3.728e-5
-1.084, 3.652e-5
-1.085, 3.803e-5
-1.086, 3.676e-5
-1.087, 3.786e-5
-1.088, 3.833e-5
-1.089, 3.802e-5
-1.090, 3.937e-5
-1.091, 3.820e-5
-1.092, 3.957e-5
-1.093, 3.935e-5
-1.094, 3.939e-5
-1.095, 4.094e-5
-1.096, 3.939e-5
-1.097, 4.178e-5
-1.098, 4.028e-5
-1.099, 4.102e-5
-1.100, 4.218e-5
-1.101, 4.092e-5
-1.102, 4.270e-5
-1.103, 4.161e-5
-1.104, 4.265e-5
-1.105, 4.345e-5
-1.106, 4.247e-5
-1.107, 4.437e-5
-1.108, 4.235e-5
-1.109, 4.391e-5
-1.110, 4.377e-5
-1.111, 4.350e-5
-1.112, 4.547e-5
-1.113, 4.329e-5
-1.114, 4.621e-5
-1.115, 4.533e-5
-1.116, 4.527e-5
-1.117, 4.675e-5
-1.118, 4.468e-5
-1.119, 4.730e-5
-1.120, 4.560e-5
-1.121, 4.653e-5
-1.122, 4.749e-5
-1.123, 4.612e-5
-1.124, 4.861e-5
-1.125, 4.612e-5
-1.126, 4.766e-5
-1.127, 4.816e-5
-1.128, 4.749e-5
-1.129, 4.969e-5
-1.130, 4.735e-5
-1.131, 5.000e-5
-1.132, 4.826e-5
-1.133, 4.853e-5
-1.134, 5.048e-5
-1.135, 4.835e-5
-1.136, 5.134e-5
-1.137, 4.906e-5
-1.138, 5.078e-5
-1.139, 5.144e-5
-1.140, 4.996e-5
-1.141, 5.226e-5
-1.142, 5.025e-5
-1.143, 5.226e-5
-1.144, 5.204e-5
-1.145, 5.094e-5
-1.146, 5.340e-5
-1.147, 5.103e-5
-1.148, 5.350e-5
-1.149, 5.202e-5
-1.150, 5.200e-5
-1.151, 5.407e-5
-1.152, 5.165e-5
-1.153, 5.480e-5
-1.154, 5.241e-5
-1.155, 5.373e-5
-1.156, 5.448e-5
-1.157, 5.237e-5
-1.158, 5.473e-5
-1.159, 5.309e-5
-1.160, 5.404e-5
-1.161, 5.527e-5
-1.162, 5.436e-5
-1.163, 5.636e-5
-1.164, 5.414e-5
-1.165, 5.655e-5
-1.166, 5.625e-5
-1.167, 5.633e-5
-1.168, 5.793e-5
-1.169, 5.562e-5
-1.170, 5.745e-5
-1.171, 5.603e-5
-1.172, 5.676e-5
-1.173, 5.838e-5
-1.174, 5.585e-5
-1.175, 5.879e-5
-1.176, 5.665e-5
-1.177, 5.846e-5
-1.178, 5.892e-5
-1.179, 5.782e-5
-1.180, 5.974e-5
-1.181, 5.776e-5
-1.182, 5.950e-5
-1.183, 5.909e-5
-1.184, 5.894e-5
-1.185, 6.111e-5
-1.186, 5.866e-5
-1.187, 6.125e-5
-1.188, 5.994e-5
-1.189, 6.029e-5
-1.190, 6.218e-5
-1.191, 5.995e-5
-1.192, 6.301e-5
-1.193, 6.047e-5
-1.194, 6.152e-5
-1.195, 6.304e-5
-1.196, 6.134e-5
-1.197, 6.398e-5
-1.198, 6.126e-5
-1.199, 6.349e-5
-1.200, 6.421e-5
-1.201, 6.300e-5
-1.202, 6.531e-5
-1.203, 6.274e-5
-1.204, 6.494e-5
-1.205, 6.406e-5
-1.206, 6.430e-5
-1.207, 6.620e-5
-1.208, 6.400e-5
-1.209, 6.691e-5
-1.210, 6.566e-5
-1.211, 6.685e-5
-1.212, 6.806e-5
-1.213, 6.575e-5
-1.214, 6.842e-5
-1.215, 6.697e-5
-1.216, 6.741e-5
-1.217, 6.897e-5
-1.218, 6.667e-5
-1.219, 6.984e-5
-1.220, 6.754e-5
-1.221, 6.887e-5
-1.222, 6.947e-5
-1.223, 6.854e-5
-1.224, 7.079e-5
-1.225, 6.924e-5
-1.226, 7.136e-5
-1.227, 7.033e-5
-1.228, 7.079e-5
-1.229, 7.296e-5
-1.230, 7.042e-5
-1.231, 7.288e-5
-1.232, 7.174e-5
-1.233, 7.297e-5
-1.234, 7.392e-5
-1.235, 7.251e-5
-1.236, 7.584e-5
-1.237, 7.368e-5
-1.238, 7.563e-5
-1.239, 7.652e-5
-1.240, 7.524e-5
-1.241, 7.785e-5
-1.242, 7.600e-5
-1.243, 7.942e-5
-1.244, 7.799e-5
-1.245, 7.856e-5
-1.246, 8.056e-5
-1.247, 7.885e-5
-1.248, 8.131e-5
-1.249, 7.941e-5
-1.250, 8.091e-5
-1.251, 8.181e-5
-1.252, 7.948e-5
-1.253, 8.250e-5
-1.254, 8.093e-5
-1.255, 8.173e-5
-1.256, 8.278e-5
-1.257, 8.079e-5
-1.258, 8.372e-5
-1.259, 8.145e-5
-1.260, 8.333e-5
-1.261, 8.366e-5
-1.262, 8.225e-5
-1.263, 8.497e-5
-1.264, 8.313e-5
-1.265, 8.538e-5
-1.266, 8.494e-5
-1.267, 8.463e-5
-1.268, 8.759e-5
-1.269, 8.584e-5
-1.270, 8.814e-5
-1.271, 8.696e-5
-1.272, 8.756e-5
-1.273, 9.064e-5
-1.274, 8.986e-5
-1.275, 9.398e-5
-1.276, 9.361e-5
-1.277, 9.410e-5
-1.278, 9.830e-5
-1.279, 9.562e-5
-1.280, 9.897e-5
-1.281, 9.786e-5
-1.282, 1.003e-4
-1.283, 1.013e-4
-1.284, 1.004e-4
-1.285, 1.032e-4
-1.286, 1.022e-4
-1.287, 1.041e-4
-1.288, 1.053e-4
-1.289, 1.030e-4
-1.290, 1.070e-4
-1.291, 1.052e-4
-1.292, 1.084e-4
-1.293, 1.086e-4
-1.294, 1.108e-4
-1.295, 1.155e-4
-1.296, 1.114e-4
-1.297, 1.145e-4
-1.298, 1.168e-4
-1.299, 1.152e-4
-1.300, 1.211e-4
-1.301, 1.158e-4
-1.302, 1.137e-4
-1.303, 1.153e-4
-1.304, 1.104e-4
-1.305, 1.169e-4
-1.306, 1.140e-4
-1.307, 1.193e-4
-1.308, 1.230e-4
-1.309, 1.156e-4
-1.310, 1.242e-4
-1.311, 1.191e-4
-1.312, 1.201e-4
-1.313, 1.209e-4
-1.314, 1.166e-4
-1.315, 1.216e-4
-1.316, 1.139e-4
-1.317, 1.163e-4
-1.318, 1.153e-4
-1.319, 1.115e-4
-1.320, 1.131e-4
-1.321, 1.085e-4
-1.322, 1.115e-4
-1.323, 1.068e-4
-1.324, 1.053e-4
-1.325, 1.040e-4
-1.326, 9.986e-5
-1.327, 1.011e-4
-1.328, 9.448e-5
-1.329, 9.785e-5
-1.330, 9.553e-5
-1.331, 9.538e-5
-1.332, 9.766e-5
-1.333, 9.424e-5
-1.334, 9.369e-5
-1.335, 9.070e-5
-1.336, 8.986e-5
-1.337, 8.921e-5
-1.338, 8.940e-5
-1.339, 8.896e-5
-1.340, 8.917e-5
-1.341, 8.988e-5
-1.342, 8.997e-5
-1.343, 9.125e-5
-1.344, 9.109e-5
-1.345, 9.179e-5
-1.346, 9.255e-5
-1.347, 9.282e-5
-1.348, 9.384e-5
-1.349, 9.417e-5
-1.350, 9.490e-5
-1.351, 9.570e-5
-1.352, 9.606e-5
-1.353, 9.736e-5
-1.354, 9.736e-5
-1.355, 9.934e-5
-1.356, 9.939e-5
-1.357, 1.002e-4
-1.358, 1.014e-4
-1.359, 1.019e-4
-1.360, 1.033e-4
-1.361, 1.036e-4
-1.362, 1.048e-4
-1.363, 1.057e-4
-1.364, 1.058e-4
-1.365, 1.074e-4
-1.366, 1.076e-4
-1.367, 1.088e-4
-1.368, 1.101e-4
-1.369, 1.106e-4
-1.370, 1.124e-4
-1.371, 1.124e-4
-1.372, 1.138e-4
-1.373, 1.140e-4
-1.374, 1.149e-4
-1.375, 1.163e-4
-1.376, 1.168e-4
-1.377, 1.188e-4
-1.378, 1.191e-4
-1.379, 1.196e-4
-1.380, 1.212e-4
-1.381, 1.217e-4
-1.382, 1.236e-4
-1.383, 1.240e-4
-1.384, 1.249e-4
-1.385, 1.268e-4
-1.386, 1.269e-4
-1.387, 1.292e-4
-1.388, 1.298e-4
-1.389, 1.311e-4
-1.390, 1.324e-4
-1.391, 1.337e-4
-1.392, 1.350e-4
-1.393, 1.347e-4
-1.394, 1.367e-4
-1.395, 1.369e-4
-1.396, 1.385e-4
-1.397, 1.403e-4
-1.398, 1.402e-4
-1.399, 1.429e-4
-1.400, 1.414e-4
-1.399, 1.394e-4
-1.398, 1.387e-4
-1.397, 1.361e-4
-1.396, 1.357e-4
-1.395, 1.337e-4
-1.394, 1.331e-4
-1.393, 1.322e-4
-1.392, 1.309e-4
-1.391, 1.309e-4
-1.390, 1.286e-4
-1.389, 1.274e-4
-1.388, 1.260e-4
-1.387, 1.249e-4
-1.386, 1.242e-4
-1.385, 1.217e-4
-1.384, 1.218e-4
-1.383, 1.201e-4
-1.382, 1.192e-4
-1.381, 1.186e-4
-1.380, 1.171e-4
-1.379, 1.171e-4
-1.378, 1.156e-4
-1.377, 1.150e-4
-1.376, 1.133e-4
-1.375, 1.118e-4
-1.374, 1.118e-4
-1.373, 1.104e-4
-1.372, 1.097e-4
-1.371, 1.083e-4
-1.370, 1.072e-4
-1.369, 1.062e-4
-1.368, 1.047e-4
-1.367, 1.041e-4
-1.366, 1.021e-4
-1.365, 1.010e-4
-1.364, 9.961e-5
-1.363, 9.816e-5
-1.362, 9.837e-5
-1.361, 9.752e-5
-1.360, 9.647e-5
-1.359, 9.554e-5
-1.358, 9.404e-5
-1.357, 9.352e-5
-1.356, 9.211e-5
-1.355, 9.154e-5
-1.354, 9.037e-5
-1.353, 8.913e-5
-1.352, 8.871e-5
-1.351, 8.736e-5
-1.350, 8.678e-5
-1.349, 8.574e-5
-1.348, 8.416e-5
-1.347, 8.413e-5
-1.346, 8.241e-5
-1.345, 8.206e-5
-1.344, 8.069e-5
-1.343, 8.013e-5
-1.342, 7.943e-5
-1.341, 7.778e-5
-1.340, 7.742e-5
-1.339, 7.568e-5
-1.338, 7.490e-5
-1.337, 7.449e-5
-1.336, 7.346e-5
-1.335, 7.284e-5
-1.334, 7.148e-5
-1.333, 7.063e-5
-1.332, 6.956e-5
-1.331, 6.895e-5
-1.330, 6.870e-5
-1.329, 6.718e-5
-1.328, 6.681e-5
-1.327, 6.542e-5
-1.326, 6.455e-5
-1.325, 6.386e-5
-1.324, 6.261e-5
-1.323, 6.232e-5
-1.322, 6.111e-5
-1.321, 6.045e-5
-1.320, 5.987e-5
-1.319, 5.891e-5
-1.318, 5.854e-5
-1.317, 5.747e-5
-1.316, 5.694e-5
-1.315, 5.654e-5
-1.314, 5.546e-5
-1.313, 5.473e-5
-1.312, 5.369e-5
-1.311, 5.302e-5
-1.310, 5.180e-5
-1.309, 5.107e-5
-1.308, 5.056e-5
-1.307, 4.951e-5
-1.306, 4.905e-5
-1.305, 4.762e-5
-1.304, 4.702e-5
-1.303, 4.650e-5
-1.302, 4.562e-5
-1.301, 4.542e-5
-1.300, 4.404e-5
-1.299, 4.347e-5
-1.298, 4.308e-5
-1.297, 4.230e-5
-1.296, 4.183e-5
-1.295, 4.082e-5
-1.294, 4.041e-5
-1.293, 3.979e-5
-1.292, 3.902e-5
-1.291, 3.867e-5
-1.290, 3.780e-5
-1.289, 3.734e-5
-1.288, 3.613e-5
-1.287, 3.541e-5
-1.286, 3.495e-5
-1.285, 3.409e-5
-1.284, 3.369e-5
-1.283, 3.265e-5
-1.282, 3.201e-5
-1.281, 3.152e-5
-1.280, 3.079e-5
-1.279, 3.048e-5
-1.278, 2.953e-5
-1.277, 2.906e-5
-1.276, 2.843e-5
-1.275, 2.770e-5
-1.274, 2.734e-5
-1.273, 2.661e-5
-1.272, 2.606e-5
-1.271, 2.541e-5
-1.270, 2.489e-5
-1.269, 2.444e-5
-1.268, 2.361e-5
-1.267, 2.318e-5
-1.266, 2.245e-5
-1.265, 2.196e-5
-1.264, 2.145e-5
-1.263, 2.079e-5
-1.262, 2.037e-5
-1.261, 1.976e-5
-1.260, 1.928e-5
-1.259, 1.880e-5
-1.258, 1.822e-5
-1.257, 1.783e-5
-1.256, 1.713e-5
-1.255, 1.673e-5
-1.254, 1.610e-5
-1.253, 1.554e-5
-1.252, 1.514e-5
-1.251, 1.453e-5
-1.250, 1.416e-5
-1.249, 1.359e-5
-1.248, 1.309e-5
-1.247, 1.271e-5
-1.246, 1.214e-5
-1.245, 1.178e-5
-1.244, 1.115e-5
-1.243, 1.076e-5
-1.242, 1.032e-5
-1.241, 9.761e-6
-1.240, 9.494e-6
-1.239, 8.875e-6
-1.238, 8.483e-6
-1.237, 8.098e-6
-1.236, 7.683e-6
-1.235, 7.349e-6
-1.234, 6.825e-6
-1.233, 6.520e-6
-1.232, 6.073e-6
-1.231, 5.696e-6
-1.230, 5.316e-6
-1.229, 4.832e-6
-1.228, 4.491e-6
-1.227, 4.094e-6
-1.226, 3.760e-6
-1.225, 3.427e-6
-1.224, 3.068e-6
-1.223, 2.721e-6
-1.222, 2.352e-6
-1.221, 2.016e-6
-1.220, 1.708e-6
-1.219, 1.342e-6
-1.218, 1.071e-6
-1.217, 7.269e-7
-1.216, 4.290e-7
-1.215, 1.399e-7
-1.214, -1.896e-7
-1.213, -4.777e-7
-1.212, -7.618e-7
-1.211, -1.061e-6
-1.210, -1.347e-6
-1.209, -1.610e-6
-1.208, -1.874e-6
-1.207, -2.138e-6
-1.206, -2.442e-6
-1.205, -2.659e-6
-1.204, -2.930e-6
-1.203, -3.174e-6
-1.202, -3.427e-6
-1.201, -3.714e-6
-1.200, -3.881e-6
-1.199, -4.142e-6
-1.198, -4.403e-6
-1.197, -4.616e-6
-1.196, -4.822e-6
-1.195, -5.015e-6
-1.194, -5.326e-6
-1.193, -5.550e-6
-1.192, -5.735e-6
-1.191, -5.927e-6
-1.190, -6.063e-6
-1.189, -6.398e-6
-1.188, -6.595e-6
-1.187, -6.770e-6
-1.186, -6.981e-6
-1.185, -7.158e-6
-1.184, -7.424e-6
-1.183, -7.536e-6
-1.182, -7.739e-6
-1.181, -7.891e-6
-1.180, -8.013e-6
-1.179, -8.295e-6
-1.178, -8.387e-6
-1.177, -8.651e-6
-1.176, -8.851e-6
-1.175, -9.006e-6
-1.174, -9.187e-6
-1.173, -9.220e-6
-1.172, -9.427e-6
-1.171, -9.487e-6
-1.170, -9.714e-6
-1.169, -9.964e-6
-1.168, -9.998e-6
-1.167, -1.026e-5
-1.166, -1.033e-5
-1.165, -1.047e-5
-1.164, -1.068e-5
-1.163, -1.083e-5
-1.162, -1.097e-5
-1.161, -1.098e-5
-1.160, -1.105e-5
-1.159, -1.118e-5
-1.158, -1.118e-5
-1.157, -1.139e-5
-1.156, -1.132e-5
-1.155, -1.158e-5
-1.154, -1.164e-5
-1.153, -1.174e-5
-1.152, -1.185e-5
-1.151, -1.177e-5
-1.150, -1.212e-5
-1.149, -1.216e-5
-1.148, -1.229e-5
-1.147, -1.232e-5
-1.146, -1.231e-5
-1.145, -1.245e-5
-1.144, -1.233e-5
-1.143, -1.251e-5
-1.142, -1.267e-5
-1.141, -1.268e-5
-1.140, -1.282e-5
-1.139, -1.261e-5
-1.138, -1.285e-5
-1.137, -1.291e-5
-1.136, -1.286e-5
-1.135, -1.297e-5
-1.134, -1.290e-5
-1.133, -1.306e-5
-1.132, -1.300e-5
-1.131, -1.312e-5
-1.130, -1.326e-5
-1.129, -1.320e-5
-1.128, -1.339e-5
-1.127, -1.340e-5
-1.126, -1.354e-5
-1.125, -1.352e-5
-1.124, -1.349e-5
-1.123, -1.366e-5
-1.122, -1.364e-5
-1.121, -1.383e-5
-1.120, -1.385e-5
-1.119, -1.387e-5
-1.118, -1.403e-5
-1.117, -1.407e-5
-1.116, -1.415e-5
-1.115, -1.406e-5
-1.114, -1.411e-5
-1.113, -1.437e-5
-1.112, -1.416e-5
-1.111, -1.424e-5
-1.110, -1.422e-5
-1.109, -1.437e-5
-1.108, -1.443e-5
-1.107, -1.429e-5
-1.106, -1.449e-5
-1.105, -1.442e-5
-1.104, -1.459e-5
-1.103, -1.463e-5
-1.102, -1.452e-5
-1.101, -1.465e-5
-1.100, -1.456e-5
-1.099, -1.471e-5
-1.098, -1.461e-5
-1.097, -1.466e-5
-1.096, -1.480e-5
-1.095, -1.466e-5
-1.094, -1.499e-5
-1.093, -1.482e-5
-1.092, -1.476e-5
-1.091, -1.479e-5
-1.090, -1.466e-5
-1.089, -1.496e-5
-1.088, -1.485e-5
-1.087, -1.499e-5
-1.086, -1.520e-5
-1.085, -1.511e-5
-1.084, -1.542e-5
-1.083, -1.532e-5
-1.082, -1.544e-5
-1.081, -1.523e-5
-1.080, -1.533e-5
-1.079, -1.551e-5
-1.078, -1.534e-5
-1.077, -1.551e-5
-1.076, -1.557e-5
-1.075, -1.532e-5
-1.074, -1.542e-5
-1.073, -1.542e-5
-1.072, -1.563e-5
-1.071, -1.560e-5
-1.070, -1.574e-5
-1.069, -1.596e-5
-1.068, -1.575e-5
-1.067, -1.592e-5
-1.066, -1.584e-5
-1.065, -1.581e-5
-1.064, -1.608e-5
-1.063, -1.601e-5
-1.062, -1.618e-5
-1.061, -1.610e-5
-1.060, -1.625e-5
-1.059, -1.624e-5
-1.058, -1.638e-5
-1.057, -1.644e-5
-1.056, -1.634e-5
-1.055, -1.667e-5
-1.054, -1.645e-5
-1.053, -1.643e-5
-1.052, -1.667e-5
-1.051, -1.658e-5
-1.050, -1.658e-5
-1.049, -1.654e-5
-1.048, -1.663e-5
-1.047, -1.676e-5
-1.046, -1.681e-5
-1.045, -1.712e-5
-1.044, -1.709e-5
-1.043, -1.713e-5
-1.042, -1.697e-5
-1.041, -1.697e-5
-1.040, -1.714e-5
-1.039, -1.715e-5
-1.038, -1.739e-5
-1.037, -1.730e-5
-1.036, -1.749e-5
-1.035, -1.761e-5
-1.034, -1.767e-5
-1.033, -1.790e-5
-1.032, -1.771e-5
-1.031, -1.796e-5
-1.030, -1.821e-5
-1.029, -1.792e-5
-1.028, -1.825e-5
-1.027, -1.819e-5
-1.026, -1.838e-5
-1.025, -1.845e-5
-1.024, -1.844e-5
-1.023, -1.856e-5
-1.022, -1.838e-5
-1.021, -1.867e-5
-1.020, -1.855e-5
-1.019, -1.865e-5
-1.018, -1.878e-5
-1.017, -1.867e-5
-1.016, -1.902e-5
-1.015, -1.872e-5
-1.014, -1.866e-5
-1.013, -1.879e-5
-1.012, -1.863e-5
-1.011, -1.897e-5
-1.010, -1.890e-5
-1.009, -1.917e-5
-1.008, -1.922e-5
-1.007, -1.918e-5
-1.006, -1.959e-5
-1.005, -1.944e-5
-1.004, -1.979e-5
-1.003, -1.964e-5
-1.002, -1.960e-5
-1.001, -1.983e-5
