Potential V vs RHE, Current mA cm-2
0.013299999999999867,-0.025337479380582808
0.012299999999999978,-0.037801085932393785
0.011299999999999866,-0.04480390686672571
0.010299999999999976,-0.04921780612230463
0.009299999999999864,-0.05228772964301176
0.008299999999999974,-0.05472103307877962
0.007299999999999862,-0.056673334672593376
0.006299999999999972,-0.05808804597245841
0.00529999999999986,-0.05938958036833424
0.0042999999999999705,-0.06066282053821278
0.0032999999999998586,-0.06189361936909534
0.0022999999999999687,-0.06271415192301708
0.0012999999999998568,-0.06378933251091451
0.00029999999999996696,-0.06410056899688482
-0.000700000000000145,-0.06509086690679033
-0.0017000000000000348,-0.06557186874874445
-0.0027000000000001467,-0.06598213502570531
-0.0037000000000000366,-0.06673193201463377
-0.0047000000000001485,-0.06687340314462027
-0.005700000000000038,-0.067410993438569
-0.00670000000000015,-0.06861349804345429
-0.00770000000000004,-0.06825982021848803
-0.008700000000000152,-0.06927841235439085
-0.009700000000000042,-0.0698018555353409
-0.010700000000000154,-0.07091947746223429
-0.011700000000000044,-0.07077800633224779
-0.012700000000000156,-0.07091947746223429
-0.013700000000000045,-0.07132974373919515
-0.014700000000000157,-0.07193806959813712
-0.015700000000000047,-0.07215027629311688
-0.01670000000000016,-0.07244736566608852
-0.01770000000000005,-0.0732537511070116
-0.01870000000000016,-0.0733952222369981
-0.01970000000000005,-0.0736498702709738
-0.020700000000000163,-0.07418746056492254
-0.021700000000000053,-0.07445625571189689
-0.022700000000000164,-0.07454113838988878
-0.023700000000000054,-0.07499384600584559
-0.024700000000000166,-0.07543240650880376
-0.025700000000000056,-0.075503142073797
-0.026700000000000168,-0.07588511412476057
-0.027700000000000058,-0.07632367462771873
-0.02870000000000017,-0.07748373789360806
-0.02970000000000006,-0.07739885521561615
-0.03070000000000017,-0.07783741571857432
-0.03170000000000006,-0.07803547530055543
-0.03270000000000017,-0.0787852722894839
-0.03370000000000006,-0.07813450509154597
-0.034700000000000175,-0.07847403580351359
-0.035700000000000065,-0.0791530972274488
-0.03670000000000018,-0.079549216391411
-0.03770000000000007,-0.07976142308639078
-0.03870000000000018,-0.08029901338033948
-0.03970000000000007,-0.079549216391411
-0.04070000000000018,-0.08032730760633679
-0.04170000000000007,-0.08069513254430169
-0.04270000000000018,-0.08109125170826391
-0.04370000000000007,-0.08154395932422072
-0.044700000000000184,-0.08168543045420722
-0.045700000000000074,-0.08154395932422072
-0.046700000000000186,-0.08236449187814243
-0.047700000000000076,-0.08253425723412625
-0.04870000000000019,-0.08250596300812894
-0.04970000000000008,-0.08319917154506282
-0.05070000000000019,-0.08444411748894404
-0.05170000000000008,-0.0848543837659049
-0.05270000000000019,-0.08517976736487386
-0.05370000000000008,-0.08568906343282526
-0.05470000000000019,-0.08581638744981313
-0.05570000000000008,-0.08597200569279828
-0.056700000000000195,-0.08595785857979962
-0.057700000000000085,-0.08683497958571595
-0.058700000000000196,-0.08689156803771056
-0.059700000000000086,-0.08730183431467141
-0.0607000000000002,-0.08793845439961068
-0.06170000000000009,-0.08786771883461743
-0.0627000000000002,-0.08860336871054725
-0.06370000000000009,-0.08873069272753512
-0.0647000000000002,-0.08885801674452294
-0.06570000000000009,-0.08939560703847166
-0.0667000000000002,-0.0891268118914973
-0.0677000000000001,-0.09017369825339744
-0.0687000000000002,-0.09028687515738665
-0.0697000000000001,-0.0906971414343475
-0.07070000000000021,-0.09040005206137584
-0.0717000000000001,-0.09001808001041228
-0.07270000000000021,-0.09031516938338394
-0.0737000000000001,-0.09122058461529756
-0.07470000000000021,-0.09165914511825574
-0.0757000000000001,-0.09255041323717071
-0.07670000000000021,-0.09301726796612615
-0.0777000000000001,-0.09325776888710322
-0.07870000000000021,-0.09337094579109242
-0.0797000000000001,-0.09400756587603168
-0.08070000000000022,-0.09457345039597771
-0.0817000000000001,-0.09502615801193452
-0.08270000000000022,-0.09594572035684679
-0.08370000000000011,-0.09635598663380765
-0.08470000000000022,-0.09644086931179956
-0.08570000000000011,-0.09669551734577525
-0.08670000000000022,-0.09768581525568078
-0.08770000000000011,-0.09846390647060656
-0.08870000000000022,-0.09794046328965648
-0.08970000000000011,-0.09884587852157012
-0.09070000000000022,-0.09863367182659036
-0.09170000000000011,-0.09925614479853098
-0.09270000000000023,-0.0997654408664824
-0.09370000000000012,-0.10004838312645539
-0.09470000000000023,-0.10064256187239871
-0.09570000000000012,-0.10119429927934608
-0.09670000000000023,-0.10157627133030964
-0.09770000000000012,-0.10242509811022867
-0.09870000000000023,-0.1023260683192381
-0.09970000000000012,-0.10324563066415038
-0.10070000000000023,-0.10324563066415038
-0.10170000000000012,-0.10334466045514094
-0.10270000000000024,-0.1047452246420073
-0.10370000000000013,-0.10464619485101677
-0.10470000000000024,-0.10494328422398842
-0.10570000000000013,-0.10579211100390745
-0.10670000000000024,-0.10604675903788315
-0.10770000000000013,-0.10675411468781566
-0.10870000000000024,-0.10758879435473605
-0.10970000000000013,-0.10806979619669015
-0.11070000000000024,-0.10838103268266046
-0.11170000000000013,-0.10939962481856329
-0.11270000000000002,-0.1097391555305309
-0.11370000000000013,-0.10980989109552414
-0.11470000000000002,-0.11033333427647421
-0.11570000000000014,-0.11112557260439863
-0.11670000000000003,-0.11186122248032847
-0.11770000000000014,-0.11229978298328659
-0.11870000000000003,-0.11337496357118404
-0.11970000000000014,-0.1133042280061908
-0.12070000000000003,-0.11478967487104909
-0.12170000000000014,-0.11517164692201265
-0.12270000000000003,-0.11619023905791546
-0.12370000000000014,-0.11710980140282773
-0.12470000000000003,-0.11722297830681694
-0.12570000000000014,-0.1181708348777265
-0.12670000000000003,-0.11855280692869007
-0.12770000000000015,-0.11918942701362933
-0.12870000000000004,-0.11941578082160774
-0.12970000000000015,-0.12064657965249034
-0.13070000000000004,-0.12115587572044173
-0.13170000000000015,-0.12148125931941069
-0.13270000000000004,-0.12269791103729463
-0.13370000000000015,-0.12349014936521906
-0.13470000000000004,-0.12463606551810973
-0.13570000000000015,-0.1252443913770517
-0.13670000000000004,-0.12508877313406655
-0.13770000000000016,-0.1259941883659802
-0.13870000000000005,-0.12687130937189647
-0.13970000000000016,-0.12697033916288702
-0.14070000000000005,-0.12845578602774532
-0.14170000000000016,-0.1294319368246522
-0.14270000000000005,-0.13021002803957799
-0.14370000000000016,-0.13076176544652532
-0.14470000000000005,-0.13141253264446326
-0.14570000000000016,-0.13275650837933503
-0.14670000000000005,-0.1336336293852514
-0.14770000000000016,-0.13458148595616093
-0.14870000000000005,-0.1351615175891056
-0.14970000000000017,-0.13656208177597198
-0.15070000000000006,-0.13782117483285186
-0.15170000000000017,-0.13865585449977225
-0.15270000000000006,-0.14039594939860625
-0.15370000000000017,-0.14161260111649018
-0.15470000000000006,-0.1423199567664227
-0.15570000000000017,-0.1423199567664227
-0.15670000000000006,-0.1428858412863687
-0.15770000000000017,-0.1437346680662877
-0.15870000000000006,-0.14387613919627423
-0.15970000000000018,-0.14514937936615277
-0.16070000000000007,-0.14571526388609876
-0.16170000000000018,-0.14684703292599083
-0.16270000000000007,-0.14826174422585583
-0.16370000000000018,-0.14896909987578838
-0.16470000000000007,-0.1502423400456669
-0.16570000000000018,-0.1508082245656129
-0.16670000000000007,-0.15151558021554543
-0.16770000000000018,-0.15321323377538346
-0.16870000000000007,-0.15491088733522151
-0.16970000000000018,-0.15703295428501907
-0.17070000000000007,-0.15929649236480314
-0.17170000000000019,-0.16085267479465465
-0.17270000000000008,-0.16113561705462764
-0.1737000000000002,-0.16141855931460067
-0.17470000000000008,-0.1626917994844792
-0.1757000000000002,-0.16396503965435774
-0.17670000000000008,-0.16608710660415532
-0.1777000000000002,-0.16637004886412832
-0.17870000000000008,-0.16764328903400685
-0.1797000000000002,-0.16990682711379093
-0.18070000000000008,-0.17118006728366944
-0.1817000000000002,-0.173019191973494
-0.18270000000000008,-0.17429243214337253
-0.1837000000000002,-0.17584861457322407
-0.1847000000000001,-0.1771218547431026
-0.1857000000000002,-0.17881950830294063
-0.1867000000000001,-0.1805171618627787
-0.1877000000000002,-0.18221481542261672
-0.1887000000000001,-0.18320511333252223
-0.1897000000000002,-0.18334658446250876
-0.1907000000000001,-0.1860345359322523
-0.1917000000000001,-0.18744924723211737
-0.19269999999999998,-0.18985425644188791
-0.1937000000000001,-0.192117794521672
-0.19469999999999998,-0.193532505821537
-0.1957000000000001,-0.19537163051136155
-0.19669999999999999,-0.1976351685911456
-0.1977000000000001,-0.19947429328097016
-0.1987,-0.20173783136075424
-0.1997000000000001,-0.20315254266061927
-0.2007,-0.20626490752032234
-0.2017000000000001,-0.2076796188201874
-0.2027,-0.2079625610801604
-0.2037000000000001,-0.20909433012005244
-0.2047,-0.21149933932982298
-0.2057000000000001,-0.21347993514963404
-0.2067,-0.2164508288793506
-0.2077000000000001,-0.21715818452928315
-0.2087,-0.21786554017921567
-0.2097000000000001,-0.22182673181883775
-0.2107,-0.2235243853786758
-0.2117000000000001,-0.22536351006850036
-0.2127,-0.2276270481482844
-0.2137000000000001,-0.23045647074801448
-0.2147,-0.23286147995778506
-0.2157000000000001,-0.23710561385738013
-0.2167,-0.23781296950731265
-0.21770000000000012,-0.2397935653271237
-0.2187,-0.2420571034069078
-0.21970000000000012,-0.24318887244679982
-0.2207,-0.24658417956647588
-0.22170000000000012,-0.2482818331263139
-0.2227,-0.250545371206098
-0.22370000000000012,-0.25337479380582806
-0.2247,-0.25790186996539616
-0.22570000000000012,-0.26002393691519377
-0.2267,-0.2621460038649913
-0.22770000000000012,-0.26426807081478887
-0.22870000000000001,-0.26681455115454594
-0.22970000000000013,-0.269361031494303
-0.23070000000000002,-0.2723319252240196
-0.23170000000000013,-0.27487840556377663
-0.23270000000000002,-0.27558576121370915
-0.23370000000000013,-0.2779907704234797
-0.23470000000000002,-0.2809616641531963
-0.23570000000000013,-0.2826593177130343
-0.23670000000000002,-0.2856302114427509
-0.2376999999999999,-0.288459634042481
-0.23870000000000002,-0.2918549411621571
-0.2396999999999999,-0.29355259472199513
-0.24070000000000003,-0.2986455554015092
-0.24169999999999991,-0.3006261512213203
-0.24270000000000003,-0.30204086252118534
-0.24369999999999992,-0.3033141026910639
-0.24470000000000003,-0.30571911190083445
-0.24569999999999992,-0.3110950148403216
-0.24670000000000003,-0.3136414951800786
-0.24769999999999992,-0.3144903219599976
-0.24870000000000003,-0.3171782734297412
-0.24969999999999992,-0.3205735805494173
-0.25070000000000003,-0.3253835989689584
-0.2516999999999999,-0.33075950190844555
-0.25270000000000004,-0.33217421320831064
-0.2536999999999999,-0.3359939337179463
-0.25470000000000004,-0.3389648274476628
-0.2556999999999999,-0.34037953874752785
-0.25670000000000004,-0.34363337473721745
-0.25769999999999993,-0.34462367264712296
-0.25870000000000004,-0.3494336910666641
-0.25969999999999993,-0.35297046931632664
-0.26070000000000004,-0.35622430530601623
-0.26169999999999993,-0.36060991033559786
-0.26270000000000004,-0.3655613998851255
-0.26369999999999993,-0.36909817813478807
-0.26470000000000005,-0.3703714183046666
-0.26569999999999994,-0.37419113881430216
-0.26670000000000005,-0.3787182149738703
-0.26769999999999994,-0.3823964643535194
-0.26870000000000005,-0.38607471373316854
-0.26969999999999994,-0.38947002085284455
-0.27070000000000005,-0.3932897413624802
-0.27169999999999994,-0.3965435773521698
-0.27270000000000005,-0.40064624012177835
-0.27369999999999994,-0.40460743176140046
-0.27470000000000006,-0.4071539121011576
-0.27569999999999995,-0.41054921922083365
-0.27670000000000006,-0.4159251221603208
-0.27769999999999995,-0.423564563179592
-0.27870000000000006,-0.42823311046914664
-0.27969999999999995,-0.4338919556686068
-0.28070000000000006,-0.4464828862374056
-0.28169999999999995,-0.45539556742655535
-0.28270000000000006,-0.4579420477663123
-0.28369999999999995,-0.45652733646644733
-0.28470000000000006,-0.4546882117766228
-0.28569999999999995,-0.4535564427367308
-0.28670000000000007,-0.4579420477663123
-0.28769999999999996,-0.4613373548859885
-0.28870000000000007,-0.4684109113853136
-0.28969999999999996,-0.46968415155519216
-0.29070000000000007,-0.4713818051150302
-0.29169999999999996,-0.47887977500431494
-0.29270000000000007,-0.4858118603736536
-0.29369999999999996,-0.49104629218315415
-0.2947000000000001,-0.5002419156322769
-0.29569999999999996,-0.5001004445022904
-0.2967000000000001,-0.5077398855215616
-0.29769999999999996,-0.5132572595910353
-0.2987000000000001,-0.5155207976708194
-0.29969999999999997,-0.5223114119101716
-0.3007000000000001,-0.5283946704995912
-0.30169999999999997,-0.5368829382987814
-0.3027000000000001,-0.5394294186385385
-0.30369999999999997,-0.5443809081880661
-0.3047000000000001,-0.5477762153077422
-0.30569999999999997,-0.5534350605072024
-0.3067000000000001,-0.5585280211867165
-0.3077,-0.5643283375161632
-0.3087000000000001,-0.5730995475753263
-0.3097,-0.577485152604908
-0.3107000000000001,-0.5808804597245841
-0.3117,-0.5858319492741116
-0.3127000000000001,-0.596300812893113
-0.3137,-0.6067696765121142
-0.3147000000000001,-0.6110138104117093
-0.3157,-0.6172385401311155
-0.3167000000000001,-0.6203509049908186
-0.3177,-0.6257268079303058
-0.3187000000000001,-0.6329418355596174
-0.3197,-0.638742151889064
-0.3207000000000001,-0.6459571795183757
-0.3217,-0.6496354288980248
-0.3227000000000001,-0.6523233803677684
-0.3237,-0.6557186874874444
-0.3247000000000001,-0.65670898539735
-0.3257,-0.6650557820665538
-0.3267000000000001,-0.6745343477756495
-0.3277,-0.6830226155748397
-0.3287000000000001,-0.6903791143341379
-0.3297,-0.6936329503238275
-0.3307000000000001,-0.6985844398733552
-0.3317,-0.7052335829827208
-0.3327000000000001,-0.7135803796519244
-0.3337,-0.7220686474511148
-0.3347000000000001,-0.7260298390907369
-0.3357,-0.7379134140096032
-0.3367000000000001,-0.7462602106788069
-0.3377,-0.750504344578402
-0.3387000000000001,-0.7568705454277946
-0.3397,-0.7623879194972683
-0.3407000000000001,-0.769037062606634
-0.3417,-0.774978850066067
-0.3427000000000001,-0.7812035797854733
-0.3437,-0.7862965404649873
-0.3447000000000001,-0.7891259630647174
-0.3457,-0.7963409906940291
-0.3467000000000001,-0.8019998358934892
-0.3477,-0.8158640066321667
-0.3487000000000001,-0.8229375631314919
-0.3497,-0.8300111196308171
-0.3507000000000001,-0.8351040803103312
-0.3517,-0.8435923481095214
-0.3527000000000001,-0.8539197405985361
-0.3537,-0.8567491631982663
-0.3547000000000001,-0.865378902127443
-0.3557,-0.8707548050669301
-0.35670000000000013,-0.8793845439961068
-0.3577,-0.886741042755405
-0.35870000000000013,-0.8960781373345142
-0.3597,-0.9059811164335695
-0.36070000000000013,-0.9140449708428002
-0.3617,-0.9232405942919228
-0.3626999999999999,-0.9290409106213695
-0.3637,-0.9392268319803979
-0.3646999999999999,-0.947715099779588
-0.3657,-0.9536568872390212
-0.3666999999999999,-0.9617207416482519
-0.3677,-0.9697845960574827
-0.3686999999999999,-0.9784143349866592
-0.36970000000000003,-0.9826584688862544
-0.3706999999999999,-0.9898734965155661
-0.37170000000000003,-0.9992105910946756
-0.3726999999999999,-1.008406214543798
-0.37370000000000003,-1.0168944823429882
-0.3746999999999999,-1.026090105792111
-0.37570000000000003,-1.036134556021153
-0.3766999999999999,-1.0450472372103026
-0.37770000000000004,-1.0498572556298436
-0.3786999999999999,-1.062589657328629
-0.37970000000000004,-1.0723511652976978
-0.3806999999999999,-1.0832444423066585
-0.38170000000000004,-1.0914497678458759
-0.38269999999999993,-1.0995136222551065
-0.38370000000000004,-1.1085677745742428
-0.38469999999999993,-1.1157828022035543
-0.38570000000000004,-1.1256857813026095
-0.38669999999999993,-1.1343155202317863
-0.38770000000000004,-1.144642912720801
-0.38869999999999993,-1.1545458918198563
-0.38970000000000005,-1.164590342048898
-0.39069999999999994,-1.1759080324478186
-0.39170000000000005,-1.1828401178171573
-0.39269999999999994,-1.1945822216060369
-0.39370000000000005,-1.208870805734674
-0.39469999999999994,-1.2218861496934323
-0.39570000000000005,-1.2337697246122985
-0.39669999999999994,-1.2483412510009082
-0.39770000000000005,-1.2630542485195047
-0.39869999999999994,-1.2759281213482767
-0.39970000000000006,-1.288094638527116
-0.40069999999999995,-1.3052126452554829
-0.40170000000000006,-1.3104470770649834
-0.40269999999999995,-1.315964451134457
-0.40370000000000006,-1.3274236126633638
-0.40469999999999995,-1.3388827741922709
-0.40570000000000006,-1.3489272244213124
-0.40669999999999995,-1.3595375591703005
-0.40770000000000006,-1.369016124879396
-0.40869999999999995,-1.3765140947686807
-0.40970000000000006,-1.383587651268006
-0.41069999999999995,-1.3975932931366697
-0.41170000000000007,-1.4024033115562107
-0.41269999999999996,-1.420370145064497
-0.41370000000000007,-1.427443701563822
-0.41469999999999996,-1.433102546763282
-0.41570000000000007,-1.4458349484620676
-0.41669999999999996,-1.4585673501608527
-0.41770000000000007,-1.472714463159503
-0.41869999999999996,-1.4797880196588282
-0.4197000000000001,-1.4911057100577487
-0.42069999999999996,-1.498179266557074
-0.4217000000000001,-1.5094969569559942
-0.42269999999999996,-1.5208146473549145
-0.4237000000000001,-1.5349617603535646
-0.42469999999999997,-1.5491088733522151
-0.4257000000000001,-1.5547677185516753
-0.42669999999999997,-1.5675001202504606
-0.4277000000000001,-1.5731589654499207
-0.42869999999999997,-1.584476655848841
-0.4297000000000001,-1.6014531914472214
-0.43069999999999997,-1.6099414592464116
-0.4317000000000001,-1.6255032835449272
-0.4327,-1.6453092417430377
-0.4337000000000001,-1.6622857773414181
-0.4347,-1.6792623129397986
-0.4357000000000001,-1.6877505807389888
-0.4367,-1.7089712502369643
-0.4377000000000001,-1.7231183632356148
-0.4387,-1.734436053634535
-0.4397000000000001,-1.7457537440334552
-0.4407,-1.7599008570321055
-0.4417000000000001,-1.772633258730891
-0.4427,-1.7853656604296764
-0.4437000000000001,-1.7952686395287314
-0.4447,-1.7952686395287314
-0.4457000000000001,-1.8164893090267071
-0.4467,-1.8334658446250875
-0.4477000000000001,-1.849027668923603
-0.4487,-1.8660042045219833
-0.4497000000000001,-1.8730777610213083
-0.4507,-1.890054296619689
-0.4517000000000001,-1.8999572757187444
-0.4527,-1.9112749661176645
-0.4537000000000001,-1.92683679041618
-0.4547,-1.93532505821537
-0.4557000000000001,-1.9551310164134805
-0.4567,-1.9735222633117262
-0.4577000000000001,-1.9919135102099716
-0.4587,-1.9989870667092968
-0.4597000000000001,-2.0244518701068674
-0.4607,-2.040013694405383
-0.4617000000000001,-2.045672539604843
-0.4627,-2.0668932091028185
-0.4637000000000001,-2.0753814769020087
-0.4647,-2.1008462802995793
-0.4657000000000001,-2.113578681998365
-0.4667,-2.122066949797555
-0.4677000000000001,-2.148946464494991
-0.4687,-2.1531905983945863
-0.4697000000000001,-2.171581845292831
-0.4707,-2.1871436695913467
-0.4717000000000001,-2.197046648690402
-0.4727,-2.2239261633878376
-0.4737000000000001,-2.238073276386488
-0.4747,-2.273441058883114
-0.4757000000000001,-2.286173460581899
-0.4767,-2.310223552679605
-0.4777000000000001,-2.3201265317786604
-0.4787,-2.3243706656782552
-0.4797000000000001,-2.352664891675556
-0.4807,-2.3639825820744766
-0.48170000000000013,-2.3781296950731265
-0.4827,-2.4021797871708324
-0.48370000000000013,-2.426229879268538
-0.4847,-2.4446211261667834
-0.48570000000000013,-2.4587682391654337
-0.4867,-2.4799889086634095
-0.4876999999999999,-2.50545371206098
-0.4887,-2.5280890928588207
-0.4896999999999999,-2.539406783257741
-0.4907,-2.543650917157336
-0.4916999999999999,-2.5719451431546365
-0.4927,-2.591751101352747
-0.4936999999999999,-2.629948306449103
-0.49470000000000003,-2.6738043567449195
