Aug. 18, 2024   09:15:13
Cyclic Voltammetry
File: c:/users/guazh/data/20240813_batch_94_500/2024-08-15-exp121\exp121-2024-08-18t08_58_46-h2koh\exp121_cv_50mvs_efin_-1700mv.bin
Data Source:  Experiment
Instrument Model:  CHI760E
Header: CV ran at 50 mVs
Note: 

Init E (V) = -1
High E (V) = -1
Low E (V) = -1.7
Final E (V) = -1
Init P/N = N
Scan Rate (V/s) = 0.05
Segment = 7
Sample Interval (V) = 0.001
Quiet Time (sec) = 60
Sensitivity (A/V) = 0.001
Comp R (ohm) = 1.6

Results:

Channel 1:
Segment 1:

Segment 2:

Segment 3:

Segment 4:

Segment 5:

Segment 6:

Segment 7:

Potential/V, Current/A

-1.000, 1.502e-6
-1.001, 2.179e-6
-1.002, 2.565e-6
-1.003, 2.872e-6
-1.004, 3.060e-6
-1.005, 3.228e-6
-1.006, 3.367e-6
-1.007, 3.430e-6
-1.008, 3.564e-6
-1.009, 3.616e-6
-1.010, 3.679e-6
-1.011, 3.723e-6
-1.012, 3.797e-6
-1.013, 3.852e-6
-1.014, 3.876e-6
-1.015, 3.941e-6
-1.016, 3.950e-6
-1.017, 3.999e-6
-1.018, 4.044e-6
-1.019, 4.057e-6
-1.020, 4.097e-6
-1.021, 4.133e-6
-1.022, 4.144e-6
-1.023, 4.187e-6
-1.024, 4.180e-6
-1.025, 4.223e-6
-1.026, 4.241e-6
-1.027, 4.273e-6
-1.028, 4.313e-6
-1.029, 4.283e-6
-1.030, 4.332e-6
-1.031, 4.360e-6
-1.032, 4.358e-6
-1.033, 4.397e-6
-1.034, 4.429e-6
-1.035, 4.435e-6
-1.036, 4.450e-6
-1.037, 4.463e-6
-1.038, 4.507e-6
-1.039, 4.509e-6
-1.040, 4.549e-6
-1.041, 4.553e-6
-1.042, 4.592e-6
-1.043, 4.649e-6
-1.044, 4.641e-6
-1.045, 4.636e-6
-1.046, 4.662e-6
-1.047, 4.668e-6
-1.048, 4.648e-6
-1.049, 4.651e-6
-1.050, 4.704e-6
-1.051, 4.741e-6
-1.052, 4.734e-6
-1.053, 4.777e-6
-1.054, 4.781e-6
-1.055, 4.798e-6
-1.056, 4.832e-6
-1.057, 4.822e-6
-1.058, 4.857e-6
-1.059, 4.864e-6
-1.060, 4.908e-6
-1.061, 4.927e-6
-1.062, 4.902e-6
-1.063, 4.962e-6
-1.064, 4.972e-6
-1.065, 5.015e-6
-1.066, 5.031e-6
-1.067, 5.013e-6
-1.068, 5.065e-6
-1.069, 5.057e-6
-1.070, 5.101e-6
-1.071, 5.116e-6
-1.072, 5.116e-6
-1.073, 5.134e-6
-1.074, 5.173e-6
-1.075, 5.222e-6
-1.076, 5.243e-6
-1.077, 5.228e-6
-1.078, 5.260e-6
-1.079, 5.258e-6
-1.080, 5.289e-6
-1.081, 5.325e-6
-1.082, 5.354e-6
-1.083, 5.366e-6
-1.084, 5.406e-6
-1.085, 5.420e-6
-1.086, 5.456e-6
-1.087, 5.441e-6
-1.088, 5.478e-6
-1.089, 5.498e-6
-1.090, 5.546e-6
-1.091, 5.576e-6
-1.092, 5.537e-6
-1.093, 5.592e-6
-1.094, 5.589e-6
-1.095, 5.639e-6
-1.096, 5.630e-6
-1.097, 5.666e-6
-1.098, 5.675e-6
-1.099, 5.717e-6
-1.100, 5.722e-6
-1.101, 5.744e-6
-1.102, 5.782e-6
-1.103, 5.843e-6
-1.104, 5.862e-6
-1.105, 5.869e-6
-1.106, 5.915e-6
-1.107, 5.948e-6
-1.108, 6.005e-6
-1.109, 5.975e-6
-1.110, 6.020e-6
-1.111, 6.041e-6
-1.112, 6.080e-6
-1.113, 6.110e-6
-1.114, 6.052e-6
-1.115, 6.135e-6
-1.116, 6.179e-6
-1.117, 6.213e-6
-1.118, 6.171e-6
-1.119, 6.219e-6
-1.120, 6.274e-6
-1.121, 6.315e-6
-1.122, 6.381e-6
-1.123, 6.410e-6
-1.124, 6.503e-6
-1.125, 6.499e-6
-1.126, 6.527e-6
-1.127, 6.577e-6
-1.128, 6.565e-6
-1.129, 6.574e-6
-1.130, 6.625e-6
-1.131, 6.624e-6
-1.132, 6.678e-6
-1.133, 6.677e-6
-1.134, 6.743e-6
-1.135, 6.806e-6
-1.136, 6.778e-6
-1.137, 6.878e-6
-1.138, 6.917e-6
-1.139, 6.882e-6
-1.140, 6.934e-6
-1.141, 6.973e-6
-1.142, 7.017e-6
-1.143, 7.035e-6
-1.144, 7.076e-6
-1.145, 7.139e-6
-1.146, 7.201e-6
-1.147, 7.250e-6
-1.148, 7.289e-6
-1.149, 7.328e-6
-1.150, 7.354e-6
-1.151, 7.421e-6
-1.152, 7.544e-6
-1.153, 7.533e-6
-1.154, 7.630e-6
-1.155, 7.649e-6
-1.156, 7.637e-6
-1.157, 7.618e-6
-1.158, 7.701e-6
-1.159, 7.739e-6
-1.160, 7.823e-6
-1.161, 7.834e-6
-1.162, 7.959e-6
-1.163, 7.973e-6
-1.164, 8.020e-6
-1.165, 8.140e-6
-1.166, 8.130e-6
-1.167, 8.162e-6
-1.168, 8.192e-6
-1.169, 8.219e-6
-1.170, 8.271e-6
-1.171, 8.425e-6
-1.172, 8.401e-6
-1.173, 8.444e-6
-1.174, 8.472e-6
-1.175, 8.459e-6
-1.176, 8.559e-6
-1.177, 8.644e-6
-1.178, 8.715e-6
-1.179, 8.787e-6
-1.180, 8.854e-6
-1.181, 8.954e-6
-1.182, 9.075e-6
-1.183, 9.161e-6
-1.184, 9.218e-6
-1.185, 9.261e-6
-1.186, 9.309e-6
-1.187, 9.334e-6
-1.188, 9.267e-6
-1.189, 9.320e-6
-1.190, 9.365e-6
-1.191, 9.425e-6
-1.192, 9.471e-6
-1.193, 9.563e-6
-1.194, 9.611e-6
-1.195, 9.737e-6
-1.196, 9.894e-6
-1.197, 9.959e-6
-1.198, 1.005e-5
-1.199, 1.014e-5
-1.200, 1.034e-5
-1.201, 1.038e-5
-1.202, 1.044e-5
-1.203, 1.058e-5
-1.204, 1.063e-5
-1.205, 1.064e-5
-1.206, 1.068e-5
-1.207, 1.077e-5
-1.208, 1.086e-5
-1.209, 1.093e-5
-1.210, 1.114e-5
-1.211, 1.124e-5
-1.212, 1.132e-5
-1.213, 1.136e-5
-1.214, 1.157e-5
-1.215, 1.168e-5
-1.216, 1.168e-5
-1.217, 1.189e-5
-1.218, 1.184e-5
-1.219, 1.192e-5
-1.220, 1.206e-5
-1.221, 1.217e-5
-1.222, 1.230e-5
-1.223, 1.237e-5
-1.224, 1.254e-5
-1.225, 1.264e-5
-1.226, 1.261e-5
-1.227, 1.268e-5
-1.228, 1.276e-5
-1.229, 1.294e-5
-1.230, 1.303e-5
-1.231, 1.323e-5
-1.232, 1.339e-5
-1.233, 1.343e-5
-1.234, 1.357e-5
-1.235, 1.357e-5
-1.236, 1.375e-5
-1.237, 1.391e-5
-1.238, 1.395e-5
-1.239, 1.423e-5
-1.240, 1.442e-5
-1.241, 1.441e-5
-1.242, 1.457e-5
-1.243, 1.470e-5
-1.244, 1.487e-5
-1.245, 1.490e-5
-1.246, 1.498e-5
-1.247, 1.500e-5
-1.248, 1.522e-5
-1.249, 1.536e-5
-1.250, 1.555e-5
-1.251, 1.565e-5
-1.252, 1.574e-5
-1.253, 1.587e-5
-1.254, 1.604e-5
-1.255, 1.622e-5
-1.256, 1.634e-5
-1.257, 1.647e-5
-1.258, 1.668e-5
-1.259, 1.680e-5
-1.260, 1.671e-5
-1.261, 1.690e-5
-1.262, 1.704e-5
-1.263, 1.724e-5
-1.264, 1.727e-5
-1.265, 1.745e-5
-1.266, 1.758e-5
-1.267, 1.759e-5
-1.268, 1.787e-5
-1.269, 1.810e-5
-1.270, 1.828e-5
-1.271, 1.830e-5
-1.272, 1.860e-5
-1.273, 1.881e-5
-1.274, 1.887e-5
-1.275, 1.910e-5
-1.276, 1.927e-5
-1.277, 1.949e-5
-1.278, 1.988e-5
-1.279, 1.992e-5
-1.280, 2.009e-5
-1.281, 2.003e-5
-1.282, 2.036e-5
-1.283, 2.084e-5
-1.284, 2.055e-5
-1.285, 2.051e-5
-1.286, 2.075e-5
-1.287, 2.082e-5
-1.288, 2.108e-5
-1.289, 2.121e-5
-1.290, 2.171e-5
-1.291, 2.190e-5
-1.292, 2.202e-5
-1.293, 2.210e-5
-1.294, 2.217e-5
-1.295, 2.253e-5
-1.296, 2.252e-5
-1.297, 2.299e-5
-1.298, 2.292e-5
-1.299, 2.328e-5
-1.300, 2.346e-5
-1.301, 2.334e-5
-1.302, 2.349e-5
-1.303, 2.362e-5
-1.304, 2.395e-5
-1.305, 2.402e-5
-1.306, 2.431e-5
-1.307, 2.468e-5
-1.308, 2.485e-5
-1.309, 2.501e-5
-1.310, 2.504e-5
-1.311, 2.533e-5
-1.312, 2.584e-5
-1.313, 2.591e-5
-1.314, 2.619e-5
-1.315, 2.639e-5
-1.316, 2.686e-5
-1.317, 2.710e-5
-1.318, 2.723e-5
-1.319, 2.751e-5
-1.320, 2.751e-5
-1.321, 2.787e-5
-1.322, 2.799e-5
-1.323, 2.830e-5
-1.324, 2.848e-5
-1.325, 2.857e-5
-1.326, 2.882e-5
-1.327, 2.898e-5
-1.328, 2.955e-5
-1.329, 2.966e-5
-1.330, 2.956e-5
-1.331, 3.003e-5
-1.332, 3.035e-5
-1.333, 3.069e-5
-1.334, 3.090e-5
-1.335, 3.120e-5
-1.336, 3.162e-5
-1.337, 3.177e-5
-1.338, 3.228e-5
-1.339, 3.241e-5
-1.340, 3.282e-5
-1.341, 3.310e-5
-1.342, 3.393e-5
-1.343, 3.406e-5
-1.344, 3.416e-5
-1.345, 3.475e-5
-1.346, 3.497e-5
-1.347, 3.473e-5
-1.348, 3.493e-5
-1.349, 3.473e-5
-1.350, 3.512e-5
-1.351, 3.546e-5
-1.352, 3.575e-5
-1.353, 3.601e-5
-1.354, 3.620e-5
-1.355, 3.698e-5
-1.356, 3.686e-5
-1.357, 3.727e-5
-1.358, 3.762e-5
-1.359, 3.818e-5
-1.360, 3.838e-5
-1.361, 3.864e-5
-1.362, 3.890e-5
-1.363, 3.900e-5
-1.364, 3.949e-5
-1.365, 3.936e-5
-1.366, 3.952e-5
-1.367, 4.022e-5
-1.368, 4.018e-5
-1.369, 4.076e-5
-1.370, 4.102e-5
-1.371, 4.132e-5
-1.372, 4.192e-5
-1.373, 4.211e-5
-1.374, 4.242e-5
-1.375, 4.274e-5
-1.376, 4.333e-5
-1.377, 4.362e-5
-1.378, 4.391e-5
-1.379, 4.387e-5
-1.380, 4.423e-5
-1.381, 4.459e-5
-1.382, 4.478e-5
-1.383, 4.525e-5
-1.384, 4.594e-5
-1.385, 4.634e-5
-1.386, 4.682e-5
-1.387, 4.699e-5
-1.388, 4.758e-5
-1.389, 4.831e-5
-1.390, 4.870e-5
-1.391, 4.901e-5
-1.392, 4.907e-5
-1.393, 4.964e-5
-1.394, 5.015e-5
-1.395, 5.034e-5
-1.396, 5.085e-5
-1.397, 5.142e-5
-1.398, 5.221e-5
-1.399, 5.289e-5
-1.400, 5.258e-5
-1.401, 5.320e-5
-1.402, 5.308e-5
-1.403, 5.360e-5
-1.404, 5.403e-5
-1.405, 5.462e-5
-1.406, 5.473e-5
-1.407, 5.500e-5
-1.408, 5.567e-5
-1.409, 5.615e-5
-1.410, 5.697e-5
-1.411, 5.748e-5
-1.412, 5.861e-5
-1.413, 5.888e-5
-1.414, 5.833e-5
-1.415, 5.917e-5
-1.416, 5.991e-5
-1.417, 6.040e-5
-1.418, 6.094e-5
-1.419, 6.163e-5
-1.420, 6.198e-5
-1.421, 6.176e-5
-1.422, 6.132e-5
-1.423, 6.168e-5
-1.424, 6.231e-5
-1.425, 6.301e-5
-1.426, 6.322e-5
-1.427, 6.385e-5
-1.428, 6.406e-5
-1.429, 6.465e-5
-1.430, 6.513e-5
-1.431, 6.567e-5
-1.432, 6.637e-5
-1.433, 6.653e-5
-1.434, 6.718e-5
-1.435, 6.771e-5
-1.436, 6.845e-5
-1.437, 6.885e-5
-1.438, 6.909e-5
-1.439, 6.976e-5
-1.440, 7.032e-5
-1.441, 7.119e-5
-1.442, 7.168e-5
-1.443, 7.231e-5
-1.444, 7.276e-5
-1.445, 7.313e-5
-1.446, 7.379e-5
-1.447, 7.395e-5
-1.448, 7.468e-5
-1.449, 7.527e-5
-1.450, 7.522e-5
-1.451, 7.641e-5
-1.452, 7.634e-5
-1.453, 7.726e-5
-1.454, 7.789e-5
-1.455, 7.796e-5
-1.456, 7.902e-5
-1.457, 7.886e-5
-1.458, 7.975e-5
-1.459, 8.002e-5
-1.460, 8.080e-5
-1.461, 8.153e-5
-1.462, 8.201e-5
-1.463, 8.280e-5
-1.464, 8.276e-5
-1.465, 8.297e-5
-1.466, 8.404e-5
-1.467, 8.396e-5
-1.468, 8.504e-5
-1.469, 8.491e-5
-1.470, 8.540e-5
-1.471, 8.656e-5
-1.472, 8.679e-5
-1.473, 8.714e-5
-1.474, 8.751e-5
-1.475, 8.847e-5
-1.476, 8.930e-5
-1.477, 8.984e-5
-1.478, 9.065e-5
-1.479, 9.056e-5
-1.480, 9.180e-5
-1.481, 9.210e-5
-1.482, 9.250e-5
-1.483, 9.351e-5
-1.484, 9.344e-5
-1.485, 9.456e-5
-1.486, 9.521e-5
-1.487, 9.601e-5
-1.488, 9.610e-5
-1.489, 9.633e-5
-1.490, 9.769e-5
-1.491, 9.763e-5
-1.492, 9.875e-5
-1.493, 9.919e-5
-1.494, 1.000e-4
-1.495, 1.008e-4
-1.496, 1.014e-4
-1.497, 1.026e-4
-1.498, 1.028e-4
-1.499, 1.033e-4
-1.500, 1.044e-4
-1.501, 1.051e-4
-1.502, 1.059e-4
-1.503, 1.064e-4
-1.504, 1.076e-4
-1.505, 1.075e-4
-1.506, 1.082e-4
-1.507, 1.088e-4
-1.508, 1.087e-4
-1.509, 1.101e-4
-1.510, 1.104e-4
-1.511, 1.118e-4
-1.512, 1.125e-4
-1.513, 1.121e-4
-1.514, 1.128e-4
-1.515, 1.133e-4
-1.516, 1.138e-4
-1.517, 1.141e-4
-1.518, 1.157e-4
-1.519, 1.176e-4
-1.520, 1.184e-4
-1.521, 1.201e-4
-1.522, 1.207e-4
-1.523, 1.215e-4
-1.524, 1.221e-4
-1.525, 1.219e-4
-1.526, 1.231e-4
-1.527, 1.231e-4
-1.528, 1.248e-4
-1.529, 1.252e-4
-1.530, 1.253e-4
-1.531, 1.269e-4
-1.532, 1.276e-4
-1.533, 1.290e-4
-1.534, 1.288e-4
-1.535, 1.299e-4
-1.536, 1.310e-4
-1.537, 1.304e-4
-1.538, 1.328e-4
-1.539, 1.326e-4
-1.540, 1.348e-4
-1.541, 1.355e-4
-1.542, 1.356e-4
-1.543, 1.368e-4
-1.544, 1.366e-4
-1.545, 1.376e-4
-1.546, 1.388e-4
-1.547, 1.393e-4
-1.548, 1.412e-4
-1.549, 1.414e-4
-1.550, 1.430e-4
-1.551, 1.439e-4
-1.552, 1.450e-4
-1.553, 1.463e-4
-1.554, 1.465e-4
-1.555, 1.486e-4
-1.556, 1.478e-4
-1.557, 1.486e-4
-1.558, 1.480e-4
-1.559, 1.496e-4
-1.560, 1.512e-4
-1.561, 1.512e-4
-1.562, 1.530e-4
-1.563, 1.533e-4
-1.564, 1.546e-4
-1.565, 1.553e-4
-1.566, 1.543e-4
-1.567, 1.560e-4
-1.568, 1.562e-4
-1.569, 1.578e-4
-1.570, 1.589e-4
-1.571, 1.596e-4
-1.572, 1.612e-4
-1.573, 1.607e-4
-1.574, 1.622e-4
-1.575, 1.629e-4
-1.576, 1.636e-4
-1.577, 1.657e-4
-1.578, 1.656e-4
-1.579, 1.669e-4
-1.580, 1.684e-4
-1.581, 1.695e-4
-1.582, 1.706e-4
-1.583, 1.712e-4
-1.584, 1.722e-4
-1.585, 1.720e-4
-1.586, 1.742e-4
-1.587, 1.760e-4
-1.588, 1.773e-4
-1.589, 1.793e-4
-1.590, 1.788e-4
-1.591, 1.818e-4
-1.592, 1.827e-4
-1.593, 1.851e-4
-1.594, 1.853e-4
-1.595, 1.846e-4
-1.596, 1.865e-4
-1.597, 1.864e-4
-1.598, 1.898e-4
-1.599, 1.898e-4
-1.600, 1.906e-4
-1.601, 1.927e-4
-1.602, 1.923e-4
-1.603, 1.942e-4
-1.604, 1.942e-4
-1.605, 1.972e-4
-1.606, 1.993e-4
-1.607, 2.003e-4
-1.608, 2.030e-4
-1.609, 2.034e-4
-1.610, 2.055e-4
-1.611, 2.066e-4
-1.612, 2.066e-4
-1.613, 2.100e-4
-1.614, 2.104e-4
-1.615, 2.137e-4
-1.616, 2.141e-4
-1.617, 2.158e-4
-1.618, 2.172e-4
-1.619, 2.167e-4
-1.620, 2.195e-4
-1.621, 2.186e-4
-1.622, 2.200e-4
-1.623, 2.225e-4
-1.624, 2.231e-4
-1.625, 2.237e-4
-1.626, 2.240e-4
-1.627, 2.275e-4
-1.628, 2.284e-4
-1.629, 2.291e-4
-1.630, 2.311e-4
-1.631, 2.314e-4
-1.632, 2.348e-4
-1.633, 2.356e-4
-1.634, 2.386e-4
-1.635, 2.408e-4
-1.636, 2.427e-4
-1.637, 2.442e-4
-1.638, 2.469e-4
-1.639, 2.488e-4
-1.640, 2.512e-4
-1.641, 2.535e-4
-1.642, 2.554e-4
-1.643, 2.570e-4
-1.644, 2.589e-4
-1.645, 2.593e-4
-1.646, 2.626e-4
-1.647, 2.634e-4
-1.648, 2.637e-4
-1.649, 2.654e-4
-1.650, 2.664e-4
-1.651, 2.696e-4
-1.652, 2.723e-4
-1.653, 2.732e-4
-1.654, 2.763e-4
-1.655, 2.745e-4
-1.656, 2.768e-4
-1.657, 2.777e-4
-1.658, 2.814e-4
-1.659, 2.849e-4
-1.660, 2.854e-4
-1.661, 2.887e-4
-1.662, 2.897e-4
-1.663, 2.942e-4
-1.664, 2.954e-4
-1.665, 2.977e-4
-1.666, 3.006e-4
-1.667, 3.003e-4
-1.668, 3.010e-4
-1.669, 3.047e-4
-1.670, 3.057e-4
-1.671, 3.102e-4
-1.672, 3.099e-4
-1.673, 3.157e-4
-1.674, 3.184e-4
-1.675, 3.197e-4
-1.676, 3.326e-4
-1.677, 3.306e-4
-1.678, 3.375e-4
-1.679, 3.331e-4
-1.680, 3.440e-4
-1.681, 3.477e-4
-1.682, 3.468e-4
-1.683, 3.495e-4
-1.684, 3.101e-4
-1.685, 3.089e-4
-1.686, 3.096e-4
-1.687, 3.148e-4
-1.688, 3.187e-4
-1.689, 3.255e-4
-1.690, 3.287e-4
-1.691, 3.275e-4
-1.692, 3.314e-4
-1.693, 3.346e-4
-1.694, 3.346e-4
-1.695, 3.392e-4
-1.696, 3.382e-4
-1.697, 3.459e-4
-1.698, 3.501e-4
-1.699, 3.503e-4
-1.700, 3.506e-4
-1.699, 3.455e-4
-1.698, 3.473e-4
-1.697, 3.483e-4
-1.696, 3.439e-4
-1.695, 3.432e-4
-1.694, 3.399e-4
-1.693, 3.325e-4
-1.692, 3.308e-4
-1.691, 3.281e-4
-1.690, 3.260e-4
-1.689, 3.198e-4
-1.688, 3.164e-4
-1.687, 3.109e-4
-1.686, 3.073e-4
-1.685, 3.047e-4
-1.684, 3.021e-4
-1.683, 2.958e-4
-1.682, 2.924e-4
-1.681, 2.911e-4
-1.680, 2.900e-4
-1.679, 2.897e-4
-1.678, 2.860e-4
-1.677, 2.815e-4
-1.676, 2.817e-4
-1.675, 2.768e-4
-1.674, 2.751e-4
-1.673, 2.744e-4
-1.672, 2.737e-4
-1.671, 2.719e-4
-1.670, 2.671e-4
-1.669, 2.621e-4
-1.668, 2.595e-4
-1.667, 2.562e-4
-1.666, 2.570e-4
-1.665, 2.541e-4
-1.664, 2.508e-4
-1.663, 2.460e-4
-1.662, 2.428e-4
-1.661, 2.396e-4
-1.660, 2.362e-4
-1.659, 2.344e-4
-1.658, 2.302e-4
-1.657, 2.262e-4
-1.656, 2.280e-4
-1.655, 2.257e-4
-1.654, 2.255e-4
-1.653, 2.225e-4
-1.652, 2.222e-4
-1.651, 2.184e-4
-1.650, 2.155e-4
-1.649, 2.139e-4
-1.648, 2.158e-4
-1.647, 2.145e-4
-1.646, 2.137e-4
-1.645, 2.116e-4
-1.644, 2.103e-4
-1.643, 2.103e-4
-1.642, 2.074e-4
-1.641, 2.059e-4
-1.640, 2.042e-4
-1.639, 2.060e-4
-1.638, 2.043e-4
-1.637, 2.033e-4
-1.636, 2.003e-4
-1.635, 1.992e-4
-1.634, 1.978e-4
-1.633, 1.988e-4
-1.632, 1.986e-4
-1.631, 1.951e-4
-1.630, 1.939e-4
-1.629, 1.887e-4
-1.628, 1.864e-4
-1.627, 1.862e-4
-1.626, 1.847e-4
-1.625, 1.832e-4
-1.624, 1.837e-4
-1.623, 1.825e-4
-1.622, 1.817e-4
-1.621, 1.793e-4
-1.620, 1.779e-4
-1.619, 1.762e-4
-1.618, 1.764e-4
-1.617, 1.737e-4
-1.616, 1.733e-4
-1.615, 1.726e-4
-1.614, 1.714e-4
-1.613, 1.682e-4
-1.612, 1.602e-4
-1.611, 1.625e-4
-1.610, 1.616e-4
-1.609, 1.639e-4
-1.608, 1.624e-4
-1.607, 1.613e-4
-1.606, 1.596e-4
-1.605, 1.563e-4
-1.604, 1.588e-4
-1.603, 1.597e-4
-1.602, 1.588e-4
-1.601, 1.577e-4
-1.600, 1.548e-4
-1.599, 1.512e-4
-1.598, 1.487e-4
-1.597, 1.492e-4
-1.596, 1.493e-4
-1.595, 1.478e-4
-1.594, 1.467e-4
-1.593, 1.464e-4
-1.592, 1.451e-4
-1.591, 1.447e-4
-1.590, 1.435e-4
-1.589, 1.440e-4
-1.588, 1.412e-4
-1.587, 1.420e-4
-1.586, 1.404e-4
-1.585, 1.393e-4
-1.584, 1.388e-4
-1.583, 1.378e-4
-1.582, 1.385e-4
-1.581, 1.360e-4
-1.580, 1.359e-4
-1.579, 1.356e-4
-1.578, 1.325e-4
-1.577, 1.331e-4
-1.576, 1.318e-4
-1.575, 1.307e-4
-1.574, 1.305e-4
-1.573, 1.289e-4
-1.572, 1.279e-4
-1.571, 1.274e-4
-1.570, 1.265e-4
-1.569, 1.243e-4
-1.568, 1.236e-4
-1.567, 1.241e-4
-1.566, 1.243e-4
-1.565, 1.233e-4
-1.564, 1.229e-4
-1.563, 1.223e-4
-1.562, 1.179e-4
-1.561, 1.160e-4
-1.560, 1.159e-4
-1.559, 1.149e-4
-1.558, 1.144e-4
-1.557, 1.141e-4
-1.556, 1.149e-4
-1.555, 1.128e-4
-1.554, 1.120e-4
-1.553, 1.124e-4
-1.552, 1.122e-4
-1.551, 1.111e-4
-1.550, 1.114e-4
-1.549, 1.095e-4
-1.548, 1.093e-4
-1.547, 1.079e-4
-1.546, 1.089e-4
-1.545, 1.082e-4
-1.544, 1.072e-4
-1.543, 1.059e-4
-1.542, 1.057e-4
-1.541, 1.039e-4
-1.540, 1.033e-4
-1.539, 1.021e-4
-1.538, 1.020e-4
-1.537, 1.017e-4
-1.536, 1.010e-4
-1.535, 1.004e-4
-1.534, 9.931e-5
-1.533, 9.750e-5
-1.532, 9.915e-5
-1.531, 9.777e-5
-1.530, 9.593e-5
-1.529, 9.722e-5
-1.528, 9.527e-5
-1.527, 9.589e-5
-1.526, 9.520e-5
-1.525, 9.453e-5
-1.524, 9.555e-5
-1.523, 9.465e-5
-1.522, 9.519e-5
-1.521, 9.390e-5
-1.520, 9.373e-5
-1.519, 9.205e-5
-1.518, 9.128e-5
-1.517, 9.156e-5
-1.516, 8.931e-5
-1.515, 9.023e-5
-1.514, 9.059e-5
-1.513, 8.966e-5
-1.512, 8.885e-5
-1.511, 8.800e-5
-1.510, 8.808e-5
-1.509, 8.825e-5
-1.508, 8.664e-5
-1.507, 8.530e-5
-1.506, 8.682e-5
-1.505, 8.627e-5
-1.504, 8.569e-5
-1.503, 8.431e-5
-1.502, 8.496e-5
-1.501, 8.345e-5
-1.500, 8.308e-5
-1.499, 8.152e-5
-1.498, 8.026e-5
-1.497, 7.958e-5
-1.496, 7.810e-5
-1.495, 7.880e-5
-1.494, 7.769e-5
-1.493, 7.658e-5
-1.492, 7.580e-5
-1.491, 7.702e-5
-1.490, 7.665e-5
-1.489, 7.508e-5
-1.488, 7.632e-5
-1.487, 7.570e-5
-1.486, 7.543e-5
-1.485, 7.432e-5
-1.484, 7.394e-5
-1.483, 7.525e-5
-1.482, 7.359e-5
-1.481, 7.192e-5
-1.480, 7.333e-5
-1.479, 7.220e-5
-1.478, 7.214e-5
-1.477, 7.128e-5
-1.476, 7.101e-5
-1.475, 7.091e-5
-1.474, 7.083e-5
-1.473, 7.085e-5
-1.472, 6.917e-5
-1.471, 6.794e-5
-1.470, 6.765e-5
-1.469, 6.804e-5
-1.468, 6.827e-5
-1.467, 6.814e-5
-1.466, 6.735e-5
-1.465, 6.604e-5
-1.464, 6.543e-5
-1.463, 6.569e-5
-1.462, 6.570e-5
-1.461, 6.618e-5
-1.460, 6.461e-5
-1.459, 6.495e-5
-1.458, 6.134e-5
-1.457, 6.182e-5
-1.456, 6.212e-5
-1.455, 6.159e-5
-1.454, 6.141e-5
-1.453, 6.140e-5
-1.452, 6.121e-5
-1.451, 6.106e-5
-1.450, 6.031e-5
-1.449, 6.051e-5
-1.448, 5.841e-5
-1.447, 5.894e-5
-1.446, 5.882e-5
-1.445, 5.746e-5
-1.444, 5.775e-5
-1.443, 5.732e-5
-1.442, 5.640e-5
-1.441, 5.622e-5
-1.440, 5.619e-5
-1.439, 5.538e-5
-1.438, 5.559e-5
-1.437, 5.453e-5
-1.436, 5.397e-5
-1.435, 5.403e-5
-1.434, 5.424e-5
-1.433, 5.415e-5
-1.432, 5.481e-5
-1.431, 5.369e-5
-1.430, 5.313e-5
-1.429, 5.303e-5
-1.428, 5.211e-5
-1.427, 5.264e-5
-1.426, 5.184e-5
-1.425, 5.076e-5
-1.424, 5.034e-5
-1.423, 5.038e-5
-1.422, 5.044e-5
-1.421, 5.034e-5
-1.420, 5.012e-5
-1.419, 4.920e-5
-1.418, 4.868e-5
-1.417, 4.836e-5
-1.416, 4.824e-5
-1.415, 4.831e-5
-1.414, 4.760e-5
-1.413, 4.752e-5
-1.412, 4.785e-5
-1.411, 4.730e-5
-1.410, 4.668e-5
-1.409, 4.597e-5
-1.408, 4.572e-5
-1.407, 4.476e-5
-1.406, 4.371e-5
-1.405, 4.407e-5
-1.404, 4.407e-5
-1.403, 4.419e-5
-1.402, 4.404e-5
-1.401, 4.377e-5
-1.400, 4.279e-5
-1.399, 4.287e-5
-1.398, 4.193e-5
-1.397, 4.201e-5
-1.396, 4.124e-5
-1.395, 4.080e-5
-1.394, 4.053e-5
-1.393, 3.985e-5
-1.392, 3.995e-5
-1.391, 3.948e-5
-1.390, 3.914e-5
-1.389, 3.812e-5
-1.388, 3.837e-5
-1.387, 3.832e-5
-1.386, 3.797e-5
-1.385, 3.792e-5
-1.384, 3.789e-5
-1.383, 3.675e-5
-1.382, 3.747e-5
-1.381, 3.676e-5
-1.380, 3.634e-5
-1.379, 3.634e-5
-1.378, 3.544e-5
-1.377, 3.603e-5
-1.376, 3.507e-5
-1.375, 3.488e-5
-1.374, 3.469e-5
-1.373, 3.387e-5
-1.372, 3.350e-5
-1.371, 3.325e-5
-1.370, 3.334e-5
-1.369, 3.306e-5
-1.368, 3.275e-5
-1.367, 3.248e-5
-1.366, 3.146e-5
-1.365, 3.120e-5
-1.364, 3.075e-5
-1.363, 3.064e-5
-1.362, 3.042e-5
-1.361, 2.977e-5
-1.360, 2.947e-5
-1.359, 2.969e-5
-1.358, 2.919e-5
-1.357, 2.891e-5
-1.356, 2.834e-5
-1.355, 2.825e-5
-1.354, 2.803e-5
-1.353, 2.798e-5
-1.352, 2.771e-5
-1.351, 2.702e-5
-1.350, 2.655e-5
-1.349, 2.628e-5
-1.348, 2.647e-5
-1.347, 2.604e-5
-1.346, 2.569e-5
-1.345, 2.521e-5
-1.344, 2.464e-5
-1.343, 2.435e-5
-1.342, 2.395e-5
-1.341, 2.347e-5
-1.340, 2.358e-5
-1.339, 2.341e-5
-1.338, 2.321e-5
-1.337, 2.274e-5
-1.336, 2.263e-5
-1.335, 2.251e-5
-1.334, 2.265e-5
-1.333, 2.265e-5
-1.332, 2.216e-5
-1.331, 2.203e-5
-1.330, 2.170e-5
-1.329, 2.160e-5
-1.328, 2.102e-5
-1.327, 2.034e-5
-1.326, 2.048e-5
-1.325, 2.027e-5
-1.324, 2.049e-5
-1.323, 1.991e-5
-1.322, 1.960e-5
-1.321, 1.967e-5
-1.320, 1.934e-5
-1.319, 1.924e-5
-1.318, 1.891e-5
-1.317, 1.915e-5
-1.316, 1.875e-5
-1.315, 1.846e-5
-1.314, 1.828e-5
-1.313, 1.798e-5
-1.312, 1.795e-5
-1.311, 1.762e-5
-1.310, 1.738e-5
-1.309, 1.700e-5
-1.308, 1.679e-5
-1.307, 1.612e-5
-1.306, 1.596e-5
-1.305, 1.575e-5
-1.304, 1.567e-5
-1.303, 1.543e-5
-1.302, 1.526e-5
-1.301, 1.497e-5
-1.300, 1.499e-5
-1.299, 1.492e-5
-1.298, 1.461e-5
-1.297, 1.438e-5
-1.296, 1.408e-5
-1.295, 1.407e-5
-1.294, 1.380e-5
-1.293, 1.372e-5
-1.292, 1.367e-5
-1.291, 1.362e-5
-1.290, 1.355e-5
-1.289, 1.338e-5
-1.288, 1.304e-5
-1.287, 1.283e-5
-1.286, 1.255e-5
-1.285, 1.234e-5
-1.284, 1.219e-5
-1.283, 1.187e-5
-1.282, 1.169e-5
-1.281, 1.134e-5
-1.280, 1.131e-5
-1.279, 1.111e-5
-1.278, 1.088e-5
-1.277, 1.056e-5
-1.276, 1.036e-5
-1.275, 1.036e-5
-1.274, 1.026e-5
-1.273, 1.005e-5
-1.272, 9.651e-6
-1.271, 9.627e-6
-1.270, 9.441e-6
-1.269, 9.161e-6
-1.268, 9.038e-6
-1.267, 8.871e-6
-1.266, 8.691e-6
-1.265, 8.467e-6
-1.264, 8.205e-6
-1.263, 8.060e-6
-1.262, 7.914e-6
-1.261, 7.919e-6
-1.260, 7.611e-6
-1.259, 7.500e-6
-1.258, 7.327e-6
-1.257, 7.173e-6
-1.256, 6.971e-6
-1.255, 6.902e-6
-1.254, 6.704e-6
-1.253, 6.583e-6
-1.252, 6.342e-6
-1.251, 6.147e-6
-1.250, 5.989e-6
-1.249, 5.929e-6
-1.248, 5.592e-6
-1.247, 5.442e-6
-1.246, 5.278e-6
-1.245, 5.253e-6
-1.244, 5.201e-6
-1.243, 4.990e-6
-1.242, 4.822e-6
-1.241, 4.608e-6
-1.240, 4.491e-6
-1.239, 4.409e-6
-1.238, 4.192e-6
-1.237, 4.148e-6
-1.236, 3.931e-6
-1.235, 3.786e-6
-1.234, 3.644e-6
-1.233, 3.522e-6
-1.232, 3.351e-6
-1.231, 3.240e-6
-1.230, 3.164e-6
-1.229, 3.002e-6
-1.228, 2.902e-6
-1.227, 2.798e-6
-1.226, 2.656e-6
-1.225, 2.561e-6
-1.224, 2.446e-6
-1.223, 2.325e-6
-1.222, 2.203e-6
-1.221, 2.104e-6
-1.220, 1.999e-6
-1.219, 1.891e-6
-1.218, 1.808e-6
-1.217, 1.675e-6
-1.216, 1.490e-6
-1.215, 1.414e-6
-1.214, 1.302e-6
-1.213, 1.201e-6
-1.212, 1.116e-6
-1.211, 1.027e-6
-1.210, 9.410e-7
-1.209, 8.414e-7
-1.208, 7.279e-7
-1.207, 6.085e-7
-1.206, 5.355e-7
-1.205, 4.704e-7
-1.204, 3.530e-7
-1.203, 2.494e-7
-1.202, 1.537e-7
-1.201, 8.070e-8
-1.200, 2.249e-8
-1.199, -6.630e-8
-1.198, -1.738e-7
-1.197, -2.557e-7
-1.196, -3.347e-7
-1.195, -3.948e-7
-1.194, -4.826e-7
-1.193, -5.122e-7
-1.192, -6.010e-7
-1.191, -7.017e-7
-1.190, -7.115e-7
-1.189, -8.043e-7
-1.188, -8.645e-7
-1.187, -9.197e-7
-1.186, -1.031e-6
-1.185, -1.060e-6
-1.184, -1.120e-6
-1.183, -1.200e-6
-1.182, -1.234e-6
-1.181, -1.296e-6
-1.180, -1.367e-6
-1.179, -1.443e-6
-1.178, -1.519e-6
-1.177, -1.597e-6
-1.176, -1.656e-6
-1.175, -1.699e-6
-1.174, -1.792e-6
-1.173, -1.751e-6
-1.172, -1.854e-6
-1.171, -1.959e-6
-1.170, -1.971e-6
-1.169, -2.044e-6
-1.168, -2.052e-6
-1.167, -2.108e-6
-1.166, -2.112e-6
-1.165, -2.178e-6
-1.164, -2.251e-6
-1.163, -2.270e-6
-1.162, -2.318e-6
-1.161, -2.340e-6
-1.160, -2.387e-6
-1.159, -2.448e-6
-1.158, -2.489e-6
-1.157, -2.525e-6
-1.156, -2.504e-6
-1.155, -2.525e-6
-1.154, -2.564e-6
-1.153, -2.617e-6
-1.152, -2.664e-6
-1.151, -2.716e-6
-1.150, -2.780e-6
-1.149, -2.827e-6
-1.148, -2.880e-6
-1.147, -2.926e-6
-1.146, -3.020e-6
-1.145, -3.069e-6
-1.144, -3.006e-6
-1.143, -3.103e-6
-1.142, -3.093e-6
-1.141, -3.121e-6
-1.140, -3.162e-6
-1.139, -3.153e-6
-1.138, -3.192e-6
-1.137, -3.267e-6
-1.136, -3.276e-6
-1.135, -3.325e-6
-1.134, -3.351e-6
-1.133, -3.405e-6
-1.132, -3.378e-6
-1.131, -3.395e-6
-1.130, -3.408e-6
-1.129, -3.447e-6
-1.128, -3.462e-6
-1.127, -3.505e-6
-1.126, -3.544e-6
-1.125, -3.555e-6
-1.124, -3.610e-6
-1.123, -3.568e-6
-1.122, -3.536e-6
-1.121, -3.635e-6
-1.120, -3.630e-6
-1.119, -3.716e-6
-1.118, -3.710e-6
-1.117, -3.757e-6
-1.116, -3.820e-6
-1.115, -3.788e-6
-1.114, -3.835e-6
-1.113, -3.940e-6
-1.112, -4.004e-6
-1.111, -4.043e-6
-1.110, -3.973e-6
-1.109, -4.003e-6
-1.108, -3.973e-6
-1.107, -4.033e-6
-1.106, -4.078e-6
-1.105, -4.098e-6
-1.104, -4.137e-6
-1.103, -4.095e-6
-1.102, -4.146e-6
-1.101, -4.205e-6
-1.100, -4.157e-6
-1.099, -4.276e-6
-1.098, -4.250e-6
-1.097, -4.332e-6
-1.096, -4.248e-6
-1.095, -4.341e-6
-1.094, -4.369e-6
-1.093, -4.287e-6
-1.092, -4.333e-6
-1.091, -4.335e-6
-1.090, -4.348e-6
-1.089, -4.361e-6
-1.088, -4.408e-6
-1.087, -4.494e-6
-1.086, -4.440e-6
-1.085, -4.485e-6
-1.084, -4.512e-6
-1.083, -4.485e-6
-1.082, -4.513e-6
-1.081, -4.550e-6
-1.080, -4.552e-6
-1.079, -4.597e-6
-1.078, -4.638e-6
-1.077, -4.670e-6
-1.076, -4.657e-6
-1.075, -4.629e-6
-1.074, -4.670e-6
-1.073, -4.709e-6
-1.072, -4.780e-6
-1.071, -4.807e-6
-1.070, -4.883e-6
-1.069, -4.963e-6
-1.068, -4.965e-6
-1.067, -4.941e-6
-1.066, -4.909e-6
-1.065, -4.832e-6
-1.064, -4.846e-6
-1.063, -4.935e-6
-1.062, -4.913e-6
-1.061, -4.896e-6
-1.060, -4.903e-6
-1.059, -4.937e-6
-1.058, -4.989e-6
-1.057, -5.047e-6
-1.056, -5.208e-6
-1.055, -5.260e-6
-1.054, -5.233e-6
-1.053, -5.187e-6
-1.052, -5.242e-6
-1.051, -5.385e-6
-1.050, -5.416e-6
-1.049, -5.366e-6
-1.048, -5.349e-6
-1.047, -5.424e-6
-1.046, -5.459e-6
-1.045, -5.352e-6
-1.044, -5.461e-6
-1.043, -5.441e-6
-1.042, -5.421e-6
-1.041, -5.517e-6
-1.040, -5.446e-6
-1.039, -5.552e-6
-1.038, -5.493e-6
-1.037, -5.537e-6
-1.036, -5.603e-6
-1.035, -5.628e-6
-1.034, -5.639e-6
-1.033, -5.665e-6
-1.032, -5.637e-6
-1.031, -5.686e-6
-1.030, -5.756e-6
-1.029, -5.779e-6
-1.028, -5.771e-6
-1.027, -5.835e-6
-1.026, -5.717e-6
-1.025, -5.802e-6
-1.024, -5.792e-6
-1.023, -5.768e-6
-1.022, -5.833e-6
-1.021, -5.849e-6
-1.020, -5.862e-6
-1.019, -5.867e-6
-1.018, -5.963e-6
-1.017, -5.984e-6
-1.016, -5.877e-6
-1.015, -5.997e-6
-1.014, -5.989e-6
-1.013, -5.997e-6
-1.012, -6.103e-6
-1.011, -6.053e-6
-1.010, -6.001e-6
-1.009, -6.112e-6
-1.008, -6.102e-6
-1.007, -6.232e-6
-1.006, -6.168e-6
-1.005, -6.111e-6
-1.004, -6.064e-6
-1.003, -6.169e-6
-1.002, -6.095e-6
-1.001, -6.038e-6
-1.000, -5.286e-6
-1.001, -4.193e-6
-1.002, -3.386e-6
-1.003, -2.793e-6
-1.004, -2.246e-6
-1.005, -1.888e-6
-1.006, -1.530e-6
-1.007, -1.224e-6
-1.008, -9.671e-7
-1.009, -7.530e-7
-1.010, -5.379e-7
-1.011, -3.287e-7
-1.012, -1.581e-7
-1.013, -8.090e-9
-1.014, 1.429e-7
-1.015, 2.800e-7
-1.016, 3.974e-7
-1.017, 5.178e-7
-1.018, 6.391e-7
-1.019, 7.467e-7
-1.020, 8.414e-7
-1.021, 9.272e-7
-1.022, 1.028e-6
-1.023, 1.102e-6
-1.024, 1.210e-6
-1.025, 1.278e-6
-1.026, 1.346e-6
-1.027, 1.421e-6
-1.028, 1.485e-6
-1.029, 1.572e-6
-1.030, 1.669e-6
-1.031, 1.722e-6
-1.032, 1.780e-6
-1.033, 1.844e-6
-1.034, 1.927e-6
-1.035, 1.951e-6
-1.036, 1.983e-6
-1.037, 2.048e-6
-1.038, 2.121e-6
-1.039, 2.163e-6
-1.040, 2.208e-6
-1.041, 2.255e-6
-1.042, 2.304e-6
-1.043, 2.352e-6
-1.044, 2.414e-6
-1.045, 2.452e-6
-1.046, 2.493e-6
-1.047, 2.524e-6
-1.048, 2.562e-6
-1.049, 2.603e-6
-1.050, 2.645e-6
-1.051, 2.685e-6
-1.052, 2.700e-6
-1.053, 2.748e-6
-1.054, 2.819e-6
-1.055, 2.848e-6
-1.056, 2.852e-6
-1.057, 2.910e-6
-1.058, 2.938e-6
-1.059, 2.974e-6
-1.060, 3.016e-6
-1.061, 3.009e-6
-1.062, 3.056e-6
-1.063, 3.077e-6
-1.064, 3.112e-6
-1.065, 3.141e-6
-1.066, 3.184e-6
-1.067, 3.191e-6
-1.068, 3.225e-6
-1.069, 3.277e-6
-1.070, 3.262e-6
-1.071, 3.293e-6
-1.072, 3.329e-6
-1.073, 3.372e-6
-1.074, 3.396e-6
-1.075, 3.432e-6
-1.076, 3.441e-6
-1.077, 3.452e-6
-1.078, 3.501e-6
-1.079, 3.529e-6
-1.080, 3.558e-6
-1.081, 3.555e-6
-1.082, 3.583e-6
-1.083, 3.607e-6
-1.084, 3.631e-6
-1.085, 3.669e-6
-1.086, 3.673e-6
-1.087, 3.698e-6
-1.088, 3.722e-6
-1.089, 3.777e-6
-1.090, 3.744e-6
-1.091, 3.797e-6
-1.092, 3.802e-6
-1.093, 3.818e-6
-1.094, 3.839e-6
-1.095, 3.883e-6
-1.096, 3.919e-6
-1.097, 3.940e-6
-1.098, 3.953e-6
-1.099, 3.949e-6
-1.100, 3.955e-6
-1.101, 4.010e-6
-1.102, 3.985e-6
-1.103, 4.043e-6
-1.104, 4.068e-6
-1.105, 4.092e-6
-1.106, 4.082e-6
-1.107, 4.109e-6
-1.108, 4.161e-6
-1.109, 4.187e-6
-1.110, 4.218e-6
-1.111, 4.233e-6
-1.112, 4.236e-6
-1.113, 4.254e-6
-1.114, 4.280e-6
-1.115, 4.295e-6
-1.116, 4.313e-6
-1.117, 4.320e-6
-1.118, 4.355e-6
-1.119, 4.354e-6
-1.120, 4.400e-6
-1.121, 4.412e-6
-1.122, 4.440e-6
-1.123, 4.466e-6
-1.124, 4.442e-6
-1.125, 4.469e-6
-1.126, 4.496e-6
-1.127, 4.557e-6
-1.128, 4.547e-6
-1.129, 4.574e-6
-1.130, 4.623e-6
-1.131, 4.607e-6
-1.132, 4.653e-6
-1.133, 4.667e-6
-1.134, 4.654e-6
-1.135, 4.702e-6
-1.136, 4.727e-6
-1.137, 4.777e-6
-1.138, 4.769e-6
-1.139, 4.815e-6
-1.140, 4.831e-6
-1.141, 4.840e-6
-1.142, 4.851e-6
-1.143, 4.868e-6
-1.144, 4.911e-6
-1.145, 4.903e-6
-1.146, 4.971e-6
-1.147, 5.032e-6
-1.148, 5.013e-6
-1.149, 5.028e-6
-1.150, 5.058e-6
-1.151, 5.093e-6
-1.152, 5.089e-6
-1.153, 5.109e-6
-1.154, 5.146e-6
-1.155, 5.122e-6
-1.156, 5.164e-6
-1.157, 5.202e-6
-1.158, 5.234e-6
-1.159, 5.250e-6
-1.160, 5.257e-6
-1.161, 5.325e-6
-1.162, 5.300e-6
-1.163, 5.332e-6
-1.164, 5.364e-6
-1.165, 5.387e-6
-1.166, 5.472e-6
-1.167, 5.465e-6
-1.168, 5.501e-6
-1.169, 5.526e-6
-1.170, 5.523e-6
-1.171, 5.593e-6
-1.172, 5.609e-6
-1.173, 5.651e-6
-1.174, 5.691e-6
-1.175, 5.749e-6
-1.176, 5.790e-6
-1.177, 5.762e-6
-1.178, 5.826e-6
-1.179, 5.842e-6
-1.180, 5.874e-6
-1.181, 5.879e-6
-1.182, 5.918e-6
-1.183, 5.980e-6
-1.184, 6.030e-6
-1.185, 6.103e-6
-1.186, 6.125e-6
-1.187, 6.103e-6
-1.188, 6.200e-6
-1.189, 6.175e-6
-1.190, 6.227e-6
-1.191, 6.276e-6
-1.192, 6.293e-6
-1.193, 6.322e-6
-1.194, 6.275e-6
-1.195, 6.323e-6
-1.196, 6.341e-6
-1.197, 6.375e-6
-1.198, 6.442e-6
-1.199, 6.497e-6
-1.200, 6.554e-6
-1.201, 6.545e-6
-1.202, 6.577e-6
-1.203, 6.635e-6
-1.204, 6.684e-6
-1.205, 6.755e-6
-1.206, 6.785e-6
-1.207, 6.838e-6
-1.208, 6.880e-6
-1.209, 6.964e-6
-1.210, 7.075e-6
-1.211, 7.106e-6
-1.212, 7.193e-6
-1.213, 7.180e-6
-1.214, 7.308e-6
-1.215, 7.382e-6
-1.216, 7.457e-6
-1.217, 7.494e-6
-1.218, 7.502e-6
-1.219, 7.571e-6
-1.220, 7.646e-6
-1.221, 7.690e-6
-1.222, 7.761e-6
-1.223, 7.878e-6
-1.224, 7.932e-6
-1.225, 7.930e-6
-1.226, 7.995e-6
-1.227, 8.039e-6
-1.228, 8.089e-6
-1.229, 8.227e-6
-1.230, 8.237e-6
-1.231, 8.359e-6
-1.232, 8.447e-6
-1.233, 8.552e-6
-1.234, 8.591e-6
-1.235, 8.599e-6
-1.236, 8.732e-6
-1.237, 8.785e-6
-1.238, 8.827e-6
-1.239, 8.950e-6
-1.240, 9.002e-6
-1.241, 9.132e-6
-1.242, 9.208e-6
-1.243, 9.434e-6
-1.244, 9.522e-6
-1.245, 9.571e-6
-1.246, 9.673e-6
-1.247, 9.679e-6
-1.248, 9.643e-6
-1.249, 9.668e-6
-1.250, 9.700e-6
-1.251, 9.947e-6
-1.252, 1.002e-5
-1.253, 1.015e-5
-1.254, 1.016e-5
-1.255, 1.042e-5
-1.256, 1.043e-5
-1.257, 1.061e-5
-1.258, 1.076e-5
-1.259, 1.079e-5
-1.260, 1.098e-5
-1.261, 1.107e-5
-1.262, 1.135e-5
-1.263, 1.144e-5
-1.264, 1.155e-5
-1.265, 1.173e-5
-1.266, 1.175e-5
-1.267, 1.173e-5
-1.268, 1.181e-5
-1.269, 1.198e-5
-1.270, 1.206e-5
-1.271, 1.225e-5
-1.272, 1.244e-5
-1.273, 1.265e-5
-1.274, 1.279e-5
-1.275, 1.295e-5
-1.276, 1.299e-5
-1.277, 1.318e-5
-1.278, 1.325e-5
-1.279, 1.340e-5
-1.280, 1.358e-5
-1.281, 1.367e-5
-1.282, 1.377e-5
-1.283, 1.381e-5
-1.284, 1.403e-5
-1.285, 1.415e-5
-1.286, 1.433e-5
-1.287, 1.454e-5
-1.288, 1.442e-5
-1.289, 1.467e-5
-1.290, 1.471e-5
-1.291, 1.504e-5
-1.292, 1.519e-5
-1.293, 1.533e-5
-1.294, 1.563e-5
-1.295, 1.567e-5
-1.296, 1.589e-5
-1.297, 1.604e-5
-1.298, 1.619e-5
-1.299, 1.638e-5
-1.300, 1.633e-5
-1.301, 1.675e-5
-1.302, 1.689e-5
-1.303, 1.701e-5
-1.304, 1.714e-5
-1.305, 1.717e-5
-1.306, 1.761e-5
-1.307, 1.755e-5
-1.308, 1.776e-5
-1.309, 1.772e-5
-1.310, 1.772e-5
-1.311, 1.812e-5
-1.312, 1.812e-5
-1.313, 1.839e-5
-1.314, 1.847e-5
-1.315, 1.880e-5
-1.316, 1.917e-5
-1.317, 1.920e-5
-1.318, 1.956e-5
-1.319, 1.982e-5
-1.320, 1.992e-5
-1.321, 2.061e-5
-1.322, 2.083e-5
-1.323, 2.075e-5
-1.324, 2.056e-5
-1.325, 2.080e-5
-1.326, 2.096e-5
-1.327, 2.099e-5
-1.328, 2.128e-5
-1.329, 2.130e-5
-1.330, 2.177e-5
-1.331, 2.191e-5
-1.332, 2.236e-5
-1.333, 2.268e-5
-1.334, 2.265e-5
-1.335, 2.287e-5
-1.336, 2.300e-5
-1.337, 2.310e-5
-1.338, 2.331e-5
-1.339, 2.350e-5
-1.340, 2.375e-5
-1.341, 2.385e-5
-1.342, 2.433e-5
-1.343, 2.442e-5
-1.344, 2.475e-5
-1.345, 2.513e-5
-1.346, 2.515e-5
-1.347, 2.554e-5
-1.348, 2.547e-5
-1.349, 2.619e-5
-1.350, 2.619e-5
-1.351, 2.628e-5
-1.352, 2.691e-5
-1.353, 2.706e-5
-1.354, 2.775e-5
-1.355, 2.774e-5
-1.356, 2.814e-5
-1.357, 2.821e-5
-1.358, 2.812e-5
-1.359, 2.848e-5
-1.360, 2.814e-5
-1.361, 2.854e-5
-1.362, 2.906e-5
-1.363, 2.902e-5
-1.364, 2.936e-5
-1.365, 2.984e-5
-1.366, 3.035e-5
-1.367, 3.084e-5
-1.368, 3.060e-5
-1.369, 3.125e-5
-1.370, 3.125e-5
-1.371, 3.171e-5
-1.372, 3.181e-5
-1.373, 3.188e-5
-1.374, 3.213e-5
-1.375, 3.206e-5
-1.376, 3.243e-5
-1.377, 3.282e-5
-1.378, 3.279e-5
-1.379, 3.303e-5
-1.380, 3.353e-5
-1.381, 3.403e-5
-1.382, 3.373e-5
-1.383, 3.422e-5
-1.384, 3.449e-5
-1.385, 3.467e-5
-1.386, 3.487e-5
-1.387, 3.476e-5
-1.388, 3.545e-5
-1.389, 3.552e-5
-1.390, 3.581e-5
-1.391, 3.597e-5
-1.392, 3.607e-5
-1.393, 3.653e-5
-1.394, 3.682e-5
-1.395, 3.718e-5
-1.396, 3.746e-5
-1.397, 3.740e-5
-1.398, 3.799e-5
-1.399, 3.771e-5
-1.400, 3.839e-5
-1.401, 3.866e-5
-1.402, 3.879e-5
-1.403, 3.949e-5
-1.404, 3.958e-5
-1.405, 4.005e-5
-1.406, 4.000e-5
-1.407, 4.072e-5
-1.408, 4.099e-5
-1.409, 4.143e-5
-1.410, 4.215e-5
-1.411, 4.194e-5
-1.412, 4.227e-5
-1.413, 4.229e-5
-1.414, 4.285e-5
-1.415, 4.270e-5
-1.416, 4.278e-5
-1.417, 4.356e-5
-1.418, 4.361e-5
-1.419, 4.431e-5
-1.420, 4.452e-5
-1.421, 4.478e-5
-1.422, 4.535e-5
-1.423, 4.505e-5
-1.424, 4.640e-5
-1.425, 4.626e-5
-1.426, 4.675e-5
-1.427, 4.728e-5
-1.428, 4.713e-5
-1.429, 4.797e-5
-1.430, 4.790e-5
-1.431, 4.891e-5
-1.432, 4.850e-5
-1.433, 4.832e-5
-1.434, 4.938e-5
-1.435, 4.923e-5
-1.436, 4.940e-5
-1.437, 5.003e-5
-1.438, 5.048e-5
-1.439, 5.121e-5
-1.440, 5.081e-5
-1.441, 5.249e-5
-1.442, 5.153e-5
-1.443, 5.237e-5
-1.444, 5.298e-5
-1.445, 5.233e-5
-1.446, 5.350e-5
-1.447, 5.302e-5
-1.448, 5.478e-5
-1.449, 5.474e-5
-1.450, 5.458e-5
-1.451, 5.556e-5
-1.452, 5.507e-5
-1.453, 5.606e-5
-1.454, 5.602e-5
-1.455, 5.726e-5
-1.456, 5.713e-5
-1.457, 5.632e-5
-1.458, 5.702e-5
-1.459, 5.720e-5
-1.460, 5.751e-5
-1.461, 5.835e-5
-1.462, 5.828e-5
-1.463, 5.888e-5
-1.464, 5.897e-5
-1.465, 5.964e-5
-1.466, 6.044e-5
-1.467, 6.106e-5
-1.468, 6.168e-5
-1.469, 6.151e-5
-1.470, 6.250e-5
-1.471, 6.251e-5
-1.472, 6.332e-5
-1.473, 6.360e-5
-1.474, 6.348e-5
-1.475, 6.405e-5
-1.476, 6.422e-5
-1.477, 6.467e-5
-1.478, 6.553e-5
-1.479, 6.604e-5
-1.480, 6.661e-5
-1.481, 6.608e-5
-1.482, 6.687e-5
-1.483, 6.739e-5
-1.484, 6.799e-5
-1.485, 6.914e-5
-1.486, 6.861e-5
-1.487, 6.926e-5
-1.488, 6.959e-5
-1.489, 7.028e-5
-1.490, 7.084e-5
-1.491, 7.120e-5
-1.492, 7.164e-5
-1.493, 7.153e-5
-1.494, 7.227e-5
-1.495, 7.312e-5
-1.496, 7.342e-5
-1.497, 7.419e-5
-1.498, 7.396e-5
-1.499, 7.436e-5
-1.500, 7.438e-5
-1.501, 7.406e-5
-1.502, 7.497e-5
-1.503, 7.476e-5
-1.504, 7.555e-5
-1.505, 7.544e-5
-1.506, 7.581e-5
-1.507, 7.606e-5
-1.508, 7.660e-5
-1.509, 7.692e-5
-1.510, 7.672e-5
-1.511, 7.788e-5
-1.512, 7.852e-5
-1.513, 7.964e-5
-1.514, 8.009e-5
-1.515, 8.017e-5
-1.516, 8.128e-5
-1.517, 8.167e-5
-1.518, 8.271e-5
-1.519, 8.240e-5
-1.520, 8.259e-5
-1.521, 8.361e-5
-1.522, 8.256e-5
-1.523, 8.393e-5
-1.524, 8.415e-5
-1.525, 8.454e-5
-1.526, 8.589e-5
-1.527, 8.523e-5
-1.528, 8.672e-5
-1.529, 8.666e-5
-1.530, 8.803e-5
-1.531, 8.804e-5
-1.532, 8.830e-5
-1.533, 8.920e-5
-1.534, 8.945e-5
-1.535, 9.097e-5
-1.536, 9.152e-5
-1.537, 9.252e-5
-1.538, 9.369e-5
-1.539, 9.224e-5
-1.540, 9.354e-5
-1.541, 9.345e-5
-1.542, 9.544e-5
-1.543, 9.555e-5
-1.544, 9.609e-5
-1.545, 9.634e-5
-1.546, 9.616e-5
-1.547, 9.821e-5
-1.548, 9.858e-5
-1.549, 9.757e-5
-1.550, 9.879e-5
-1.551, 9.760e-5
-1.552, 9.957e-5
-1.553, 9.972e-5
-1.554, 1.009e-4
-1.555, 1.021e-4
-1.556, 1.014e-4
-1.557, 1.029e-4
-1.558, 1.029e-4
-1.559, 1.044e-4
-1.560, 1.045e-4
-1.561, 1.046e-4
-1.562, 1.063e-4
-1.563, 1.059e-4
-1.564, 1.073e-4
-1.565, 1.075e-4
-1.566, 1.091e-4
-1.567, 1.107e-4
-1.568, 1.098e-4
-1.569, 1.114e-4
-1.570, 1.119e-4
-1.571, 1.135e-4
-1.572, 1.140e-4
-1.573, 1.136e-4
-1.574, 1.149e-4
-1.575, 1.144e-4
-1.576, 1.160e-4
-1.577, 1.149e-4
-1.578, 1.162e-4
-1.579, 1.180e-4
-1.580, 1.163e-4
-1.581, 1.195e-4
-1.582, 1.187e-4
-1.583, 1.217e-4
-1.584, 1.239e-4
-1.585, 1.227e-4
-1.586, 1.233e-4
-1.587, 1.235e-4
-1.588, 1.255e-4
-1.589, 1.259e-4
-1.590, 1.256e-4
-1.591, 1.270e-4
-1.592, 1.271e-4
-1.593, 1.291e-4
-1.594, 1.299e-4
-1.595, 1.306e-4
-1.596, 1.317e-4
-1.597, 1.321e-4
-1.598, 1.341e-4
-1.599, 1.347e-4
-1.600, 1.372e-4
-1.601, 1.376e-4
-1.602, 1.372e-4
-1.603, 1.387e-4
-1.604, 1.397e-4
-1.605, 1.425e-4
-1.606, 1.416e-4
-1.607, 1.421e-4
-1.608, 1.441e-4
-1.609, 1.425e-4
-1.610, 1.443e-4
-1.611, 1.449e-4
-1.612, 1.455e-4
-1.613, 1.467e-4
-1.614, 1.469e-4
-1.615, 1.496e-4
-1.616, 1.499e-4
-1.617, 1.528e-4
-1.618, 1.540e-4
-1.619, 1.555e-4
-1.620, 1.575e-4
-1.621, 1.576e-4
-1.622, 1.611e-4
-1.623, 1.601e-4
-1.624, 1.631e-4
-1.625, 1.642e-4
-1.626, 1.622e-4
-1.627, 1.642e-4
-1.628, 1.648e-4
-1.629, 1.680e-4
-1.630, 1.685e-4
-1.631, 1.680e-4
-1.632, 1.699e-4
-1.633, 1.697e-4
-1.634, 1.729e-4
-1.635, 1.743e-4
-1.636, 1.763e-4
-1.637, 1.793e-4
-1.638, 1.777e-4
-1.639, 1.809e-4
-1.640, 1.825e-4
-1.641, 1.831e-4
-1.642, 1.834e-4
-1.643, 1.859e-4
-1.644, 1.872e-4
-1.645, 1.849e-4
-1.646, 1.901e-4
-1.647, 1.884e-4
-1.648, 1.915e-4
-1.649, 1.938e-4
-1.650, 1.937e-4
-1.651, 1.942e-4
-1.652, 1.953e-4
-1.653, 2.002e-4
-1.654, 2.010e-4
-1.655, 2.006e-4
-1.656, 2.046e-4
-1.657, 2.048e-4
-1.658, 2.061e-4
-1.659, 2.049e-4
-1.660, 2.067e-4
-1.661, 2.080e-4
-1.662, 2.112e-4
-1.663, 2.141e-4
-1.664, 2.095e-4
-1.665, 2.120e-4
-1.666, 2.139e-4
-1.667, 2.150e-4
-1.668, 2.212e-4
-1.669, 2.190e-4
-1.670, 2.239e-4
-1.671, 2.263e-4
-1.672, 2.254e-4
-1.673, 2.250e-4
-1.674, 2.282e-4
-1.675, 2.363e-4
-1.676, 2.356e-4
-1.677, 2.414e-4
-1.678, 2.401e-4
-1.679, 2.382e-4
-1.680, 2.418e-4
-1.681, 2.404e-4
-1.682, 2.460e-4
-1.683, 2.532e-4
-1.684, 2.558e-4
-1.685, 2.554e-4
-1.686, 2.529e-4
-1.687, 2.572e-4
-1.688, 2.543e-4
-1.689, 2.579e-4
-1.690, 2.661e-4
-1.691, 2.653e-4
-1.692, 2.679e-4
-1.693, 2.672e-4
-1.694, 2.695e-4
-1.695, 2.735e-4
-1.696, 2.739e-4
-1.697, 2.809e-4
-1.698, 2.802e-4
-1.699, 2.818e-4
-1.700, 2.840e-4
-1.699, 2.871e-4
-1.698, 2.884e-4
-1.697, 2.867e-4
-1.696, 2.886e-4
-1.695, 2.766e-4
-1.694, 2.749e-4
-1.693, 2.784e-4
-1.692, 2.757e-4
-1.691, 2.803e-4
-1.690, 2.725e-4
-1.689, 2.705e-4
-1.688, 2.671e-4
-1.687, 2.651e-4
-1.686, 2.677e-4
-1.685, 2.607e-4
-1.684, 2.561e-4
-1.683, 2.542e-4
-1.682, 2.537e-4
-1.681, 2.553e-4
-1.680, 2.469e-4
-1.679, 2.472e-4
-1.678, 2.485e-4
-1.677, 2.459e-4
-1.676, 2.473e-4
-1.675, 2.390e-4
-1.674, 2.395e-4
-1.673, 2.360e-4
-1.672, 2.364e-4
-1.671, 2.350e-4
-1.670, 2.344e-4
-1.669, 2.313e-4
-1.668, 2.266e-4
-1.667, 2.263e-4
-1.666, 2.237e-4
-1.665, 2.264e-4
-1.664, 2.262e-4
-1.663, 2.204e-4
-1.662, 2.190e-4
-1.661, 2.145e-4
-1.660, 2.144e-4
-1.659, 2.139e-4
-1.658, 2.134e-4
-1.657, 2.115e-4
-1.656, 2.076e-4
-1.655, 2.088e-4
-1.654, 2.050e-4
-1.653, 2.045e-4
-1.652, 2.029e-4
-1.651, 1.989e-4
-1.650, 2.026e-4
-1.649, 2.023e-4
-1.648, 2.016e-4
-1.647, 1.980e-4
-1.646, 1.942e-4
-1.645, 1.955e-4
-1.644, 1.913e-4
-1.643, 1.921e-4
-1.642, 1.877e-4
-1.641, 1.855e-4
-1.640, 1.887e-4
-1.639, 1.875e-4
-1.638, 1.913e-4
-1.637, 1.875e-4
-1.636, 1.832e-4
-1.635, 1.818e-4
-1.634, 1.791e-4
-1.633, 1.787e-4
-1.632, 1.768e-4
-1.631, 1.777e-4
-1.630, 1.769e-4
-1.629, 1.755e-4
-1.628, 1.767e-4
-1.627, 1.716e-4
-1.626, 1.718e-4
-1.625, 1.682e-4
-1.624, 1.673e-4
-1.623, 1.684e-4
-1.622, 1.670e-4
-1.621, 1.676e-4
-1.620, 1.655e-4
-1.619, 1.655e-4
-1.618, 1.647e-4
-1.617, 1.622e-4
-1.616, 1.640e-4
-1.615, 1.610e-4
-1.614, 1.618e-4
-1.613, 1.623e-4
-1.612, 1.607e-4
-1.611, 1.621e-4
-1.610, 1.588e-4
-1.609, 1.579e-4
-1.608, 1.546e-4
-1.607, 1.552e-4
-1.606, 1.562e-4
-1.605, 1.544e-4
-1.604, 1.526e-4
-1.603, 1.491e-4
-1.602, 1.503e-4
-1.601, 1.502e-4
-1.600, 1.521e-4
-1.599, 1.550e-4
-1.598, 1.512e-4
-1.597, 1.498e-4
-1.596, 1.493e-4
-1.595, 1.490e-4
-1.594, 1.492e-4
-1.593, 1.465e-4
-1.592, 1.481e-4
-1.591, 1.471e-4
-1.590, 1.464e-4
-1.589, 1.464e-4
-1.588, 1.433e-4
-1.587, 1.438e-4
-1.586, 1.416e-4
-1.585, 1.409e-4
-1.584, 1.411e-4
-1.583, 1.411e-4
-1.582, 1.395e-4
-1.581, 1.357e-4
-1.580, 1.362e-4
-1.579, 1.341e-4
-1.578, 1.354e-4
-1.577, 1.340e-4
-1.576, 1.337e-4
-1.575, 1.330e-4
-1.574, 1.306e-4
-1.573, 1.294e-4
-1.572, 1.288e-4
-1.571, 1.280e-4
-1.570, 1.294e-4
-1.569, 1.280e-4
-1.568, 1.281e-4
-1.567, 1.271e-4
-1.566, 1.263e-4
-1.565, 1.253e-4
-1.564, 1.251e-4
-1.563, 1.264e-4
-1.562, 1.248e-4
-1.561, 1.248e-4
-1.560, 1.245e-4
-1.559, 1.245e-4
-1.558, 1.246e-4
-1.557, 1.227e-4
-1.556, 1.253e-4
-1.555, 1.208e-4
-1.554, 1.197e-4
-1.553, 1.192e-4
-1.552, 1.157e-4
-1.551, 1.172e-4
-1.550, 1.167e-4
-1.549, 1.165e-4
-1.548, 1.156e-4
-1.547, 1.140e-4
-1.546, 1.133e-4
-1.545, 1.113e-4
-1.544, 1.095e-4
-1.543, 1.077e-4
-1.542, 1.079e-4
-1.541, 1.087e-4
-1.540, 1.068e-4
-1.539, 1.102e-4
-1.538, 1.049e-4
-1.537, 1.048e-4
-1.536, 1.056e-4
-1.535, 1.052e-4
-1.534, 1.036e-4
-1.533, 1.019e-4
-1.532, 1.019e-4
-1.531, 1.015e-4
-1.530, 1.014e-4
-1.529, 1.029e-4
-1.528, 1.009e-4
-1.527, 1.018e-4
-1.526, 1.017e-4
-1.525, 1.008e-4
-1.524, 9.960e-5
-1.523, 9.864e-5
-1.522, 9.908e-5
-1.521, 9.769e-5
-1.520, 9.912e-5
-1.519, 9.910e-5
-1.518, 9.863e-5
-1.517, 9.783e-5
-1.516, 9.510e-5
-1.515, 9.719e-5
-1.514, 9.535e-5
-1.513, 9.392e-5
-1.512, 9.378e-5
-1.511, 8.857e-5
-1.510, 8.909e-5
-1.509, 8.884e-5
-1.508, 8.843e-5
-1.507, 8.819e-5
-1.506, 8.648e-5
-1.505, 8.722e-5
-1.504, 8.722e-5
-1.503, 8.792e-5
-1.502, 8.616e-5
-1.501, 8.525e-5
-1.500, 8.486e-5
-1.499, 8.268e-5
-1.498, 8.238e-5
-1.497, 8.199e-5
-1.496, 8.153e-5
-1.495, 8.200e-5
-1.494, 8.007e-5
-1.493, 7.962e-5
-1.492, 7.916e-5
-1.491, 7.912e-5
-1.490, 7.845e-5
-1.489, 7.739e-5
-1.488, 7.791e-5
-1.487, 7.598e-5
-1.486, 7.615e-5
-1.485, 7.538e-5
-1.484, 7.571e-5
-1.483, 7.678e-5
-1.482, 7.383e-5
-1.481, 7.448e-5
-1.480, 7.357e-5
-1.479, 7.335e-5
-1.478, 7.390e-5
-1.477, 7.195e-5
-1.476, 7.205e-5
-1.475, 7.145e-5
-1.474, 7.149e-5
-1.473, 7.140e-5
-1.472, 7.094e-5
-1.471, 7.135e-5
-1.470, 6.897e-5
-1.469, 6.978e-5
-1.468, 6.910e-5
-1.467, 6.844e-5
-1.466, 6.935e-5
-1.465, 6.879e-5
-1.464, 6.800e-5
-1.463, 6.709e-5
-1.462, 6.688e-5
-1.461, 6.636e-5
-1.460, 6.571e-5
-1.459, 6.580e-5
-1.458, 6.490e-5
-1.457, 6.584e-5
-1.456, 6.395e-5
-1.455, 6.295e-5
-1.454, 6.277e-5
-1.453, 6.345e-5
-1.452, 6.325e-5
-1.451, 6.106e-5
-1.450, 6.001e-5
-1.449, 5.997e-5
-1.448, 5.955e-5
-1.447, 5.973e-5
-1.446, 5.857e-5
-1.445, 5.923e-5
-1.444, 5.847e-5
-1.443, 5.745e-5
-1.442, 5.828e-5
-1.441, 5.695e-5
-1.440, 5.731e-5
-1.439, 5.716e-5
-1.438, 5.697e-5
-1.437, 5.736e-5
-1.436, 5.620e-5
-1.435, 5.610e-5
-1.434, 5.538e-5
-1.433, 5.454e-5
-1.432, 5.396e-5
-1.431, 5.441e-5
-1.430, 5.489e-5
-1.429, 5.268e-5
-1.428, 5.407e-5
-1.427, 5.284e-5
-1.426, 5.232e-5
-1.425, 5.295e-5
-1.424, 5.106e-5
-1.423, 5.127e-5
-1.422, 5.075e-5
-1.421, 5.088e-5
-1.420, 4.988e-5
-1.419, 5.003e-5
-1.418, 5.022e-5
-1.417, 4.879e-5
-1.416, 4.915e-5
-1.415, 4.883e-5
-1.414, 4.908e-5
-1.413, 4.852e-5
-1.412, 4.714e-5
-1.411, 4.772e-5
-1.410, 4.624e-5
-1.409, 4.629e-5
-1.408, 4.615e-5
-1.407, 4.507e-5
-1.406, 4.503e-5
-1.405, 4.410e-5
-1.404, 4.507e-5
-1.403, 4.368e-5
-1.402, 4.303e-5
-1.401, 4.366e-5
-1.400, 4.241e-5
-1.399, 4.329e-5
-1.398, 4.250e-5
-1.397, 4.235e-5
-1.396, 4.221e-5
-1.395, 4.165e-5
-1.394, 4.174e-5
-1.393, 4.078e-5
-1.392, 4.170e-5
-1.391, 4.074e-5
-1.390, 3.997e-5
-1.389, 4.017e-5
-1.388, 3.866e-5
-1.387, 3.898e-5
-1.386, 3.895e-5
-1.385, 3.905e-5
-1.384, 3.853e-5
-1.383, 3.724e-5
-1.382, 3.735e-5
-1.381, 3.674e-5
-1.380, 3.624e-5
-1.379, 3.567e-5
-1.378, 3.555e-5
-1.377, 3.572e-5
-1.376, 3.477e-5
-1.375, 3.498e-5
-1.374, 3.457e-5
-1.373, 3.430e-5
-1.372, 3.421e-5
-1.371, 3.328e-5
-1.370, 3.345e-5
-1.369, 3.274e-5
-1.368, 3.336e-5
-1.367, 3.302e-5
-1.366, 3.233e-5
-1.365, 3.239e-5
-1.364, 3.136e-5
-1.363, 3.095e-5
-1.362, 3.057e-5
-1.361, 3.080e-5
-1.360, 3.118e-5
-1.359, 3.054e-5
-1.358, 3.132e-5
-1.357, 3.023e-5
-1.356, 3.027e-5
-1.355, 3.005e-5
-1.354, 2.995e-5
-1.353, 2.991e-5
-1.352, 2.901e-5
-1.351, 2.817e-5
-1.350, 2.739e-5
-1.349, 2.725e-5
-1.348, 2.699e-5
-1.347, 2.658e-5
-1.346, 2.712e-5
-1.345, 2.611e-5
-1.344, 2.617e-5
-1.343, 2.629e-5
-1.342, 2.555e-5
-1.341, 2.618e-5
-1.340, 2.531e-5
-1.339, 2.541e-5
-1.338, 2.486e-5
-1.337, 2.458e-5
-1.336, 2.457e-5
-1.335, 2.385e-5
-1.334, 2.393e-5
-1.333, 2.345e-5
-1.332, 2.319e-5
-1.331, 2.352e-5
-1.330, 2.262e-5
-1.329, 2.269e-5
-1.328, 2.225e-5
-1.327, 2.251e-5
-1.326, 2.261e-5
-1.325, 2.196e-5
-1.324, 2.175e-5
-1.323, 2.138e-5
-1.322, 2.102e-5
-1.321, 2.098e-5
-1.320, 2.026e-5
-1.319, 2.031e-5
-1.318, 1.960e-5
-1.317, 1.967e-5
-1.316, 1.929e-5
-1.315, 1.897e-5
-1.314, 1.880e-5
-1.313, 1.808e-5
-1.312, 1.808e-5
-1.311, 1.785e-5
-1.310, 1.772e-5
-1.309, 1.760e-5
-1.308, 1.711e-5
-1.307, 1.695e-5
-1.306, 1.655e-5
-1.305, 1.611e-5
-1.304, 1.588e-5
-1.303, 1.572e-5
-1.302, 1.568e-5
-1.301, 1.500e-5
-1.300, 1.507e-5
-1.299, 1.486e-5
-1.298, 1.482e-5
-1.297, 1.476e-5
-1.296, 1.437e-5
-1.295, 1.425e-5
-1.294, 1.422e-5
-1.293, 1.390e-5
-1.292, 1.350e-5
-1.291, 1.317e-5
-1.290, 1.318e-5
-1.289, 1.279e-5
-1.288, 1.285e-5
-1.287, 1.254e-5
-1.286, 1.227e-5
-1.285, 1.211e-5
-1.284, 1.166e-5
-1.283, 1.162e-5
-1.282, 1.137e-5
-1.281, 1.117e-5
-1.280, 1.079e-5
-1.279, 1.062e-5
-1.278, 1.061e-5
-1.277, 1.027e-5
-1.276, 1.014e-5
-1.275, 9.984e-6
-1.274, 9.693e-6
-1.273, 9.589e-6
-1.272, 9.382e-6
-1.271, 9.365e-6
-1.270, 9.197e-6
-1.269, 9.105e-6
-1.268, 8.947e-6
-1.267, 8.593e-6
-1.266, 8.547e-6
-1.265, 8.191e-6
-1.264, 8.018e-6
-1.263, 7.934e-6
-1.262, 7.844e-6
-1.261, 7.742e-6
-1.260, 7.394e-6
-1.259, 7.299e-6
-1.258, 7.128e-6
-1.257, 6.857e-6
-1.256, 6.713e-6
-1.255, 6.520e-6
-1.254, 6.308e-6
-1.253, 6.132e-6
-1.252, 6.021e-6
-1.251, 5.964e-6
-1.250, 5.646e-6
-1.249, 5.573e-6
-1.248, 5.316e-6
-1.247, 5.240e-6
-1.246, 5.192e-6
-1.245, 5.008e-6
-1.244, 4.959e-6
-1.243, 4.704e-6
-1.242, 4.597e-6
-1.241, 4.426e-6
-1.240, 4.306e-6
-1.239, 4.247e-6
-1.238, 4.050e-6
-1.237, 3.923e-6
-1.236, 3.776e-6
-1.235, 3.602e-6
-1.234, 3.506e-6
-1.233, 3.368e-6
-1.232, 3.309e-6
-1.231, 3.124e-6
-1.230, 3.055e-6
-1.229, 2.890e-6
-1.228, 2.853e-6
-1.227, 2.741e-6
-1.226, 2.549e-6
-1.225, 2.399e-6
-1.224, 2.291e-6
-1.223, 2.209e-6
-1.222, 2.083e-6
-1.221, 1.951e-6
-1.220, 1.900e-6
-1.219, 1.759e-6
-1.218, 1.676e-6
-1.217, 1.528e-6
-1.216, 1.462e-6
-1.215, 1.357e-6
-1.214, 1.227e-6
-1.213, 1.189e-6
-1.212, 1.075e-6
-1.211, 9.617e-7
-1.210, 8.542e-7
-1.209, 7.763e-7
-1.208, 6.983e-7
-1.207, 5.779e-7
-1.206, 5.237e-7
-1.205, 4.369e-7
-1.204, 3.609e-7
-1.203, 3.076e-7
-1.202, 1.833e-7
-1.201, 1.281e-7
-1.200, -1.401e-8
-1.199, -7.912e-8
-1.198, -1.452e-7
-1.197, -2.330e-7
-1.196, -3.149e-7
-1.195, -3.593e-7
-1.194, -4.412e-7
-1.193, -5.270e-7
-1.192, -5.813e-7
-1.191, -6.296e-7
-1.190, -7.194e-7
-1.189, -8.161e-7
-1.188, -8.388e-7
-1.187, -8.842e-7
-1.186, -9.098e-7
-1.185, -9.365e-7
-1.184, -1.003e-6
-1.183, -1.040e-6
-1.182, -1.144e-6
-1.181, -1.202e-6
-1.180, -1.257e-6
-1.179, -1.341e-6
-1.178, -1.354e-6
-1.177, -1.410e-6
-1.176, -1.507e-6
-1.175, -1.523e-6
-1.174, -1.593e-6
-1.173, -1.628e-6
-1.172, -1.687e-6
-1.171, -1.705e-6
-1.170, -1.801e-6
-1.169, -1.895e-6
-1.168, -1.902e-6
-1.167, -1.906e-6
-1.166, -1.965e-6
-1.165, -2.027e-6
-1.164, -2.025e-6
-1.163, -2.136e-6
-1.162, -2.210e-6
-1.161, -2.212e-6
-1.160, -2.293e-6
-1.159, -2.331e-6
-1.158, -2.372e-6
-1.157, -2.386e-6
-1.156, -2.375e-6
-1.155, -2.468e-6
-1.154, -2.465e-6
-1.153, -2.493e-6
-1.152, -2.528e-6
-1.151, -2.542e-6
-1.150, -2.590e-6
-1.149, -2.598e-6
-1.148, -2.718e-6
-1.147, -2.666e-6
-1.146, -2.775e-6
-1.145, -2.848e-6
-1.144, -2.714e-6
-1.143, -2.836e-6
-1.142, -2.828e-6
-1.141, -2.912e-6
-1.140, -2.973e-6
-1.139, -2.941e-6
-1.138, -3.075e-6
-1.137, -2.979e-6
-1.136, -3.083e-6
-1.135, -3.034e-6
-1.134, -3.060e-6
-1.133, -3.177e-6
-1.132, -3.097e-6
-1.131, -3.130e-6
-1.130, -3.058e-6
-1.129, -3.129e-6
-1.128, -3.196e-6
-1.127, -3.154e-6
-1.126, -3.216e-6
-1.125, -3.228e-6
-1.124, -3.243e-6
-1.123, -3.321e-6
-1.122, -3.307e-6
-1.121, -3.396e-6
-1.120, -3.403e-6
-1.119, -3.528e-6
-1.118, -3.455e-6
-1.117, -3.429e-6
-1.116, -3.471e-6
-1.115, -3.517e-6
-1.114, -3.645e-6
-1.113, -3.651e-6
-1.112, -3.686e-6
-1.111, -3.684e-6
-1.110, -3.655e-6
-1.109, -3.700e-6
-1.108, -3.651e-6
-1.107, -3.837e-6
-1.106, -3.851e-6
-1.105, -3.937e-6
-1.104, -3.952e-6
-1.103, -3.742e-6
-1.102, -3.795e-6
-1.101, -3.792e-6
-1.100, -3.922e-6
-1.099, -3.952e-6
-1.098, -3.914e-6
-1.097, -3.970e-6
-1.096, -3.921e-6
-1.095, -4.145e-6
-1.094, -4.026e-6
-1.093, -4.029e-6
-1.092, -4.091e-6
-1.091, -3.890e-6
-1.090, -3.959e-6
-1.089, -3.912e-6
-1.088, -4.065e-6
-1.087, -4.121e-6
-1.086, -4.149e-6
-1.085, -4.210e-6
-1.084, -4.177e-6
-1.083, -4.339e-6
-1.082, -4.213e-6
-1.081, -4.225e-6
-1.080, -4.288e-6
-1.079, -4.182e-6
-1.078, -4.327e-6
-1.077, -4.170e-6
-1.076, -4.283e-6
-1.075, -4.408e-6
-1.074, -4.396e-6
-1.073, -4.476e-6
-1.072, -4.472e-6
-1.071, -4.368e-6
-1.070, -4.454e-6
-1.069, -4.488e-6
-1.068, -4.530e-6
-1.067, -4.528e-6
-1.066, -4.694e-6
-1.065, -4.741e-6
-1.064, -4.701e-6
-1.063, -4.699e-6
-1.062, -4.545e-6
-1.061, -4.559e-6
-1.060, -4.575e-6
-1.059, -4.632e-6
-1.058, -4.667e-6
-1.057, -4.667e-6
-1.056, -4.725e-6
-1.055, -4.644e-6
-1.054, -4.870e-6
-1.053, -4.835e-6
-1.052, -4.826e-6
-1.051, -4.882e-6
-1.050, -4.899e-6
-1.049, -4.985e-6
-1.048, -4.880e-6
-1.047, -4.939e-6
-1.046, -5.122e-6
-1.045, -4.987e-6
-1.044, -5.049e-6
-1.043, -5.128e-6
-1.042, -5.204e-6
-1.041, -5.265e-6
-1.040, -5.234e-6
-1.039, -5.294e-6
-1.038, -5.291e-6
-1.037, -5.402e-6
-1.036, -5.356e-6
-1.035, -5.392e-6
-1.034, -5.512e-6
-1.033, -5.356e-6
-1.032, -5.473e-6
-1.031, -5.424e-6
-1.030, -5.551e-6
-1.029, -5.507e-6
-1.028, -5.560e-6
-1.027, -5.702e-6
-1.026, -5.482e-6
-1.025, -5.639e-6
-1.024, -5.566e-6
-1.023, -5.616e-6
-1.022, -5.687e-6
-1.021, -5.588e-6
-1.020, -5.724e-6
-1.019, -5.736e-6
-1.018, -5.817e-6
-1.017, -5.836e-6
-1.016, -5.669e-6
-1.015, -5.742e-6
-1.014, -5.747e-6
-1.013, -5.888e-6
-1.012, -5.857e-6
-1.011, -5.848e-6
-1.010, -5.837e-6
-1.009, -5.786e-6
-1.008, -5.893e-6
-1.007, -5.875e-6
-1.006, -5.846e-6
-1.005, -6.038e-6
-1.004, -5.946e-6
-1.003, -6.063e-6
-1.002, -6.017e-6
-1.001, -6.043e-6
-1.000, -5.207e-6
-1.001, -4.004e-6
-1.002, -3.218e-6
-1.003, -2.585e-6
-1.004, -2.161e-6
-1.005, -1.704e-6
-1.006, -1.376e-6
-1.007, -1.092e-6
-1.008, -7.934e-7
-1.009, -5.774e-7
-1.010, -3.830e-7
-1.011, -2.015e-7
-1.012, -3.177e-8
-1.013, 1.172e-7
-1.014, 2.760e-7
-1.015, 4.043e-7
-1.016, 5.434e-7
-1.017, 6.283e-7
-1.018, 7.180e-7
-1.019, 8.542e-7
-1.020, 9.371e-7
-1.021, 1.028e-6
-1.022, 1.119e-6
-1.023, 1.225e-6
-1.024, 1.315e-6
-1.025, 1.379e-6
-1.026, 1.462e-6
-1.027, 1.511e-6
-1.028, 1.589e-6
-1.029, 1.674e-6
-1.030, 1.744e-6
-1.031, 1.797e-6
-1.032, 1.830e-6
-1.033, 1.954e-6
-1.034, 1.948e-6
-1.035, 2.009e-6
-1.036, 2.083e-6
-1.037, 2.167e-6
-1.038, 2.237e-6
-1.039, 2.244e-6
-1.040, 2.299e-6
-1.041, 2.322e-6
-1.042, 2.360e-6
-1.043, 2.424e-6
-1.044, 2.456e-6
-1.045, 2.461e-6
-1.046, 2.524e-6
-1.047, 2.560e-6
-1.048, 2.598e-6
-1.049, 2.637e-6
-1.050, 2.687e-6
-1.051, 2.728e-6
-1.052, 2.757e-6
-1.053, 2.796e-6
-1.054, 2.867e-6
-1.055, 2.866e-6
-1.056, 2.882e-6
-1.057, 2.934e-6
-1.058, 2.953e-6
-1.059, 2.973e-6
-1.060, 3.034e-6
-1.061, 3.010e-6
-1.062, 3.053e-6
-1.063, 3.082e-6
-1.064, 3.128e-6
-1.065, 3.165e-6
-1.066, 3.160e-6
-1.067, 3.200e-6
-1.068, 3.234e-6
-1.069, 3.268e-6
-1.070, 3.303e-6
-1.071, 3.342e-6
-1.072, 3.349e-6
-1.073, 3.356e-6
-1.074, 3.382e-6
-1.075, 3.422e-6
-1.076, 3.453e-6
-1.077, 3.500e-6
-1.078, 3.461e-6
-1.079, 3.503e-6
-1.080, 3.521e-6
-1.081, 3.558e-6
-1.082, 3.574e-6
-1.083, 3.603e-6
-1.084, 3.633e-6
-1.085, 3.662e-6
-1.086, 3.695e-6
-1.087, 3.692e-6
-1.088, 3.728e-6
-1.089, 3.779e-6
-1.090, 3.764e-6
-1.091, 3.770e-6
-1.092, 3.805e-6
-1.093, 3.859e-6
-1.094, 3.834e-6
-1.095, 3.826e-6
-1.096, 3.886e-6
-1.097, 3.896e-6
-1.098, 3.935e-6
-1.099, 3.953e-6
-1.100, 3.957e-6
-1.101, 4.003e-6
-1.102, 3.982e-6
-1.103, 4.012e-6
-1.104, 4.036e-6
-1.105, 4.055e-6
-1.106, 4.079e-6
-1.107, 4.093e-6
-1.108, 4.141e-6
-1.109, 4.116e-6
-1.110, 4.169e-6
-1.111, 4.186e-6
-1.112, 4.170e-6
-1.113, 4.191e-6
-1.114, 4.250e-6
-1.115, 4.251e-6
-1.116, 4.248e-6
-1.117, 4.294e-6
-1.118, 4.344e-6
-1.119, 4.303e-6
-1.120, 4.335e-6
-1.121, 4.343e-6
-1.122, 4.387e-6
-1.123, 4.410e-6
-1.124, 4.367e-6
-1.125, 4.424e-6
-1.126, 4.438e-6
-1.127, 4.485e-6
-1.128, 4.507e-6
-1.129, 4.518e-6
-1.130, 4.586e-6
-1.131, 4.577e-6
-1.132, 4.618e-6
-1.133, 4.616e-6
-1.134, 4.610e-6
-1.135, 4.619e-6
-1.136, 4.581e-6
-1.137, 4.672e-6
-1.138, 4.669e-6
-1.139, 4.711e-6
-1.140, 4.753e-6
-1.141, 4.744e-6
-1.142, 4.777e-6
-1.143, 4.798e-6
-1.144, 4.849e-6
-1.145, 4.856e-6
-1.146, 4.866e-6
-1.147, 4.918e-6
-1.148, 4.883e-6
-1.149, 4.927e-6
-1.150, 4.912e-6
-1.151, 4.995e-6
-1.152, 5.039e-6
-1.153, 5.038e-6
-1.154, 5.034e-6
-1.155, 5.053e-6
-1.156, 5.088e-6
-1.157, 5.095e-6
-1.158, 5.098e-6
-1.159, 5.133e-6
-1.160, 5.142e-6
-1.161, 5.197e-6
-1.162, 5.231e-6
-1.163, 5.233e-6
-1.164, 5.265e-6
-1.165, 5.247e-6
-1.166, 5.283e-6
-1.167, 5.318e-6
-1.168, 5.350e-6
-1.169, 5.378e-6
-1.170, 5.376e-6
-1.171, 5.458e-6
-1.172, 5.475e-6
-1.173, 5.528e-6
-1.174, 5.468e-6
-1.175, 5.489e-6
-1.176, 5.564e-6
-1.177, 5.510e-6
-1.178, 5.546e-6
-1.179, 5.641e-6
-1.180, 5.731e-6
-1.181, 5.743e-6
-1.182, 5.756e-6
-1.183, 5.819e-6
-1.184, 5.834e-6
-1.185, 5.924e-6
-1.186, 5.942e-6
-1.187, 5.925e-6
-1.188, 5.999e-6
-1.189, 5.952e-6
-1.190, 6.019e-6
-1.191, 6.051e-6
-1.192, 6.102e-6
-1.193, 6.146e-6
-1.194, 6.176e-6
-1.195, 6.287e-6
-1.196, 6.292e-6
-1.197, 6.329e-6
-1.198, 6.313e-6
-1.199, 6.371e-6
-1.200, 6.449e-6
-1.201, 6.431e-6
-1.202, 6.513e-6
-1.203, 6.572e-6
-1.204, 6.576e-6
-1.205, 6.686e-6
-1.206, 6.630e-6
-1.207, 6.715e-6
-1.208, 6.713e-6
-1.209, 6.795e-6
-1.210, 6.891e-6
-1.211, 6.912e-6
-1.212, 6.928e-6
-1.213, 6.919e-6
-1.214, 6.994e-6
-1.215, 7.008e-6
-1.216, 6.977e-6
-1.217, 7.079e-6
-1.218, 7.021e-6
-1.219, 7.209e-6
-1.220, 7.209e-6
-1.221, 7.278e-6
-1.222, 7.407e-6
-1.223, 7.419e-6
-1.224, 7.536e-6
-1.225, 7.596e-6
-1.226, 7.701e-6
-1.227, 7.667e-6
-1.228, 7.804e-6
-1.229, 7.924e-6
-1.230, 7.850e-6
-1.231, 8.052e-6
-1.232, 8.094e-6
-1.233, 8.137e-6
-1.234, 8.239e-6
-1.235, 8.312e-6
-1.236, 8.377e-6
-1.237, 8.390e-6
-1.238, 8.690e-6
-1.239, 8.668e-6
-1.240, 8.707e-6
-1.241, 8.807e-6
-1.242, 8.767e-6
-1.243, 9.007e-6
-1.244, 9.089e-6
-1.245, 9.244e-6
-1.246, 9.332e-6
-1.247, 9.296e-6
-1.248, 9.477e-6
-1.249, 9.496e-6
-1.250, 9.690e-6
-1.251, 9.673e-6
-1.252, 9.889e-6
-1.253, 1.010e-5
-1.254, 9.951e-6
-1.255, 1.028e-5
-1.256, 1.023e-5
-1.257, 1.032e-5
-1.258, 1.048e-5
-1.259, 1.048e-5
-1.260, 1.075e-5
-1.261, 1.070e-5
-1.262, 1.095e-5
-1.263, 1.110e-5
-1.264, 1.118e-5
-1.265, 1.139e-5
-1.266, 1.103e-5
-1.267, 1.120e-5
-1.268, 1.143e-5
-1.269, 1.156e-5
-1.270, 1.175e-5
-1.271, 1.164e-5
-1.272, 1.176e-5
-1.273, 1.186e-5
-1.274, 1.193e-5
-1.275, 1.212e-5
-1.276, 1.217e-5
-1.277, 1.250e-5
-1.278, 1.251e-5
-1.279, 1.279e-5
-1.280, 1.298e-5
-1.281, 1.316e-5
-1.282, 1.333e-5
-1.283, 1.347e-5
-1.284, 1.372e-5
-1.285, 1.403e-5
-1.286, 1.442e-5
-1.287, 1.421e-5
-1.288, 1.406e-5
-1.289, 1.427e-5
-1.290, 1.440e-5
-1.291, 1.451e-5
-1.292, 1.466e-5
-1.293, 1.476e-5
-1.294, 1.516e-5
-1.295, 1.537e-5
-1.296, 1.585e-5
-1.297, 1.587e-5
-1.298, 1.588e-5
-1.299, 1.622e-5
-1.300, 1.614e-5
-1.301, 1.652e-5
-1.302, 1.660e-5
-1.303, 1.713e-5
-1.304, 1.763e-5
-1.305, 1.738e-5
-1.306, 1.772e-5
-1.307, 1.755e-5
-1.308, 1.786e-5
-1.309, 1.838e-5
-1.310, 1.799e-5
-1.311, 1.820e-5
-1.312, 1.842e-5
-1.313, 1.887e-5
-1.314, 1.913e-5
-1.315, 1.926e-5
-1.316, 1.963e-5
-1.317, 1.935e-5
-1.318, 1.977e-5
-1.319, 1.981e-5
-1.320, 2.088e-5
-1.321, 2.077e-5
-1.322, 2.021e-5
-1.323, 2.078e-5
-1.324, 2.092e-5
-1.325, 2.123e-5
-1.326, 2.144e-5
-1.327, 2.114e-5
-1.328, 2.150e-5
-1.329, 2.106e-5
-1.330, 2.143e-5
-1.331, 2.151e-5
-1.332, 2.199e-5
-1.333, 2.235e-5
-1.334, 2.231e-5
-1.335, 2.238e-5
-1.336, 2.267e-5
-1.337, 2.300e-5
-1.338, 2.308e-5
-1.339, 2.310e-5
-1.340, 2.360e-5
-1.341, 2.348e-5
-1.342, 2.428e-5
-1.343, 2.419e-5
-1.344, 2.450e-5
-1.345, 2.501e-5
-1.346, 2.484e-5
-1.347, 2.561e-5
-1.348, 2.578e-5
-1.349, 2.630e-5
-1.350, 2.658e-5
-1.351, 2.651e-5
-1.352, 2.683e-5
-1.353, 2.662e-5
-1.354, 2.708e-5
-1.355, 2.692e-5
-1.356, 2.703e-5
-1.357, 2.751e-5
-1.358, 2.701e-5
-1.359, 2.792e-5
-1.360, 2.799e-5
-1.361, 2.815e-5
-1.362, 2.857e-5
-1.363, 2.823e-5
-1.364, 2.907e-5
-1.365, 2.931e-5
-1.366, 2.979e-5
-1.367, 2.979e-5
-1.368, 2.979e-5
-1.369, 3.070e-5
-1.370, 3.056e-5
-1.371, 3.133e-5
-1.372, 3.126e-5
-1.373, 3.142e-5
-1.374, 3.202e-5
-1.375, 3.146e-5
-1.376, 3.215e-5
-1.377, 3.195e-5
-1.378, 3.304e-5
-1.379, 3.264e-5
-1.380, 3.283e-5
-1.381, 3.352e-5
-1.382, 3.371e-5
-1.383, 3.449e-5
-1.384, 3.419e-5
-1.385, 3.464e-5
-1.386, 3.555e-5
-1.387, 3.415e-5
-1.388, 3.558e-5
-1.389, 3.576e-5
-1.390, 3.626e-5
-1.391, 3.691e-5
-1.392, 3.641e-5
-1.393, 3.680e-5
-1.394, 3.779e-5
-1.395, 3.809e-5
-1.396, 3.822e-5
-1.397, 3.932e-5
-1.398, 4.080e-5
-1.399, 3.899e-5
-1.400, 3.917e-5
-1.401, 3.918e-5
-1.402, 3.934e-5
-1.403, 4.019e-5
-1.404, 4.039e-5
-1.405, 4.048e-5
-1.406, 4.047e-5
-1.407, 4.110e-5
-1.408, 4.197e-5
-1.409, 4.177e-5
-1.410, 4.308e-5
-1.411, 4.295e-5
-1.412, 4.347e-5
-1.413, 4.270e-5
-1.414, 4.354e-5
-1.415, 4.498e-5
-1.416, 4.342e-5
-1.417, 4.434e-5
-1.418, 4.484e-5
-1.419, 4.581e-5
-1.420, 4.599e-5
-1.421, 4.558e-5
-1.422, 4.595e-5
-1.423, 4.580e-5
-1.424, 4.656e-5
-1.425, 4.631e-5
-1.426, 4.650e-5
-1.427, 4.773e-5
-1.428, 4.614e-5
-1.429, 4.786e-5
-1.430, 4.864e-5
-1.431, 4.960e-5
-1.432, 4.983e-5
-1.433, 4.877e-5
-1.434, 4.988e-5
-1.435, 4.937e-5
-1.436, 5.037e-5
-1.437, 5.019e-5
-1.438, 5.035e-5
-1.439, 5.119e-5
-1.440, 5.063e-5
-1.441, 5.184e-5
-1.442, 5.196e-5
-1.443, 5.263e-5
-1.444, 5.371e-5
-1.445, 5.239e-5
-1.446, 5.464e-5
-1.447, 5.310e-5
-1.448, 5.355e-5
-1.449, 5.462e-5
-1.450, 5.452e-5
-1.451, 5.626e-5
-1.452, 5.596e-5
-1.453, 5.769e-5
-1.454, 5.760e-5
-1.455, 5.814e-5
-1.456, 5.938e-5
-1.457, 5.734e-5
-1.458, 5.889e-5
-1.459, 6.061e-5
-1.460, 6.118e-5
-1.461, 6.137e-5
-1.462, 5.965e-5
-1.463, 6.078e-5
-1.464, 6.110e-5
-1.465, 6.270e-5
-1.466, 6.284e-5
-1.467, 6.423e-5
-1.468, 6.473e-5
-1.469, 6.317e-5
-1.470, 6.626e-5
-1.471, 6.461e-5
-1.472, 6.685e-5
-1.473, 6.736e-5
-1.474, 6.490e-5
-1.475, 6.655e-5
-1.476, 6.585e-5
-1.477, 6.696e-5
-1.478, 6.719e-5
-1.479, 6.631e-5
-1.480, 6.711e-5
-1.481, 6.695e-5
-1.482, 6.810e-5
-1.483, 6.883e-5
-1.484, 6.999e-5
-1.485, 7.098e-5
-1.486, 6.763e-5
-1.487, 6.954e-5
-1.488, 6.988e-5
-1.489, 7.127e-5
-1.490, 7.115e-5
-1.491, 7.206e-5
-1.492, 7.346e-5
-1.493, 7.121e-5
-1.494, 7.318e-5
-1.495, 7.245e-5
-1.496, 7.315e-5
-1.497, 7.444e-5
-1.498, 7.295e-5
-1.499, 7.433e-5
-1.500, 7.478e-5
-1.501, 7.525e-5
-1.502, 7.624e-5
-1.503, 7.432e-5
-1.504, 7.621e-5
-1.505, 7.654e-5
-1.506, 7.890e-5
-1.507, 7.840e-5
-1.508, 7.899e-5
-1.509, 7.928e-5
-1.510, 7.742e-5
-1.511, 8.014e-5
-1.512, 7.860e-5
-1.513, 8.008e-5
-1.514, 8.144e-5
-1.515, 8.015e-5
-1.516, 8.286e-5
-1.517, 8.205e-5
-1.518, 8.235e-5
-1.519, 8.337e-5
-1.520, 8.377e-5
-1.521, 8.447e-5
-1.522, 8.464e-5
-1.523, 8.621e-5
-1.524, 8.682e-5
-1.525, 8.824e-5
-1.526, 8.920e-5
-1.527, 8.742e-5
-1.528, 8.972e-5
-1.529, 8.977e-5
-1.530, 9.087e-5
-1.531, 9.294e-5
-1.532, 9.015e-5
-1.533, 9.117e-5
-1.534, 9.126e-5
-1.535, 9.188e-5
-1.536, 9.270e-5
-1.537, 9.330e-5
-1.538, 9.442e-5
-1.539, 9.493e-5
-1.540, 9.557e-5
-1.541, 9.664e-5
-1.542, 9.747e-5
-1.543, 9.915e-5
-1.544, 9.664e-5
-1.545, 9.854e-5
-1.546, 9.965e-5
-1.547, 1.010e-4
-1.548, 1.021e-4
-1.549, 1.004e-4
-1.550, 1.028e-4
-1.551, 1.027e-4
-1.552, 1.034e-4
-1.553, 1.028e-4
-1.554, 1.040e-4
-1.555, 1.063e-4
-1.556, 1.040e-4
-1.557, 1.092e-4
-1.558, 1.076e-4
-1.559, 1.098e-4
-1.560, 1.123e-4
-1.561, 1.094e-4
-1.562, 1.117e-4
-1.563, 1.107e-4
-1.564, 1.136e-4
-1.565, 1.128e-4
-1.566, 1.149e-4
-1.567, 1.177e-4
-1.568, 1.143e-4
-1.569, 1.184e-4
-1.570, 1.176e-4
-1.571, 1.182e-4
-1.572, 1.213e-4
-1.573, 1.169e-4
-1.574, 1.202e-4
-1.575, 1.201e-4
-1.576, 1.234e-4
-1.577, 1.237e-4
-1.578, 1.226e-4
-1.579, 1.242e-4
-1.580, 1.235e-4
-1.581, 1.257e-4
-1.582, 1.239e-4
-1.583, 1.258e-4
-1.584, 1.286e-4
-1.585, 1.244e-4
-1.586, 1.295e-4
-1.587, 1.288e-4
-1.588, 1.309e-4
-1.589, 1.321e-4
-1.590, 1.291e-4
-1.591, 1.319e-4
-1.592, 1.332e-4
-1.593, 1.381e-4
-1.594, 1.349e-4
-1.595, 1.359e-4
-1.596, 1.400e-4
-1.597, 1.329e-4
-1.598, 1.367e-4
-1.599, 1.384e-4
-1.600, 1.421e-4
-1.601, 1.425e-4
-1.602, 1.392e-4
-1.603, 1.451e-4
-1.604, 1.442e-4
-1.605, 1.486e-4
-1.606, 1.448e-4
-1.607, 1.488e-4
-1.608, 1.496e-4
-1.609, 1.483e-4
-1.610, 1.526e-4
-1.611, 1.501e-4
-1.612, 1.531e-4
-1.613, 1.522e-4
-1.614, 1.518e-4
-1.615, 1.553e-4
-1.616, 1.541e-4
-1.617, 1.567e-4
-1.618, 1.564e-4
-1.619, 1.577e-4
-1.620, 1.597e-4
-1.621, 1.585e-4
-1.622, 1.617e-4
-1.623, 1.625e-4
-1.624, 1.647e-4
-1.625, 1.664e-4
-1.626, 1.603e-4
-1.627, 1.640e-4
-1.628, 1.646e-4
-1.629, 1.658e-4
-1.630, 1.669e-4
-1.631, 1.652e-4
-1.632, 1.689e-4
-1.633, 1.689e-4
-1.634, 1.735e-4
-1.635, 1.698e-4
-1.636, 1.707e-4
-1.637, 1.750e-4
-1.638, 1.760e-4
-1.639, 1.795e-4
-1.640, 1.795e-4
-1.641, 1.814e-4
-1.642, 1.851e-4
-1.643, 1.796e-4
-1.644, 1.835e-4
-1.645, 1.852e-4
-1.646, 1.884e-4
-1.647, 1.887e-4
-1.648, 1.870e-4
-1.649, 1.906e-4
-1.650, 1.908e-4
-1.651, 1.960e-4
-1.652, 1.941e-4
-1.653, 1.954e-4
-1.654, 1.965e-4
-1.655, 1.903e-4
-1.656, 1.944e-4
-1.657, 1.962e-4
-1.658, 2.012e-4
-1.659, 2.021e-4
-1.660, 2.012e-4
-1.661, 2.058e-4
-1.662, 2.046e-4
-1.663, 2.085e-4
-1.664, 2.104e-4
-1.665, 2.131e-4
-1.666, 2.159e-4
-1.667, 2.147e-4
-1.668, 2.165e-4
-1.669, 2.173e-4
-1.670, 2.230e-4
-1.671, 2.261e-4
-1.672, 2.266e-4
-1.673, 2.276e-4
-1.674, 2.297e-4
-1.675, 2.343e-4
-1.676, 2.353e-4
-1.677, 2.324e-4
-1.678, 2.356e-4
-1.679, 2.331e-4
-1.680, 2.372e-4
-1.681, 2.412e-4
-1.682, 2.415e-4
-1.683, 2.501e-4
-1.684, 2.413e-4
-1.685, 2.501e-4
-1.686, 2.491e-4
-1.687, 2.551e-4
-1.688, 2.531e-4
-1.689, 2.525e-4
-1.690, 2.621e-4
-1.691, 2.629e-4
-1.692, 2.740e-4
-1.693, 2.761e-4
-1.694, 2.724e-4
-1.695, 2.752e-4
-1.696, 2.729e-4
-1.697, 2.814e-4
-1.698, 2.782e-4
-1.699, 2.828e-4
-1.700, 2.834e-4
-1.699, 2.750e-4
-1.698, 2.754e-4
-1.697, 2.718e-4
-1.696, 2.779e-4
-1.695, 2.667e-4
-1.694, 2.648e-4
-1.693, 2.663e-4
-1.692, 2.583e-4
-1.691, 2.630e-4
-1.690, 2.571e-4
-1.689, 2.603e-4
-1.688, 2.631e-4
-1.687, 2.473e-4
-1.686, 2.536e-4
-1.685, 2.482e-4
-1.684, 2.510e-4
-1.683, 2.483e-4
-1.682, 2.447e-4
-1.681, 2.474e-4
-1.680, 2.429e-4
-1.679, 2.457e-4
-1.678, 2.379e-4
-1.677, 2.355e-4
-1.676, 2.416e-4
-1.675, 2.282e-4
-1.674, 2.372e-4
-1.673, 2.327e-4
-1.672, 2.343e-4
-1.671, 2.330e-4
-1.670, 2.268e-4
-1.669, 2.292e-4
-1.668, 2.220e-4
-1.667, 2.265e-4
-1.666, 2.229e-4
-1.665, 2.204e-4
-1.664, 2.242e-4
-1.663, 2.174e-4
-1.662, 2.203e-4
-1.661, 2.159e-4
-1.660, 2.142e-4
-1.659, 2.155e-4
-1.658, 2.018e-4
-1.657, 2.079e-4
-1.656, 2.032e-4
-1.655, 2.091e-4
-1.654, 2.082e-4
-1.653, 2.074e-4
-1.652, 2.100e-4
-1.651, 1.970e-4
-1.650, 2.043e-4
-1.649, 2.013e-4
-1.648, 2.023e-4
-1.647, 2.004e-4
-1.646, 1.946e-4
-1.645, 2.017e-4
-1.644, 1.967e-4
-1.643, 1.996e-4
-1.642, 1.967e-4
-1.641, 1.904e-4
-1.640, 1.933e-4
-1.639, 1.890e-4
-1.638, 1.913e-4
-1.637, 1.890e-4
-1.636, 1.902e-4
-1.635, 1.905e-4
-1.634, 1.856e-4
-1.633, 1.864e-4
-1.632, 1.657e-4
-1.631, 1.712e-4
-1.630, 1.785e-4
-1.629, 1.735e-4
-1.628, 1.791e-4
-1.627, 1.645e-4
-1.626, 1.621e-4
-1.625, 1.614e-4
-1.624, 1.551e-4
-1.623, 1.574e-4
-1.622, 1.550e-4
-1.621, 1.636e-4
-1.620, 1.671e-4
-1.619, 1.675e-4
-1.618, 1.704e-4
-1.617, 1.598e-4
-1.616, 1.655e-4
-1.615, 1.586e-4
-1.614, 1.614e-4
-1.613, 1.610e-4
-1.612, 1.562e-4
-1.611, 1.562e-4
-1.610, 1.527e-4
-1.609, 1.580e-4
-1.608, 1.526e-4
-1.607, 1.524e-4
-1.606, 1.531e-4
-1.605, 1.483e-4
-1.604, 1.541e-4
-1.603, 1.495e-4
-1.602, 1.573e-4
-1.601, 1.548e-4
-1.600, 1.496e-4
-1.599, 1.574e-4
-1.598, 1.484e-4
-1.597, 1.508e-4
-1.596, 1.465e-4
-1.595, 1.452e-4
-1.594, 1.449e-4
-1.593, 1.401e-4
-1.592, 1.443e-4
-1.591, 1.377e-4
-1.590, 1.393e-4
-1.589, 1.398e-4
-1.588, 1.325e-4
-1.587, 1.332e-4
-1.586, 1.327e-4
-1.585, 1.442e-4
-1.584, 1.398e-4
-1.583, 1.355e-4
-1.582, 1.364e-4
-1.581, 1.313e-4
-1.580, 1.413e-4
-1.579, 1.334e-4
-1.578, 1.320e-4
-1.577, 1.308e-4
-1.576, 1.253e-4
-1.575, 1.291e-4
-1.574, 1.238e-4
-1.573, 1.266e-4
-1.572, 1.230e-4
-1.571, 1.199e-4
-1.570, 1.186e-4
-1.569, 1.172e-4
-1.568, 1.179e-4
-1.567, 1.185e-4
-1.566, 1.245e-4
-1.565, 1.232e-4
-1.564, 1.154e-4
-1.563, 1.198e-4
-1.562, 1.145e-4
-1.561, 1.213e-4
-1.560, 1.235e-4
-1.559, 1.114e-4
-1.558, 1.149e-4
-1.557, 1.097e-4
-1.556, 1.122e-4
-1.555, 1.086e-4
-1.554, 1.074e-4
-1.553, 1.082e-4
-1.552, 1.057e-4
-1.551, 1.072e-4
-1.550, 1.028e-4
-1.549, 1.059e-4
-1.548, 1.073e-4
-1.547, 1.020e-4
-1.546, 1.072e-4
-1.545, 1.022e-4
-1.544, 1.059e-4
-1.543, 1.033e-4
-1.542, 1.019e-4
-1.541, 1.025e-4
-1.540, 9.983e-5
-1.539, 1.031e-4
-1.538, 9.781e-5
-1.537, 9.996e-5
-1.536, 1.007e-4
-1.535, 9.509e-5
-1.534, 9.704e-5
-1.533, 9.463e-5
-1.532, 1.008e-4
-1.531, 9.707e-5
-1.530, 9.245e-5
-1.529, 9.474e-5
-1.528, 9.120e-5
-1.527, 9.368e-5
-1.526, 8.971e-5
-1.525, 9.122e-5
-1.524, 9.145e-5
-1.523, 8.861e-5
-1.522, 9.165e-5
-1.521, 8.731e-5
-1.520, 9.044e-5
-1.519, 9.048e-5
-1.518, 8.654e-5
-1.517, 8.986e-5
-1.516, 8.535e-5
-1.515, 8.921e-5
-1.514, 8.695e-5
-1.513, 8.759e-5
-1.512, 8.851e-5
-1.511, 8.427e-5
-1.510, 8.727e-5
-1.509, 8.259e-5
-1.508, 8.392e-5
-1.507, 8.524e-5
-1.506, 8.012e-5
-1.505, 8.197e-5
-1.504, 7.862e-5
-1.503, 8.013e-5
-1.502, 7.855e-5
-1.501, 7.706e-5
-1.500, 7.730e-5
-1.499, 7.543e-5
-1.498, 7.942e-5
-1.497, 7.454e-5
-1.496, 7.559e-5
-1.495, 7.359e-5
-1.494, 7.472e-5
-1.493, 7.698e-5
-1.492, 7.274e-5
-1.491, 7.471e-5
-1.490, 7.453e-5
-1.489, 7.275e-5
-1.488, 7.476e-5
-1.487, 7.116e-5
-1.486, 7.433e-5
-1.485, 7.187e-5
-1.484, 7.198e-5
-1.483, 7.213e-5
-1.482, 6.816e-5
-1.481, 6.890e-5
-1.480, 6.523e-5
-1.479, 6.799e-5
-1.478, 6.856e-5
-1.477, 6.376e-5
-1.476, 6.517e-5
-1.475, 6.288e-5
-1.474, 6.431e-5
-1.473, 6.234e-5
-1.472, 6.283e-5
-1.471, 6.358e-5
-1.470, 6.120e-5
-1.469, 6.422e-5
-1.468, 6.077e-5
-1.467, 6.156e-5
-1.466, 6.194e-5
-1.465, 6.002e-5
-1.464, 6.275e-5
-1.463, 5.985e-5
-1.462, 6.300e-5
-1.461, 6.171e-5
-1.460, 5.910e-5
-1.459, 6.123e-5
-1.458, 5.769e-5
-1.457, 5.913e-5
-1.456, 5.716e-5
-1.455, 5.593e-5
-1.454, 5.681e-5
-1.453, 5.451e-5
-1.452, 5.720e-5
-1.451, 5.449e-5
-1.450, 5.589e-5
-1.449, 5.518e-5
-1.448, 5.215e-5
-1.447, 5.501e-5
-1.446, 5.264e-5
-1.445, 5.284e-5
-1.444, 5.260e-5
-1.443, 5.327e-5
-1.442, 5.428e-5
-1.441, 5.076e-5
-1.440, 5.400e-5
-1.439, 5.201e-5
-1.438, 5.268e-5
-1.437, 5.260e-5
-1.436, 4.767e-5
-1.435, 4.857e-5
-1.434, 4.683e-5
-1.433, 4.909e-5
-1.432, 4.796e-5
-1.431, 4.609e-5
-1.430, 4.755e-5
-1.429, 4.593e-5
-1.428, 4.864e-5
-1.427, 4.660e-5
-1.426, 4.484e-5
-1.425, 4.507e-5
-1.424, 4.427e-5
-1.423, 4.588e-5
-1.422, 4.363e-5
-1.421, 4.370e-5
-1.420, 4.340e-5
-1.419, 4.172e-5
-1.418, 4.393e-5
-1.417, 4.178e-5
-1.416, 4.323e-5
-1.415, 4.215e-5
-1.414, 4.080e-5
-1.413, 4.196e-5
-1.412, 4.011e-5
-1.411, 4.372e-5
-1.410, 4.116e-5
-1.409, 4.051e-5
-1.408, 4.016e-5
-1.407, 3.878e-5
-1.406, 3.943e-5
-1.405, 3.860e-5
-1.404, 3.899e-5
-1.403, 3.887e-5
-1.402, 3.797e-5
-1.401, 3.922e-5
-1.400, 3.750e-5
-1.399, 3.792e-5
-1.398, 3.695e-5
-1.397, 3.583e-5
-1.396, 3.618e-5
-1.395, 3.543e-5
-1.394, 3.663e-5
-1.393, 3.500e-5
-1.392, 3.586e-5
-1.391, 3.616e-5
-1.390, 3.403e-5
-1.389, 3.500e-5
-1.388, 3.422e-5
-1.387, 3.539e-5
-1.386, 3.383e-5
-1.385, 3.284e-5
-1.384, 3.350e-5
-1.383, 3.193e-5
-1.382, 3.317e-5
-1.381, 3.205e-5
-1.380, 3.241e-5
-1.379, 3.281e-5
-1.378, 3.072e-5
-1.377, 3.293e-5
-1.376, 3.075e-5
-1.375, 3.158e-5
-1.374, 3.106e-5
-1.373, 2.972e-5
-1.372, 3.063e-5
-1.371, 2.959e-5
-1.370, 3.086e-5
-1.369, 2.927e-5
-1.368, 2.896e-5
-1.367, 2.895e-5
-1.366, 2.768e-5
-1.365, 2.891e-5
-1.364, 2.743e-5
-1.363, 2.833e-5
-1.362, 2.781e-5
-1.361, 2.585e-5
-1.360, 2.691e-5
-1.359, 2.613e-5
-1.358, 2.744e-5
-1.357, 2.675e-5
-1.356, 2.731e-5
-1.355, 2.794e-5
-1.354, 2.597e-5
-1.353, 2.720e-5
-1.352, 2.572e-5
-1.351, 2.511e-5
-1.350, 2.540e-5
-1.349, 2.427e-5
-1.348, 2.517e-5
-1.347, 2.386e-5
-1.346, 2.513e-5
-1.345, 2.456e-5
-1.344, 2.376e-5
-1.343, 2.432e-5
-1.342, 2.254e-5
-1.341, 2.351e-5
-1.340, 2.256e-5
-1.339, 2.194e-5
-1.338, 2.174e-5
-1.337, 2.101e-5
-1.336, 2.173e-5
-1.335, 2.114e-5
-1.334, 2.176e-5
-1.333, 2.176e-5
-1.332, 2.049e-5
-1.331, 2.128e-5
-1.330, 1.996e-5
-1.329, 2.052e-5
-1.328, 1.990e-5
-1.327, 2.001e-5
-1.326, 2.064e-5
-1.325, 1.860e-5
-1.324, 1.914e-5
-1.323, 1.827e-5
-1.322, 1.807e-5
-1.321, 1.825e-5
-1.320, 1.680e-5
-1.319, 1.750e-5
-1.318, 1.655e-5
-1.317, 1.677e-5
-1.316, 1.621e-5
-1.315, 1.572e-5
-1.314, 1.629e-5
-1.313, 1.536e-5
-1.312, 1.595e-5
-1.311, 1.521e-5
-1.310, 1.504e-5
-1.309, 1.508e-5
-1.308, 1.414e-5
-1.307, 1.475e-5
-1.306, 1.396e-5
-1.305, 1.425e-5
-1.304, 1.414e-5
-1.303, 1.333e-5
-1.302, 1.365e-5
-1.301, 1.317e-5
-1.300, 1.345e-5
-1.299, 1.310e-5
-1.298, 1.285e-5
-1.297, 1.301e-5
-1.296, 1.244e-5
-1.295, 1.275e-5
-1.294, 1.208e-5
-1.293, 1.228e-5
-1.292, 1.223e-5
-1.291, 1.135e-5
-1.290, 1.177e-5
-1.289, 1.120e-5
-1.288, 1.177e-5
-1.287, 1.147e-5
-1.286, 1.092e-5
-1.285, 1.120e-5
-1.284, 1.040e-5
-1.283, 1.050e-5
-1.282, 1.022e-5
-1.281, 1.031e-5
-1.280, 1.044e-5
-1.279, 9.523e-6
-1.278, 9.844e-6
-1.277, 9.315e-6
-1.276, 9.486e-6
-1.275, 9.371e-6
-1.274, 8.644e-6
-1.273, 8.741e-6
-1.272, 8.178e-6
-1.271, 8.299e-6
-1.270, 8.124e-6
-1.269, 7.902e-6
-1.268, 7.897e-6
-1.267, 7.438e-6
-1.266, 7.600e-6
-1.265, 7.131e-6
-1.264, 7.253e-6
-1.263, 7.343e-6
-1.262, 6.692e-6
-1.261, 6.961e-6
-1.260, 6.565e-6
-1.259, 6.710e-6
-1.258, 6.414e-6
-1.257, 6.326e-6
-1.256, 6.374e-6
-1.255, 5.934e-6
-1.254, 5.958e-6
-1.253, 5.756e-6
-1.252, 5.702e-6
-1.251, 5.668e-6
-1.250, 5.110e-6
-1.249, 5.167e-6
-1.248, 4.961e-6
-1.247, 4.975e-6
-1.246, 4.815e-6
-1.245, 4.522e-6
-1.244, 4.510e-6
-1.243, 4.437e-6
-1.242, 4.349e-6
-1.241, 4.070e-6
-1.240, 3.911e-6
-1.239, 3.953e-6
-1.238, 3.697e-6
-1.237, 3.688e-6
-1.236, 3.438e-6
-1.235, 3.483e-6
-1.234, 3.378e-6
-1.233, 3.108e-6
-1.232, 3.137e-6
-1.231, 2.892e-6
-1.230, 2.972e-6
-1.229, 2.749e-6
-1.228, 2.613e-6
-1.227, 2.509e-6
-1.226, 2.364e-6
-1.225, 2.376e-6
-1.224, 2.205e-6
-1.223, 2.120e-6
-1.222, 2.064e-6
-1.221, 1.847e-6
-1.220, 1.860e-6
-1.219, 1.697e-6
-1.218, 1.662e-6
-1.217, 1.564e-6
-1.216, 1.427e-6
-1.215, 1.337e-6
-1.214, 1.252e-6
-1.213, 1.181e-6
-1.212, 1.077e-6
-1.211, 1.014e-6
-1.210, 9.469e-7
-1.209, 8.345e-7
-1.208, 7.565e-7
-1.207, 6.569e-7
-1.206, 6.075e-7
-1.205, 5.099e-7
-1.204, 4.546e-7
-1.203, 3.658e-7
-1.202, 2.474e-7
-1.201, 1.833e-7
-1.200, 1.281e-7
-1.199, 5.209e-8
-1.198, -1.500e-8
-1.197, -4.953e-8
-1.196, -1.235e-7
-1.195, -2.054e-7
-1.194, -3.001e-7
-1.193, -3.978e-7
-1.192, -3.810e-7
-1.191, -4.501e-7
-1.190, -5.310e-7
-1.189, -5.961e-7
-1.188, -6.415e-7
-1.187, -6.839e-7
-1.186, -7.766e-7
-1.185, -8.013e-7
-1.184, -9.069e-7
-1.183, -9.631e-7
-1.182, -1.027e-6
-1.181, -1.100e-6
-1.180, -1.051e-6
-1.179, -1.211e-6
-1.178, -1.201e-6
-1.177, -1.188e-6
-1.176, -1.261e-6
-1.175, -1.295e-6
-1.174, -1.394e-6
-1.173, -1.415e-6
-1.172, -1.466e-6
-1.171, -1.529e-6
-1.170, -1.605e-6
-1.169, -1.674e-6
-1.168, -1.668e-6
-1.167, -1.759e-6
-1.166, -1.784e-6
-1.165, -1.918e-6
-1.164, -1.974e-6
-1.163, -1.867e-6
-1.162, -2.003e-6
-1.161, -1.964e-6
-1.160, -2.059e-6
-1.159, -2.045e-6
-1.158, -2.044e-6
-1.157, -2.075e-6
-1.156, -2.053e-6
-1.155, -2.110e-6
-1.154, -2.053e-6
-1.153, -2.141e-6
-1.152, -2.179e-6
-1.151, -2.116e-6
-1.150, -2.313e-6
-1.149, -2.265e-6
-1.148, -2.383e-6
-1.147, -2.389e-6
-1.146, -2.361e-6
-1.145, -2.457e-6
-1.144, -2.430e-6
-1.143, -2.520e-6
-1.142, -2.560e-6
-1.141, -2.515e-6
-1.140, -2.615e-6
-1.139, -2.481e-6
-1.138, -2.599e-6
-1.137, -2.549e-6
-1.136, -2.628e-6
-1.135, -2.693e-6
-1.134, -2.632e-6
-1.133, -2.790e-6
-1.132, -2.728e-6
-1.131, -2.807e-6
-1.130, -2.763e-6
-1.129, -2.738e-6
-1.128, -2.856e-6
-1.127, -2.795e-6
-1.126, -2.928e-6
-1.125, -2.845e-6
-1.124, -2.832e-6
-1.123, -2.985e-6
-1.122, -2.985e-6
-1.121, -3.125e-6
-1.120, -3.140e-6
-1.119, -3.239e-6
-1.118, -3.177e-6
-1.117, -3.053e-6
-1.116, -3.135e-6
-1.115, -3.148e-6
-1.114, -3.233e-6
-1.113, -3.140e-6
-1.112, -3.306e-6
-1.111, -3.398e-6
-1.110, -3.167e-6
-1.109, -3.214e-6
-1.108, -3.146e-6
-1.107, -3.266e-6
-1.106, -3.352e-6
-1.105, -3.303e-6
-1.104, -3.463e-6
-1.103, -3.405e-6
-1.102, -3.491e-6
-1.101, -3.383e-6
-1.100, -3.452e-6
-1.099, -3.535e-6
-1.098, -3.432e-6
-1.097, -3.638e-6
-1.096, -3.511e-6
-1.095, -3.654e-6
-1.094, -3.673e-6
-1.093, -3.505e-6
-1.092, -3.599e-6
-1.091, -3.566e-6
-1.090, -3.732e-6
-1.089, -3.789e-6
-1.088, -3.751e-6
-1.087, -3.767e-6
-1.086, -3.614e-6
-1.085, -3.668e-6
-1.084, -3.602e-6
-1.083, -3.737e-6
-1.082, -3.829e-6
-1.081, -3.715e-6
-1.080, -3.811e-6
-1.079, -3.802e-6
-1.078, -3.967e-6
-1.077, -3.988e-6
-1.076, -3.845e-6
-1.075, -3.973e-6
-1.074, -4.032e-6
-1.073, -4.121e-6
-1.072, -4.037e-6
-1.071, -4.213e-6
-1.070, -4.267e-6
-1.069, -4.148e-6
-1.068, -4.303e-6
-1.067, -4.057e-6
-1.066, -4.212e-6
-1.065, -4.276e-6
-1.064, -4.135e-6
-1.063, -4.187e-6
-1.062, -4.097e-6
-1.061, -4.239e-6
-1.060, -4.295e-6
-1.059, -4.403e-6
-1.058, -4.483e-6
-1.057, -4.240e-6
-1.056, -4.427e-6
-1.055, -4.387e-6
-1.054, -4.630e-6
-1.053, -4.519e-6
-1.052, -4.331e-6
-1.051, -4.531e-6
-1.050, -4.382e-6
-1.049, -4.545e-6
-1.048, -4.457e-6
-1.047, -4.435e-6
-1.046, -4.678e-6
-1.045, -4.606e-6
-1.044, -4.801e-6
-1.043, -4.679e-6
-1.042, -4.912e-6
-1.041, -4.900e-6
-1.040, -4.681e-6
-1.039, -4.914e-6
-1.038, -4.732e-6
-1.037, -4.765e-6
-1.036, -4.807e-6
-1.035, -4.809e-6
-1.034, -4.868e-6
-1.033, -4.855e-6
-1.032, -5.039e-6
-1.031, -4.935e-6
-1.030, -4.893e-6
-1.029, -4.934e-6
-1.028, -4.788e-6
-1.027, -5.023e-6
-1.026, -4.985e-6
-1.025, -5.212e-6
-1.024, -5.216e-6
-1.023, -5.155e-6
-1.022, -5.326e-6
-1.021, -5.218e-6
-1.020, -5.273e-6
-1.019, -5.231e-6
-1.018, -5.271e-6
-1.017, -5.336e-6
-1.016, -5.320e-6
-1.015, -5.653e-6
-1.014, -5.435e-6
-1.013, -5.520e-6
-1.012, -5.456e-6
-1.011, -5.254e-6
-1.010, -5.365e-6
-1.009, -5.202e-6
-1.008, -5.422e-6
-1.007, -5.372e-6
-1.006, -5.437e-6
-1.005, -5.548e-6
-1.004, -5.479e-6
-1.003, -5.654e-6
-1.002, -5.630e-6
-1.001, -5.740e-6
