Potential V vs RHE, Current mA cm-2
0.013299999999999867,-0.02124896372397285
0.012299999999999978,-0.03082655922405915
0.011299999999999866,-0.03628734484153819
0.010299999999999976,-0.040630508532123855
0.009299999999999864,-0.043290165775870124
0.008299999999999974,-0.045666880759643376
0.007299999999999862,-0.047633329466455786
0.006299999999999972,-0.04852459758537076
0.00529999999999986,-0.05042031072718991
0.0042999999999999705,-0.05115596060311973
0.0032999999999998586,-0.0520472287220347
0.0022999999999999687,-0.05266970169397532
0.0012999999999998568,-0.05371658805587544
0.00029999999999996696,-0.05449467927080121
-0.000700000000000145,-0.05483420998276882
-0.0017000000000000348,-0.0557537723276811
-0.0027000000000001467,-0.05588109634466895
-0.0037000000000000366,-0.05657430488160282
-0.0047000000000001485,-0.05721092496654208
-0.005700000000000038,-0.057394837435524544
-0.00670000000000015,-0.05796072195547055
-0.00770000000000004,-0.05847001802342197
-0.008700000000000152,-0.05862563626640712
-0.009700000000000042,-0.059233962125349086
-0.010700000000000154,-0.05913493233435853
-0.011700000000000044,-0.0597432581933005
-0.012700000000000156,-0.0599979062272762
-0.013700000000000045,-0.06045061384323301
-0.014700000000000157,-0.06101649836317903
-0.015700000000000047,-0.06059208497321952
-0.01670000000000016,-0.06128529351015339
-0.01770000000000005,-0.06168141267411559
-0.01870000000000016,-0.0616531184481183
-0.01970000000000005,-0.06220485585506567
-0.020700000000000163,-0.06265756347102248
-0.021700000000000053,-0.06274244614901436
-0.022700000000000164,-0.06295465284399412
-0.023700000000000054,-0.0631385653129766
-0.024700000000000166,-0.0637610382849172
-0.025700000000000056,-0.06378933251091451
-0.026700000000000168,-0.06435521703086051
-0.027700000000000058,-0.06441180548285513
-0.02870000000000017,-0.06496354288980248
-0.02970000000000006,-0.06576992833072555
-0.03070000000000017,-0.06565675142673635
-0.03170000000000006,-0.0655860158617431
-0.03270000000000017,-0.065953840799708
-0.03370000000000006,-0.06603872347769991
-0.034700000000000175,-0.0657557812177269
-0.035700000000000065,-0.06579822255672285
-0.03670000000000018,-0.06654801954565133
-0.03770000000000007,-0.06707146272660139
-0.03870000000000018,-0.06697243293561084
-0.03970000000000007,-0.0675807587945528
-0.04070000000000018,-0.0676373472465474
-0.04170000000000007,-0.06787784816752446
-0.04270000000000018,-0.06835885000947857
-0.04370000000000007,-0.06821737887949207
-0.044700000000000184,-0.06871252783444483
-0.045700000000000074,-0.06881155762543538
-0.046700000000000186,-0.069434030597376
-0.047700000000000076,-0.06970282574435036
-0.04870000000000019,-0.0693491479193841
-0.04970000000000008,-0.07019797469930313
-0.05070000000000019,-0.07033944582928962
-0.05170000000000008,-0.07094777168823159
-0.05270000000000019,-0.07117412549621
-0.05370000000000008,-0.07091947746223429
-0.05470000000000019,-0.0716551273381641
-0.05570000000000008,-0.07154195043417491
-0.056700000000000195,-0.07216442340611552
-0.057700000000000085,-0.07237663010109527
-0.058700000000000196,-0.07237663010109527
-0.059700000000000086,-0.07263127813507098
-0.0607000000000002,-0.07318301554201835
-0.06170000000000009,-0.07387622407895222
-0.0627000000000002,-0.07417331345192386
-0.06370000000000009,-0.07396110675694412
-0.0647000000000002,-0.07441381437290093
-0.06570000000000009,-0.07438552014690362
-0.0667000000000002,-0.07482408064986179
-0.0677000000000001,-0.0753333767178132
-0.0687000000000002,-0.07574364299477407
-0.0697000000000001,-0.07591340835075787
-0.07070000000000021,-0.07647929287070389
-0.0717000000000001,-0.07667735245268498
-0.07270000000000021,-0.0771866485206364
-0.0737000000000001,-0.07697444182565666
-0.07470000000000021,-0.0774978850066067
-0.0757000000000001,-0.0777808272665797
-0.07670000000000021,-0.07845988869051494
-0.0777000000000001,-0.07888430208047445
-0.07870000000000021,-0.07833256467352707
-0.0797000000000001,-0.07911065588845285
-0.08070000000000022,-0.07906821454945691
-0.0817000000000001,-0.07977557019938941
-0.08270000000000022,-0.07964824618240157
-0.08370000000000011,-0.08015754225035297
-0.08470000000000022,-0.08028486626734083
-0.08570000000000011,-0.08087904501328413
-0.08670000000000022,-0.08094978057827738
-0.08770000000000011,-0.08126101706424771
-0.08870000000000022,-0.08179860735819641
-0.08970000000000011,-0.0826615812511141
-0.09070000000000022,-0.08293037639808845
-0.09170000000000011,-0.083029406189079
-0.09270000000000023,-0.08368017338701693
-0.09370000000000012,-0.08414702811597238
-0.09470000000000023,-0.08495341355689547
-0.09570000000000012,-0.08452900016693596
-0.09670000000000023,-0.08516562025187521
-0.09770000000000012,-0.08546270962484687
-0.09870000000000023,-0.08601444703179424
-0.09970000000000012,-0.08643886042175375
-0.10070000000000023,-0.08561832786783201
-0.10170000000000012,-0.08679253824672
-0.10270000000000024,-0.0874150112186606
-0.10370000000000013,-0.08789601306061473
-0.10470000000000024,-0.08730183431467141
-0.10570000000000013,-0.08798089573860662
-0.10670000000000024,-0.0887589869535324
-0.10770000000000013,-0.08933901858647707
-0.10870000000000024,-0.09027272804438799
-0.10970000000000013,-0.09068299432134884
-0.11070000000000024,-0.09199867583022334
-0.11170000000000013,-0.09194208737822873
-0.11270000000000002,-0.09233820654219095
-0.11370000000000013,-0.09304556219212347
-0.11470000000000002,-0.09287579683613965
-0.11570000000000014,-0.09300312085312752
-0.11670000000000003,-0.09372462361605868
-0.11770000000000014,-0.09371047650306003
-0.11870000000000003,-0.09447442060498715
-0.11970000000000014,-0.0944602734919885
-0.12070000000000003,-0.09539398294989941
-0.12170000000000014,-0.0962852510688144
-0.12270000000000003,-0.09588913190485218
-0.12370000000000014,-0.09730384320471722
-0.12470000000000003,-0.09785558061166459
-0.12570000000000014,-0.09736043165671183
-0.12670000000000003,-0.09809608153264164
-0.12770000000000015,-0.09864781893958902
-0.12870000000000004,-0.09927029191152963
-0.12970000000000015,-0.09952493994550533
-0.13070000000000004,-0.10010497157845
-0.13170000000000015,-0.10099623969736496
-0.13270000000000004,-0.10187336070328129
-0.13370000000000015,-0.10256656924021516
-0.13470000000000004,-0.10311830664716252
-0.13570000000000015,-0.10367004405410989
-0.13670000000000004,-0.1040378689920748
-0.13770000000000016,-0.10498572556298437
-0.13870000000000005,-0.10672582046181836
-0.13970000000000016,-0.1065702022188332
-0.14070000000000005,-0.10794247217970229
-0.14170000000000016,-0.10821126732667666
-0.14270000000000005,-0.10804150197069286
-0.14370000000000016,-0.10777270682371849
-0.14470000000000005,-0.10894691720260646
-0.14570000000000016,-0.1094845074965552
-0.14670000000000005,-0.11067286498844181
-0.14770000000000016,-0.11082848323142698
-0.14870000000000005,-0.11259687235625826
-0.14970000000000017,-0.11279493193823936
-0.15070000000000006,-0.11345984624917593
-0.15170000000000017,-0.11515749980901398
-0.15270000000000006,-0.11501602867902748
-0.15370000000000017,-0.1154687362949843
-0.15470000000000006,-0.11589314968494381
-0.15570000000000017,-0.11627512173590737
-0.15670000000000006,-0.11701077161183718
-0.15770000000000017,-0.11918942701362933
-0.15870000000000006,-0.11884989630166173
-0.15970000000000018,-0.11945822216060371
-0.16070000000000007,-0.11985434132456589
-0.16170000000000018,-0.11967042885558345
-0.16270000000000007,-0.1210851401554485
-0.16370000000000018,-0.12228764476033378
-0.16470000000000007,-0.12329208978323794
-0.16570000000000018,-0.1243106819191408
-0.16670000000000007,-0.12525853849005034
-0.16770000000000018,-0.12667324978991537
-0.16870000000000007,-0.12838505046275206
-0.16970000000000018,-0.129601702180636
-0.17070000000000007,-0.1304080876215591
-0.17170000000000019,-0.13101641348050105
-0.17270000000000008,-0.13169547490443625
-0.1737000000000002,-0.1320491527294025
-0.17470000000000008,-0.13110129615849295
-0.1757000000000002,-0.13185109314742144
-0.17670000000000008,-0.1324877132323607
-0.1777000000000002,-0.13333654001227974
-0.17870000000000008,-0.13398730721021762
-0.1797000000000002,-0.13528884160609345
-0.18070000000000008,-0.13596790303002868
-0.1817000000000002,-0.13775043926785863
-0.18270000000000008,-0.13997153600864676
-0.1837000000000002,-0.14089109835355904
-0.1847000000000001,-0.1421784856364362
-0.1857000000000002,-0.1434517258063147
-0.1867000000000001,-0.14628114840604478
-0.1877000000000002,-0.14684703292599083
-0.1887000000000001,-0.14769585970590982
-0.1897000000000002,-0.1496764555257209
-0.1907000000000001,-0.1503838111756534
-0.1917000000000001,-0.15052528230563988
-0.19269999999999998,-0.1510911668255859
-0.1937000000000001,-0.15236440699546444
-0.19469999999999998,-0.15363764716534298
-0.1957000000000001,-0.15462794507524852
-0.19669999999999999,-0.15759883880496509
-0.1977000000000001,-0.15901355010483012
-0.1987,-0.16014531914472213
-0.1997000000000001,-0.16071120366466815
-0.2007,-0.16368209739438472
-0.2017000000000001,-0.16523827982423628
-0.2027,-0.16523827982423628
-0.2037000000000001,-0.16820917355395287
-0.2047,-0.16750181790402036
-0.2057000000000001,-0.16863358694391237
-0.2067,-0.17061418276372342
-0.2077000000000001,-0.17217036519357498
-0.2087,-0.17400948988339954
-0.2097000000000001,-0.17499978779330505
-0.2107,-0.1774047970030756
-0.2117000000000001,-0.17881950830294063
-0.2127,-0.1783950949129811
-0.2137000000000001,-0.17938539282288665
-0.2147,-0.1805171618627787
-0.2157000000000001,-0.18306364220253574
-0.2167,-0.1843368823724143
-0.21770000000000012,-0.18716630497214437
-0.2187,-0.18942984305192842
-0.21970000000000012,-0.1899957275718744
-0.2207,-0.1919763233916855
-0.22170000000000012,-0.1919763233916855
-0.2227,-0.19452280373144254
-0.22370000000000012,-0.19678634181122662
-0.2247,-0.1973522263311726
-0.22570000000000012,-0.20131341797079472
-0.2267,-0.2040013694405383
-0.22770000000000012,-0.2038598983105518
-0.22870000000000001,-0.20612343639033584
-0.22970000000000013,-0.2079625610801604
-0.23070000000000002,-0.21036757028993097
-0.23170000000000013,-0.21079198367989047
-0.23270000000000002,-0.2119237527197825
-0.23370000000000013,-0.21220669497975553
-0.23470000000000002,-0.2153190598394586
-0.23570000000000013,-0.21729965565926962
-0.23670000000000002,-0.2199876071290132
-0.2376999999999999,-0.22140231842887825
-0.23870000000000002,-0.22267555859875673
-0.2396999999999999,-0.2245146832885813
-0.24070000000000003,-0.22691969249835187
-0.24169999999999991,-0.22946617283810894
-0.24270000000000003,-0.23116382639794697
-0.24369999999999992,-0.23300295108777153
-0.24470000000000003,-0.2359738448174881
-0.24569999999999992,-0.23767149837732615
-0.24670000000000003,-0.23639825820744764
-0.24769999999999992,-0.23908620967719119
-0.24870000000000003,-0.24106680549700227
-0.24969999999999992,-0.24389622809673234
-0.25070000000000003,-0.2443206414866918
-0.2516999999999999,-0.2468671218264489
-0.25270000000000004,-0.24870624651627343
-0.2536999999999999,-0.24884771764625993
-0.25470000000000004,-0.252808909285882
-0.2556999999999999,-0.2560627452755716
-0.25670000000000004,-0.2586092256153287
-0.25769999999999993,-0.2588921678753017
-0.25870000000000004,-0.2631363017748969
-0.25969999999999993,-0.2661071955046134
-0.26070000000000004,-0.26695602228453247
-0.26169999999999993,-0.270209858274222
-0.26270000000000004,-0.2726148674839926
-0.26369999999999993,-0.27572723234369567
-0.26470000000000005,-0.2812446064131693
-0.26569999999999994,-0.2818104909331153
-0.26670000000000005,-0.2842155001428859
-0.26769999999999994,-0.28336667336296684
-0.26870000000000005,-0.2880352206525215
-0.26969999999999994,-0.29482583489187364
-0.27070000000000005,-0.29072317212226506
-0.27169999999999994,-0.290157287602319
-0.27270000000000005,-0.29355259472199513
-0.27369999999999994,-0.29454289263190064
-0.27470000000000006,-0.29822114201154976
-0.27569999999999995,-0.30006026670137426
-0.27670000000000006,-0.3071338232006995
-0.27769999999999995,-0.30982177467044303
-0.27870000000000006,-0.31151942823028106
-0.27969999999999995,-0.31265119727017304
-0.28070000000000006,-0.3136414951800786
-0.28169999999999995,-0.31873445585959276
-0.28270000000000006,-0.3185929847296063
-0.28369999999999995,-0.3252421278389719
-0.28470000000000006,-0.32425182992906637
-0.28569999999999995,-0.3293447906085805
-0.28670000000000007,-0.3318912709483376
-0.28769999999999996,-0.33019361738849956
-0.28870000000000007,-0.3323156843382971
-0.28969999999999996,-0.3341548090281217
-0.29070000000000007,-0.3388233563176763
-0.29169999999999996,-0.33981365422758186
-0.29270000000000007,-0.34391631699719044
-0.29369999999999996,-0.34915074880669106
-0.2947000000000001,-0.35155575801646166
-0.29569999999999996,-0.3538192960962457
-0.2967000000000001,-0.3542437094862052
-0.29769999999999996,-0.3583463722558138
-0.2987000000000001,-0.3655613998851255
-0.29969999999999997,-0.366551697795031
-0.3007000000000001,-0.37051288943465316
-0.30169999999999997,-0.3733423120343832
-0.3027000000000001,-0.3799914551437488
-0.30369999999999997,-0.38338676226342494
-0.3047000000000001,-0.38522588695324944
-0.30569999999999997,-0.38918707859287155
-0.3067000000000001,-0.38918707859287155
-0.3077,-0.3942800392723857
-0.3087000000000001,-0.3959776928322238
-0.3097,-0.40036329786180536
-0.3107000000000001,-0.40290977820156243
-0.3117,-0.404183018371441
-0.3127000000000001,-0.4077197966211036
-0.3137,-0.40998333470088766
-0.3147000000000001,-0.41804718911011834
-0.3157,-0.4196033715399699
-0.3167000000000001,-0.41818866024010487
-0.3177,-0.4248378033494705
-0.3187000000000001,-0.4293648795090386
-0.3197,-0.4341748979285798
-0.3207000000000001,-0.4371457916582963
-0.3217,-0.4413899255578914
-0.3227000000000001,-0.44733171301732455
-0.3237,-0.4494537799671222
-0.3247000000000001,-0.45666880759643386
-0.3257,-0.4585079322862584
-0.3267000000000001,-0.464308248615705
-0.3277,-0.4682694402553271
-0.3287000000000001,-0.48001154404420693
-0.3297,-0.4818506687340315
-0.3307000000000001,-0.4832653800338965
-0.3317,-0.49161217670310015
-0.3327000000000001,-0.49472454156280327
-0.3337,-0.4913292344431272
-0.3347000000000001,-0.4941586570428573
-0.3357,-0.4913292344431272
-0.3367000000000001,-0.4968466085126009
-0.3377,-0.501656626932142
-0.3387000000000001,-0.5057592897017505
-0.3397,-0.5094375390813997
-0.3407000000000001,-0.5121254905511432
-0.3417,-0.5231602386900907
-0.3427000000000001,-0.5214625851302525
-0.3437,-0.5272629014596992
-0.3447000000000001,-0.5322143910092269
-0.3457,-0.540136774288471
-0.3467000000000001,-0.5429661968882011
-0.3477,-0.5466444462678502
-0.3487000000000001,-0.5503226956474992
-0.3497,-0.5517374069473643
-0.3507000000000001,-0.558669492316703
-0.3517,-0.5568303676268785
-0.3527000000000001,-0.5590939057066625
-0.3537,-0.5689968848057178
-0.3547000000000001,-0.5684310002857718
-0.3557,-0.576636325824989
-0.35670000000000013,-0.580314575204638
-0.3577,-0.5845587091042331
-0.35870000000000013,-0.5930469769034233
-0.3597,-0.595734928373167
-0.36070000000000013,-0.6001205334027485
-0.3617,-0.6046476095623167
-0.3626999999999999,-0.6129944062315204
-0.3637,-0.6170970690011289
-0.3646999999999999,-0.6211997317707375
-0.3657,-0.6206338472507915
-0.3666999999999999,-0.6257268079303058
-0.3677,-0.6308197686098198
-0.3686999999999999,-0.6335077200795635
-0.36970000000000003,-0.6401568631889291
-0.3706999999999999,-0.6499183711579978
-0.37170000000000003,-0.6555772163574579
-0.3726999999999999,-0.6623678305968101
-0.37370000000000003,-0.6647728398065808
-0.3746999999999999,-0.6731196364757845
-0.37570000000000003,-0.6834470289647994
-0.3766999999999999,-0.6889644030342729
-0.37770000000000004,-0.6933500080638545
-0.3786999999999999,-0.6941988348437735
-0.37970000000000004,-0.7022626892530042
-0.3806999999999999,-0.7094777168823159
-0.38170000000000004,-0.7121656683520595
-0.38269999999999993,-0.7193806959813712
-0.38370000000000004,-0.7274445503906019
-0.38469999999999993,-0.7386207696595357
-0.38570000000000004,-0.7482408064986178
-0.38669999999999993,-0.7438552014690363
-0.38770000000000004,-0.7526264115281995
-0.38869999999999993,-0.7509287579683614
-0.38970000000000005,-0.7582852567276597
-0.39069999999999994,-0.7643685153170794
-0.39170000000000005,-0.7727153119862831
-0.39269999999999994,-0.7742714944161345
-0.39370000000000005,-0.7780912149257702
-0.39469999999999994,-0.7875697806348659
-0.39570000000000005,-0.7943603948742181
-0.39669999999999994,-0.8059610275331113
-0.39770000000000005,-0.8131760551624231
-0.39869999999999994,-0.829162292850898
-0.39970000000000006,-0.8329820133605336
-0.40069999999999995,-0.8252011012112759
-0.40170000000000006,-0.8370846761301421
-0.40269999999999995,-0.8475535397491435
-0.40370000000000006,-0.8544856251184821
-0.40469999999999995,-0.8621250661377534
-0.40570000000000006,-0.8718865741068222
-0.40669999999999995,-0.8768380636563498
-0.40770000000000006,-0.8737256987966467
-0.40869999999999995,-0.8675009690772405
-0.40970000000000006,-0.8725939297567548
-0.41069999999999995,-0.8815066109459044
-0.41170000000000007,-0.8914095900449596
-0.41269999999999996,-0.894380483774676
-0.41370000000000007,-0.9032931649638258
-0.41469999999999996,-0.9062640586935425
-0.41570000000000007,-0.9146108553627462
-0.41669999999999996,-0.9214014696020982
-0.41770000000000007,-0.9290409106213695
-0.41869999999999996,-0.9389438897204249
-0.4197000000000001,-0.9412074278002089
-0.42069999999999996,-0.9504030512493317
-0.4217000000000001,-0.9579010211386163
-0.42269999999999996,-0.9683698847576176
-0.4237000000000001,-0.9740287299570778
-0.42469999999999997,-0.977424037076754
-0.4257000000000001,-0.9869026027858494
-0.42669999999999997,-0.9948249860650937
-0.4277000000000001,-1.0071329743739197
-0.42869999999999997,-1.0140650597432583
-0.4297000000000001,-1.0229777409324081
-0.43069999999999997,-1.0293439417818007
-0.4317000000000001,-1.0345783735913012
-0.4327,-1.0439154681704106
-0.4337000000000001,-1.0461790062501946
-0.4347,-1.0565063987392094
-0.4357000000000001,-1.064853195408413
-0.4367,-1.0641458397584806
-0.4377000000000001,-1.0809809042268743
-0.4387,-1.079990606316969
-0.4397000000000001,-1.0930059502757274
-0.4407,-1.101918631464877
-0.4417000000000001,-1.1029089293747827
-0.4427,-1.117904869153352
-0.4437000000000001,-1.115641331073568
-0.4447,-1.1282322616423668
-0.4457000000000001,-1.1320519821520023
-0.4467,-1.1430867302909495
-0.4477000000000001,-1.1534141227799644
-0.4487,-1.1602047370193165
-0.4497000000000001,-1.1713809562882502
-0.4507,-1.1708150717683043
-0.4517000000000001,-1.1737859654980207
-0.4527,-1.1889233764065767
-0.4537000000000001,-1.1877916073666848
-0.4547,-1.203070489405227
-0.4557000000000001,-1.2012313647154027
-0.4567,-1.2081634500847414
-0.4577000000000001,-1.2245741011631757
-0.4587,-1.2278279371528653
-0.4597000000000001,-1.2327794267023928
-0.4607,-1.2380138585118936
-0.4617000000000001,-1.251595086990598
-0.4627,-1.2633371907794777
-0.4637000000000001,-1.2709766317987488
-0.4647,-1.2824357933276558
-0.4657000000000001,-1.281162553157777
-0.4667,-1.2987049732761036
-0.4677000000000001,-1.3029491071756987
-0.4687,-1.3086079523751588
-0.4697000000000001,-1.322896536503796
-0.4707,-1.3219062385938902
-0.4717000000000001,-1.3377510051523789
-0.4727,-1.3469466286015015
-0.4737000000000001,-1.3582643190004215
-0.4747,-1.3595375591703005
-0.4757000000000001,-1.3627913951599897
-0.4767,-1.3820314688381543
-0.4777000000000001,-1.3811826420582352
-0.4787,-1.3970274086167236
-0.4797000000000001,-1.4032521383361298
-0.4807,-1.4147112998650369
-0.48170000000000013,-1.426028990263957
-0.4827,-1.4345172580631471
-0.48370000000000013,-1.4514937936615278
-0.4847,-1.4543232162612578
-0.48570000000000013,-1.461396772760583
-0.4867,-1.4769585970590984
-0.4876999999999999,-1.4868615761581534
-0.4887,-1.498179266557074
-0.4896999999999999,-1.505252823056399
-0.4907,-1.5222293586547795
-0.4916999999999999,-1.5208146473549145
-0.4927,-1.5307176264539697
-0.4936999999999999,-1.53920589425316
