Mar. 9, 2025   01:22:58
Cyclic Voltammetry
File: c:/users/guazh/data/banditlqround7_x0exp169_r20_3/2025-03-03-exp914\exp914-2025-03-09t01_14_47-h2koh\exp914_cv_sr_800mvs_efin_-1400mv.bin
Data Source:  Experiment
Instrument Model:  CHI760E
Header: CV ran at 800 mVs
Note: 

Init E (V) = -1
High E (V) = -1
Low E (V) = -1.4
Final E (V) = -1
Init P/N = N
Scan Rate (V/s) = 0.8
Segment = 3
Sample Interval (V) = 0.001
Quiet Time (sec) = 2
Sensitivity (A/V) = 0.01
Comp R (ohm) = 1.3

Results:

Channel 1:
Segment 1:

Segment 2:

Segment 3:

Potential/V, Current/A

-1.000, 3.715e-5
-1.001, 2.345e-4
-1.002, 4.102e-4
-1.003, 5.798e-4
-1.004, 7.401e-4
-1.005, 8.912e-4
-1.006, 1.039e-3
-1.007, 1.181e-3
-1.008, 1.317e-3
-1.009, 1.446e-3
-1.010, 1.573e-3
-1.011, 1.693e-3
-1.012, 1.810e-3
-1.013, 1.921e-3
-1.014, 2.029e-3
-1.015, 2.131e-3
-1.016, 2.229e-3
-1.017, 2.328e-3
-1.018, 2.427e-3
-1.019, 2.519e-3
-1.020, 2.612e-3
-1.021, 2.701e-3
-1.022, 2.787e-3
-1.023, 2.874e-3
-1.024, 2.957e-3
-1.025, 3.037e-3
-1.026, 3.114e-3
-1.027, 3.188e-3
-1.028, 3.256e-3
-1.029, 3.324e-3
-1.030, 3.392e-3
-1.031, 3.456e-3
-1.032, 3.521e-3
-1.033, 3.583e-3
-1.034, 3.647e-3
-1.035, 3.706e-3
-1.036, 3.765e-3
-1.037, 3.823e-3
-1.038, 3.876e-3
-1.039, 3.931e-3
-1.040, 3.984e-3
-1.041, 4.033e-3
-1.042, 4.079e-3
-1.043, 4.122e-3
-1.044, 4.172e-3
-1.045, 4.212e-3
-1.046, 4.255e-3
-1.047, 4.298e-3
-1.048, 4.341e-3
-1.049, 4.378e-3
-1.050, 4.418e-3
-1.051, 4.452e-3
-1.052, 4.492e-3
-1.053, 4.520e-3
-1.054, 4.554e-3
-1.055, 4.582e-3
-1.056, 4.612e-3
-1.057, 4.640e-3
-1.058, 4.665e-3
-1.059, 4.693e-3
-1.060, 4.720e-3
-1.061, 4.745e-3
-1.062, 4.770e-3
-1.063, 4.794e-3
-1.064, 4.816e-3
-1.065, 4.841e-3
-1.066, 4.856e-3
-1.067, 4.875e-3
-1.068, 4.890e-3
-1.069, 4.902e-3
-1.070, 4.915e-3
-1.071, 4.930e-3
-1.072, 4.945e-3
-1.073, 4.958e-3
-1.074, 4.973e-3
-1.075, 4.995e-3
-1.076, 5.013e-3
-1.077, 5.032e-3
-1.078, 5.044e-3
-1.079, 5.060e-3
-1.080, 5.069e-3
-1.081, 5.084e-3
-1.082, 5.090e-3
-1.083, 5.097e-3
-1.084, 5.106e-3
-1.085, 5.115e-3
-1.086, 5.124e-3
-1.087, 5.134e-3
-1.088, 5.143e-3
-1.089, 5.152e-3
-1.090, 5.161e-3
-1.091, 5.167e-3
-1.092, 5.174e-3
-1.093, 5.174e-3
-1.094, 5.177e-3
-1.095, 5.180e-3
-1.096, 5.183e-3
-1.097, 5.186e-3
-1.098, 5.186e-3
-1.099, 5.189e-3
-1.100, 5.192e-3
-1.101, 5.195e-3
-1.102, 5.198e-3
-1.103, 5.201e-3
-1.104, 5.201e-3
-1.105, 5.201e-3
-1.106, 5.198e-3
-1.107, 5.192e-3
-1.108, 5.183e-3
-1.109, 5.177e-3
-1.110, 5.171e-3
-1.111, 5.164e-3
-1.112, 5.158e-3
-1.113, 5.149e-3
-1.114, 5.146e-3
-1.115, 5.140e-3
-1.116, 5.134e-3
-1.117, 5.124e-3
-1.118, 5.115e-3
-1.119, 5.106e-3
-1.120, 5.097e-3
-1.121, 5.087e-3
-1.122, 5.081e-3
-1.123, 5.075e-3
-1.124, 5.069e-3
-1.125, 5.063e-3
-1.126, 5.063e-3
-1.127, 5.060e-3
-1.128, 5.053e-3
-1.129, 5.050e-3
-1.130, 5.044e-3
-1.131, 5.035e-3
-1.132, 5.023e-3
-1.133, 5.010e-3
-1.134, 4.998e-3
-1.135, 4.986e-3
-1.136, 4.970e-3
-1.137, 4.961e-3
-1.138, 4.949e-3
-1.139, 4.939e-3
-1.140, 4.933e-3
-1.141, 4.924e-3
-1.142, 4.915e-3
-1.143, 4.912e-3
-1.144, 4.902e-3
-1.145, 4.893e-3
-1.146, 4.881e-3
-1.147, 4.865e-3
-1.148, 4.856e-3
-1.149, 4.841e-3
-1.150, 4.825e-3
-1.151, 4.816e-3
-1.152, 4.801e-3
-1.153, 4.797e-3
-1.154, 4.788e-3
-1.155, 4.782e-3
-1.156, 4.776e-3
-1.157, 4.770e-3
-1.158, 4.760e-3
-1.159, 4.751e-3
-1.160, 4.739e-3
-1.161, 4.730e-3
-1.162, 4.720e-3
-1.163, 4.708e-3
-1.164, 4.699e-3
-1.165, 4.693e-3
-1.166, 4.683e-3
-1.167, 4.680e-3
-1.168, 4.674e-3
-1.169, 4.668e-3
-1.170, 4.665e-3
-1.171, 4.656e-3
-1.172, 4.653e-3
-1.173, 4.640e-3
-1.174, 4.634e-3
-1.175, 4.628e-3
-1.176, 4.616e-3
-1.177, 4.609e-3
-1.178, 4.606e-3
-1.179, 4.597e-3
-1.180, 4.594e-3
-1.181, 4.588e-3
-1.182, 4.582e-3
-1.183, 4.579e-3
-1.184, 4.569e-3
-1.185, 4.563e-3
-1.186, 4.554e-3
-1.187, 4.542e-3
-1.188, 4.532e-3
-1.189, 4.520e-3
-1.190, 4.514e-3
-1.191, 4.508e-3
-1.192, 4.501e-3
-1.193, 4.495e-3
-1.194, 4.492e-3
-1.195, 4.486e-3
-1.196, 4.486e-3
-1.197, 4.480e-3
-1.198, 4.477e-3
-1.199, 4.474e-3
-1.200, 4.464e-3
-1.201, 4.461e-3
-1.202, 4.452e-3
-1.203, 4.449e-3
-1.204, 4.449e-3
-1.205, 4.443e-3
-1.206, 4.446e-3
-1.207, 4.446e-3
-1.208, 4.446e-3
-1.209, 4.443e-3
-1.210, 4.443e-3
-1.211, 4.443e-3
-1.212, 4.443e-3
-1.213, 4.443e-3
-1.214, 4.443e-3
-1.215, 4.437e-3
-1.216, 4.434e-3
-1.217, 4.434e-3
-1.218, 4.434e-3
-1.219, 4.434e-3
-1.220, 4.434e-3
-1.221, 4.431e-3
-1.222, 4.431e-3
-1.223, 4.431e-3
-1.224, 4.424e-3
-1.225, 4.424e-3
-1.226, 4.418e-3
-1.227, 4.415e-3
-1.228, 4.412e-3
-1.229, 4.412e-3
-1.230, 4.406e-3
-1.231, 4.403e-3
-1.232, 4.400e-3
-1.233, 4.403e-3
-1.234, 4.400e-3
-1.235, 4.400e-3
-1.236, 4.403e-3
-1.237, 4.400e-3
-1.238, 4.400e-3
-1.239, 4.397e-3
-1.240, 4.397e-3
-1.241, 4.394e-3
-1.242, 4.391e-3
-1.243, 4.384e-3
-1.244, 4.384e-3
-1.245, 4.381e-3
-1.246, 4.384e-3
-1.247, 4.384e-3
-1.248, 4.391e-3
-1.249, 4.394e-3
-1.250, 4.397e-3
-1.251, 4.397e-3
-1.252, 4.397e-3
-1.253, 4.397e-3
-1.254, 4.397e-3
-1.255, 4.391e-3
-1.256, 4.384e-3
-1.257, 4.384e-3
-1.258, 4.387e-3
-1.259, 4.384e-3
-1.260, 4.391e-3
-1.261, 4.391e-3
-1.262, 4.391e-3
-1.263, 4.397e-3
-1.264, 4.400e-3
-1.265, 4.400e-3
-1.266, 4.400e-3
-1.267, 4.403e-3
-1.268, 4.403e-3
-1.269, 4.400e-3
-1.270, 4.400e-3
-1.271, 4.397e-3
-1.272, 4.397e-3
-1.273, 4.400e-3
-1.274, 4.403e-3
-1.275, 4.406e-3
-1.276, 4.409e-3
-1.277, 4.412e-3
-1.278, 4.415e-3
-1.279, 4.415e-3
-1.280, 4.418e-3
-1.281, 4.421e-3
-1.282, 4.421e-3
-1.283, 4.418e-3
-1.284, 4.418e-3
-1.285, 4.418e-3
-1.286, 4.418e-3
-1.287, 4.421e-3
-1.288, 4.421e-3
-1.289, 4.424e-3
-1.290, 4.424e-3
-1.291, 4.421e-3
-1.292, 4.421e-3
-1.293, 4.415e-3
-1.294, 4.415e-3
-1.295, 4.412e-3
-1.296, 4.409e-3
-1.297, 4.409e-3
-1.298, 4.403e-3
-1.299, 4.403e-3
-1.300, 4.406e-3
-1.301, 4.409e-3
-1.302, 4.412e-3
-1.303, 4.421e-3
-1.304, 4.424e-3
-1.305, 4.428e-3
-1.306, 4.428e-3
-1.307, 4.428e-3
-1.308, 4.431e-3
-1.309, 4.431e-3
-1.310, 4.431e-3
-1.311, 4.434e-3
-1.312, 4.437e-3
-1.313, 4.440e-3
-1.314, 4.446e-3
-1.315, 4.452e-3
-1.316, 4.458e-3
-1.317, 4.461e-3
-1.318, 4.471e-3
-1.319, 4.474e-3
-1.320, 4.477e-3
-1.321, 4.483e-3
-1.322, 4.486e-3
-1.323, 4.483e-3
-1.324, 4.492e-3
-1.325, 4.492e-3
-1.326, 4.505e-3
-1.327, 4.511e-3
-1.328, 4.523e-3
-1.329, 4.529e-3
-1.330, 4.538e-3
-1.331, 4.545e-3
-1.332, 4.554e-3
-1.333, 4.557e-3
-1.334, 4.563e-3
-1.335, 4.566e-3
-1.336, 4.569e-3
-1.337, 4.579e-3
-1.338, 4.582e-3
-1.339, 4.591e-3
-1.340, 4.600e-3
-1.341, 4.606e-3
-1.342, 4.619e-3
-1.343, 4.628e-3
-1.344, 4.637e-3
-1.345, 4.646e-3
-1.346, 4.649e-3
-1.347, 4.653e-3
-1.348, 4.659e-3
-1.349, 4.662e-3
-1.350, 4.665e-3
-1.351, 4.668e-3
-1.352, 4.674e-3
-1.353, 4.683e-3
-1.354, 4.693e-3
-1.355, 4.699e-3
-1.356, 4.708e-3
-1.357, 4.717e-3
-1.358, 4.727e-3
-1.359, 4.730e-3
-1.360, 4.739e-3
-1.361, 4.745e-3
-1.362, 4.754e-3
-1.363, 4.764e-3
-1.364, 4.773e-3
-1.365, 4.779e-3
-1.366, 4.788e-3
-1.367, 4.801e-3
-1.368, 4.816e-3
-1.369, 4.831e-3
-1.370, 4.844e-3
-1.371, 4.859e-3
-1.372, 4.871e-3
-1.373, 4.878e-3
-1.374, 4.890e-3
-1.375, 4.899e-3
-1.376, 4.908e-3
-1.377, 4.924e-3
-1.378, 4.933e-3
-1.379, 4.945e-3
-1.380, 4.955e-3
-1.381, 4.967e-3
-1.382, 4.979e-3
-1.383, 4.998e-3
-1.384, 5.013e-3
-1.385, 5.032e-3
-1.386, 5.047e-3
-1.387, 5.063e-3
-1.388, 5.084e-3
-1.389, 5.106e-3
-1.390, 5.127e-3
-1.391, 5.149e-3
-1.392, 5.171e-3
-1.393, 5.192e-3
-1.394, 5.217e-3
-1.395, 5.235e-3
-1.396, 5.257e-3
-1.397, 5.278e-3
-1.398, 5.294e-3
-1.399, 5.312e-3
-1.400, 5.183e-3
-1.399, 4.816e-3
-1.398, 4.489e-3
-1.397, 4.193e-3
-1.396, 3.922e-3
-1.395, 3.669e-3
-1.394, 3.438e-3
-1.393, 3.216e-3
-1.392, 3.009e-3
-1.391, 2.818e-3
-1.390, 2.633e-3
-1.389, 2.454e-3
-1.388, 2.282e-3
-1.387, 2.118e-3
-1.386, 1.961e-3
-1.385, 1.810e-3
-1.384, 1.665e-3
-1.383, 1.523e-3
-1.382, 1.391e-3
-1.381, 1.261e-3
-1.380, 1.141e-3
-1.379, 1.027e-3
-1.378, 9.128e-4
-1.377, 8.048e-4
-1.376, 7.000e-4
-1.375, 5.983e-4
-1.374, 4.996e-4
-1.373, 4.040e-4
-1.372, 3.085e-4
-1.371, 2.191e-4
-1.370, 1.266e-4
-1.369, 4.332e-5
-1.368, -3.992e-5
-1.367, -1.170e-4
-1.366, -1.941e-4
-1.365, -2.681e-4
-1.364, -3.390e-4
-1.363, -4.068e-4
-1.362, -4.716e-4
-1.361, -5.394e-4
-1.360, -6.072e-4
-1.359, -6.720e-4
-1.358, -7.336e-4
-1.357, -7.984e-4
-1.356, -8.600e-4
-1.355, -9.155e-4
-1.354, -9.679e-4
-1.353, -1.023e-3
-1.352, -1.076e-3
-1.351, -1.125e-3
-1.350, -1.175e-3
-1.349, -1.224e-3
-1.348, -1.273e-3
-1.347, -1.319e-3
-1.346, -1.369e-3
-1.345, -1.415e-3
-1.344, -1.461e-3
-1.343, -1.504e-3
-1.342, -1.551e-3
-1.341, -1.591e-3
-1.340, -1.628e-3
-1.339, -1.665e-3
-1.338, -1.702e-3
-1.337, -1.739e-3
-1.336, -1.776e-3
-1.335, -1.810e-3
-1.334, -1.844e-3
-1.333, -1.881e-3
-1.332, -1.918e-3
-1.331, -1.955e-3
-1.330, -1.988e-3
-1.329, -2.022e-3
-1.328, -2.053e-3
-1.327, -2.081e-3
-1.326, -2.112e-3
-1.325, -2.140e-3
-1.324, -2.164e-3
-1.323, -2.192e-3
-1.322, -2.217e-3
-1.321, -2.247e-3
-1.320, -2.275e-3
-1.319, -2.303e-3
-1.318, -2.331e-3
-1.317, -2.362e-3
-1.316, -2.386e-3
-1.315, -2.414e-3
-1.314, -2.436e-3
-1.313, -2.457e-3
-1.312, -2.476e-3
-1.311, -2.497e-3
-1.310, -2.519e-3
-1.309, -2.537e-3
-1.308, -2.559e-3
-1.307, -2.577e-3
-1.306, -2.599e-3
-1.305, -2.620e-3
-1.304, -2.642e-3
-1.303, -2.664e-3
-1.302, -2.685e-3
-1.301, -2.701e-3
-1.300, -2.722e-3
-1.299, -2.735e-3
-1.298, -2.753e-3
-1.297, -2.765e-3
-1.296, -2.778e-3
-1.295, -2.793e-3
-1.294, -2.812e-3
-1.293, -2.827e-3
-1.292, -2.842e-3
-1.291, -2.861e-3
-1.290, -2.879e-3
-1.289, -2.892e-3
-1.288, -2.907e-3
-1.287, -2.923e-3
-1.286, -2.935e-3
-1.285, -2.944e-3
-1.284, -2.957e-3
-1.283, -2.969e-3
-1.282, -2.978e-3
-1.281, -2.990e-3
-1.280, -3.009e-3
-1.279, -3.021e-3
-1.278, -3.034e-3
-1.277, -3.049e-3
-1.276, -3.058e-3
-1.275, -3.068e-3
-1.274, -3.080e-3
-1.273, -3.089e-3
-1.272, -3.095e-3
-1.271, -3.105e-3
-1.270, -3.111e-3
-1.269, -3.117e-3
-1.268, -3.129e-3
-1.267, -3.135e-3
-1.266, -3.148e-3
-1.265, -3.160e-3
-1.264, -3.172e-3
-1.263, -3.182e-3
-1.262, -3.194e-3
-1.261, -3.200e-3
-1.260, -3.209e-3
-1.259, -3.219e-3
-1.258, -3.225e-3
-1.257, -3.231e-3
-1.256, -3.237e-3
-1.255, -3.246e-3
-1.254, -3.256e-3
-1.253, -3.265e-3
-1.252, -3.274e-3
-1.251, -3.283e-3
-1.250, -3.293e-3
-1.249, -3.302e-3
-1.248, -3.311e-3
-1.247, -3.317e-3
-1.246, -3.320e-3
-1.245, -3.330e-3
-1.244, -3.336e-3
-1.243, -3.339e-3
-1.242, -3.345e-3
-1.241, -3.354e-3
-1.240, -3.364e-3
-1.239, -3.373e-3
-1.238, -3.382e-3
-1.237, -3.391e-3
-1.236, -3.401e-3
-1.235, -3.410e-3
-1.234, -3.416e-3
-1.233, -3.422e-3
-1.232, -3.425e-3
-1.231, -3.431e-3
-1.230, -3.434e-3
-1.229, -3.444e-3
-1.228, -3.453e-3
-1.227, -3.459e-3
-1.226, -3.465e-3
-1.225, -3.475e-3
-1.224, -3.481e-3
-1.223, -3.490e-3
-1.222, -3.496e-3
-1.221, -3.502e-3
-1.220, -3.508e-3
-1.219, -3.512e-3
-1.218, -3.515e-3
-1.217, -3.515e-3
-1.216, -3.521e-3
-1.215, -3.524e-3
-1.214, -3.530e-3
-1.213, -3.533e-3
-1.212, -3.539e-3
-1.211, -3.545e-3
-1.210, -3.555e-3
-1.209, -3.558e-3
-1.208, -3.564e-3
-1.207, -3.567e-3
-1.206, -3.570e-3
-1.205, -3.573e-3
-1.204, -3.573e-3
-1.203, -3.576e-3
-1.202, -3.582e-3
-1.201, -3.586e-3
-1.200, -3.592e-3
-1.199, -3.595e-3
-1.198, -3.601e-3
-1.197, -3.607e-3
-1.196, -3.613e-3
-1.195, -3.616e-3
-1.194, -3.619e-3
-1.193, -3.622e-3
-1.192, -3.622e-3
-1.191, -3.626e-3
-1.190, -3.626e-3
-1.189, -3.629e-3
-1.188, -3.635e-3
-1.187, -3.638e-3
-1.186, -3.644e-3
-1.185, -3.647e-3
-1.184, -3.653e-3
-1.183, -3.659e-3
-1.182, -3.663e-3
-1.181, -3.666e-3
-1.180, -3.666e-3
-1.179, -3.669e-3
-1.178, -3.672e-3
-1.177, -3.672e-3
-1.176, -3.675e-3
-1.175, -3.678e-3
-1.174, -3.681e-3
-1.173, -3.684e-3
-1.172, -3.690e-3
-1.171, -3.696e-3
-1.170, -3.703e-3
-1.169, -3.706e-3
-1.168, -3.709e-3
-1.167, -3.712e-3
-1.166, -3.712e-3
-1.165, -3.712e-3
-1.164, -3.715e-3
-1.163, -3.715e-3
-1.162, -3.718e-3
-1.161, -3.718e-3
-1.160, -3.724e-3
-1.159, -3.730e-3
-1.158, -3.740e-3
-1.157, -3.746e-3
-1.156, -3.755e-3
-1.155, -3.758e-3
-1.154, -3.758e-3
-1.153, -3.761e-3
-1.152, -3.761e-3
-1.151, -3.764e-3
-1.150, -3.764e-3
-1.149, -3.764e-3
-1.148, -3.767e-3
-1.147, -3.770e-3
-1.146, -3.777e-3
-1.145, -3.783e-3
-1.144, -3.792e-3
-1.143, -3.798e-3
-1.142, -3.807e-3
-1.141, -3.811e-3
-1.140, -3.814e-3
-1.139, -3.814e-3
-1.138, -3.817e-3
-1.137, -3.817e-3
-1.136, -3.817e-3
-1.135, -3.820e-3
-1.134, -3.823e-3
-1.133, -3.826e-3
-1.132, -3.829e-3
-1.131, -3.832e-3
-1.130, -3.835e-3
-1.129, -3.838e-3
-1.128, -3.841e-3
-1.127, -3.844e-3
-1.126, -3.848e-3
-1.125, -3.848e-3
-1.124, -3.854e-3
-1.123, -3.854e-3
-1.122, -3.860e-3
-1.121, -3.863e-3
-1.120, -3.866e-3
-1.119, -3.872e-3
-1.118, -3.875e-3
-1.117, -3.881e-3
-1.116, -3.885e-3
-1.115, -3.888e-3
-1.114, -3.888e-3
-1.113, -3.891e-3
-1.112, -3.891e-3
-1.111, -3.891e-3
-1.110, -3.891e-3
-1.109, -3.894e-3
-1.108, -3.897e-3
-1.107, -3.900e-3
-1.106, -3.906e-3
-1.105, -3.915e-3
-1.104, -3.918e-3
-1.103, -3.928e-3
-1.102, -3.931e-3
-1.101, -3.934e-3
-1.100, -3.934e-3
-1.099, -3.937e-3
-1.098, -3.940e-3
-1.097, -3.940e-3
-1.096, -3.943e-3
-1.095, -3.949e-3
-1.094, -3.955e-3
-1.093, -3.965e-3
-1.092, -3.971e-3
-1.091, -3.980e-3
-1.090, -3.989e-3
-1.089, -3.999e-3
-1.088, -4.008e-3
-1.087, -4.014e-3
-1.086, -4.020e-3
-1.085, -4.026e-3
-1.084, -4.029e-3
-1.083, -4.039e-3
-1.082, -4.048e-3
-1.081, -4.057e-3
-1.080, -4.066e-3
-1.079, -4.079e-3
-1.078, -4.091e-3
-1.077, -4.103e-3
-1.076, -4.116e-3
-1.075, -4.128e-3
-1.074, -4.137e-3
-1.073, -4.147e-3
-1.072, -4.153e-3
-1.071, -4.165e-3
-1.070, -4.171e-3
-1.069, -4.181e-3
-1.068, -4.196e-3
-1.067, -4.205e-3
-1.066, -4.221e-3
-1.065, -4.233e-3
-1.064, -4.248e-3
-1.063, -4.258e-3
-1.062, -4.273e-3
-1.061, -4.285e-3
-1.060, -4.301e-3
-1.059, -4.313e-3
-1.058, -4.329e-3
-1.057, -4.341e-3
-1.056, -4.353e-3
-1.055, -4.369e-3
-1.054, -4.384e-3
-1.053, -4.396e-3
-1.052, -4.409e-3
-1.051, -4.424e-3
-1.050, -4.433e-3
-1.049, -4.443e-3
-1.048, -4.452e-3
-1.047, -4.461e-3
-1.046, -4.467e-3
-1.045, -4.477e-3
-1.044, -4.486e-3
-1.043, -4.492e-3
-1.042, -4.507e-3
-1.041, -4.517e-3
-1.040, -4.526e-3
-1.039, -4.541e-3
-1.038, -4.557e-3
-1.037, -4.572e-3
-1.036, -4.588e-3
-1.035, -4.600e-3
-1.034, -4.612e-3
-1.033, -4.625e-3
-1.032, -4.634e-3
-1.031, -4.646e-3
-1.030, -4.662e-3
-1.029, -4.677e-3
-1.028, -4.689e-3
-1.027, -4.708e-3
-1.026, -4.723e-3
-1.025, -4.742e-3
-1.024, -4.760e-3
-1.023, -4.779e-3
-1.022, -4.794e-3
-1.021, -4.809e-3
-1.020, -4.822e-3
-1.019, -4.840e-3
-1.018, -4.853e-3
-1.017, -4.868e-3
-1.016, -4.883e-3
-1.015, -4.899e-3
-1.014, -4.917e-3
-1.013, -4.936e-3
-1.012, -4.957e-3
-1.011, -4.979e-3
-1.010, -5.001e-3
-1.009, -5.019e-3
-1.008, -5.041e-3
-1.007, -5.059e-3
-1.006, -5.078e-3
-1.005, -5.096e-3
-1.004, -5.115e-3
-1.003, -5.130e-3
-1.002, -5.155e-3
-1.001, -5.173e-3
