Potential V vs RHE, Current mA cm-2
0.05339999999999995,-0.05456541483579446
0.05239999999999995,-0.0560367145876541
0.051399999999999946,-0.056828952915578525
0.050399999999999945,-0.057380690322525886
0.049399999999999944,-0.05786169216448
0.04839999999999994,-0.058328546893435466
0.04739999999999994,-0.058767107396393625
0.04639999999999994,-0.05917737367335448
0.04539999999999994,-0.05955934572431805
0.04439999999999994,-0.059955464888280255
0.04339999999999994,-0.060337436939243816
0.04239999999999994,-0.06074770321620467
0.04139999999999994,-0.06112967526716823
0.040399999999999936,-0.06153994154412909
0.039399999999999935,-0.061936060708091316
0.038399999999999934,-0.06234632698505217
0.03739999999999993,-0.06272829903601573
0.03639999999999993,-0.0631385653129766
0.03539999999999993,-0.06352053736394014
0.03439999999999993,-0.06394495075389965
0.03339999999999993,-0.06434106991786188
0.03239999999999993,-0.06472304196882543
0.03139999999999993,-0.06510501401978899
0.030399999999999927,-0.06551528029674986
0.029399999999999926,-0.06591139946071205
0.028399999999999925,-0.06632166573767292
0.027399999999999924,-0.06667534356263917
0.026399999999999924,-0.06711390406559734
0.025399999999999923,-0.0674958761165609
0.024399999999999922,-0.06789199528052312
0.02339999999999992,-0.06833055578348128
0.02239999999999992,-0.06872667494744349
0.02139999999999992,-0.06913694122440435
0.020399999999999918,-0.06956135461436386
0.019399999999999917,-0.06995747377832606
0.018399999999999916,-0.07039603428128423
0.017399999999999916,-0.07079215344524643
0.016399999999999915,-0.07121656683520594
0.015399999999999914,-0.07164098022516545
0.014399999999999913,-0.07203709938912767
0.013399999999999912,-0.07246151277908719
0.012399999999999911,-0.0728859261690467
0.01139999999999991,-0.0733103395590062
0.01039999999999991,-0.07372060583596705
0.009399999999999908,-0.07417331345192386
0.008399999999999908,-0.07458357972888473
0.007399999999999907,-0.07499384600584559
0.006399999999999906,-0.0754465536218024
0.005399999999999905,-0.07588511412476057
0.004399999999999904,-0.07630952751472009
0.003399999999999903,-0.07671979379168092
0.002399999999999902,-0.07714420718164045
0.0013999999999999013,-0.07759691479759726
0.00039999999999990044,-0.07804962241355407
-0.0006000000000001005,-0.07850233002951089
-0.0016000000000001013,-0.07894089053246904
-0.0026000000000001022,-0.07937945103542722
-0.003600000000000103,-0.07983215865138403
-0.004600000000000104,-0.08022827781534624
-0.005600000000000105,-0.08068098543130305
-0.006600000000000106,-0.08116198727325716
-0.007600000000000107,-0.08161469488921397
-0.008600000000000108,-0.08208154961816942
-0.009600000000000108,-0.08250596300812894
-0.01060000000000011,-0.0829445235110871
-0.01160000000000011,-0.08338308401404526
-0.012600000000000111,-0.08383579163000207
-0.013600000000000112,-0.08424605790696293
-0.014600000000000113,-0.0846846184099211
-0.015600000000000114,-0.08515147313887655
-0.016600000000000115,-0.08561832786783201
-0.017600000000000116,-0.08605688837079019
-0.018600000000000116,-0.08652374309974564
-0.019600000000000117,-0.08696230360270381
-0.020600000000000118,-0.08738671699266332
-0.02160000000000012,-0.08782527749562147
-0.02260000000000012,-0.08824969088558099
-0.02360000000000012,-0.0887023985015378
-0.024600000000000122,-0.08916925323049325
-0.025600000000000123,-0.08962196084645008
-0.026600000000000124,-0.09006052134940823
-0.027600000000000124,-0.09051322896536505
-0.028600000000000125,-0.0909517894683232
-0.029600000000000126,-0.09140449708428001
-0.030600000000000127,-0.09185720470023684
-0.03160000000000013,-0.09232405942919229
-0.03260000000000013,-0.09273432570615316
-0.03360000000000013,-0.09318703332210997
-0.03460000000000002,-0.09365388805106543
-0.03560000000000002,-0.09409244855402359
-0.03660000000000002,-0.09453100905698175
-0.03760000000000002,-0.0949695695599399
-0.03860000000000002,-0.09542227717589671
-0.039600000000000024,-0.09584669056585624
-0.040600000000000025,-0.09629939818181305
-0.041600000000000026,-0.09672381157177255
-0.04260000000000003,-0.09713407784873342
-0.04360000000000003,-0.09755849123869292
-0.04460000000000003,-0.09798290462865245
-0.04560000000000003,-0.0984214651316106
-0.04660000000000003,-0.0988175842955728
-0.04760000000000003,-0.09922785057253368
-0.04860000000000003,-0.09966641107549183
-0.04960000000000003,-0.10006253023945405
-0.050600000000000034,-0.1005010907424122
-0.051600000000000035,-0.10093965124537037
-0.052600000000000036,-0.10132162329633393
-0.053600000000000037,-0.10174603668629344
-0.05460000000000004,-0.102128008737257
-0.05560000000000004,-0.1025241279012192
-0.05660000000000004,-0.10292024706518142
-0.05760000000000004,-0.10330221911614497
-0.05860000000000004,-0.1036983382801072
-0.05960000000000004,-0.10405201610507345
-0.06060000000000004,-0.10441984104303836
-0.061600000000000044,-0.10481596020700056
-0.06260000000000004,-0.10516963803196683
-0.06360000000000005,-0.10556575719592905
-0.06460000000000005,-0.10591943502089529
-0.06560000000000005,-0.10628725995886021
-0.06660000000000005,-0.10664093778382645
-0.06760000000000005,-0.10696632138279542
-0.06860000000000005,-0.10733414632076034
-0.06960000000000005,-0.10767367703272793
-0.07060000000000005,-0.10802735485769419
-0.07160000000000005,-0.10835273845666317
-0.07260000000000005,-0.10869226916863078
-0.07360000000000005,-0.10903179988059837
-0.07460000000000006,-0.1093430363665687
-0.07560000000000006,-0.10966841996553764
-0.07660000000000006,-0.10996550933850929
-0.07760000000000006,-0.11027674582447962
-0.07860000000000006,-0.11058798231044992
-0.07960000000000006,-0.11085677745742427
-0.08060000000000006,-0.11115386683039592
-0.08160000000000006,-0.11143680909036893
-0.08260000000000006,-0.1117056042373433
-0.08360000000000006,-0.11200269361031497
-0.08460000000000006,-0.11225734164429065
-0.08560000000000006,-0.11254028390426365
-0.08660000000000007,-0.11279493193823936
-0.08760000000000007,-0.11303543285921643
-0.08860000000000007,-0.1133042280061908
-0.08960000000000007,-0.11354472892716785
-0.09060000000000007,-0.1137852298481449
-0.09160000000000007,-0.11401158365612331
-0.09260000000000007,-0.11420964323810441
-0.09360000000000007,-0.11443599704608282
-0.09460000000000007,-0.11464820374106259
-0.09560000000000007,-0.11484626332304368
-0.09660000000000007,-0.11504432290502477
-0.09760000000000008,-0.11524238248700588
-0.09860000000000008,-0.11545458918198566
-0.09960000000000008,-0.1156385016509681
-0.10060000000000008,-0.11582241411995055
-0.10160000000000008,-0.11602047370193166
-0.10260000000000008,-0.11619023905791546
-0.10360000000000008,-0.11634585730090061
-0.10460000000000008,-0.11652976976988305
-0.10560000000000008,-0.11667124089986959
-0.10660000000000008,-0.11682685914285473
-0.10760000000000008,-0.11696833027284123
-0.10860000000000009,-0.11708150717683044
-0.10960000000000009,-0.11720883119381828
-0.11060000000000009,-0.11733615521080615
-0.11160000000000009,-0.11744933211479533
-0.11260000000000009,-0.11756250901878454
-0.11360000000000009,-0.11764739169677645
-0.11460000000000009,-0.11778886282676294
-0.11560000000000009,-0.11788789261775351
-0.11660000000000009,-0.11795862818274677
-0.1176000000000001,-0.11805765797373731
-0.1186000000000001,-0.11812839353873056
-0.1196000000000001,-0.11818498199072516
-0.1206000000000001,-0.11825571755571843
-0.1216000000000001,-0.11832645312071166
-0.1226000000000001,-0.11836889445970761
-0.1236000000000001,-0.11841133579870355
-0.1246000000000001,-0.11846792425069817
-0.1256000000000001,-0.11851036558969412
-0.1266000000000001,-0.11852451270269278
-0.1276000000000001,-0.11856695404168872
-0.1286000000000001,-0.11862354249368333
-0.1296000000000001,-0.11859524826768601
-0.1306000000000001,-0.11862354249368333
-0.1316000000000001,-0.11865183671968062
-0.1326000000000001,-0.11863768960668199
-0.1336000000000001,-0.11868013094567793
-0.1346000000000001,-0.11866598383267928
-0.1356000000000001,-0.11866598383267928
-0.1366000000000001,-0.11865183671968062
-0.1376000000000001,-0.11862354249368333
-0.1386000000000001,-0.11863768960668199
-0.1396000000000001,-0.11862354249368333
-0.1406000000000001,-0.11858110115468738
-0.14160000000000011,-0.11856695404168872
-0.14260000000000012,-0.11852451270269278
-0.14360000000000012,-0.11851036558969412
-0.14460000000000012,-0.11848207136369682
-0.14560000000000012,-0.11843963002470087
-0.14660000000000012,-0.11839718868570492
-0.14760000000000012,-0.11838304157270628
-0.14860000000000012,-0.11834060023371032
-0.14960000000000012,-0.11829815889471437
-0.15060000000000012,-0.11824157044271978
-0.15160000000000012,-0.11818498199072516
-0.15260000000000012,-0.11815668776472787
-0.15360000000000013,-0.11810009931273327
-0.15460000000000013,-0.11800106952174272
-0.15560000000000013,-0.11795862818274677
-0.15660000000000013,-0.11788789261775351
-0.15760000000000013,-0.11783130416575889
-0.15860000000000013,-0.11774642148776701
-0.15960000000000002,-0.11767568592277375
-0.16060000000000002,-0.11761909747077916
-0.16160000000000002,-0.11753421479278725
-0.16260000000000002,-0.11744933211479533
-0.16360000000000002,-0.1173785965498021
-0.16460000000000002,-0.11730786098480883
-0.16560000000000002,-0.11727956675881154
-0.16660000000000003,-0.1172371254198156
-0.16760000000000003,-0.11710980140282773
-0.16860000000000003,-0.11705321295083315
-0.16960000000000003,-0.11694003604684394
-0.17060000000000003,-0.11685515336885204
-0.17160000000000003,-0.11678441780385877
-0.17260000000000003,-0.11668538801286822
-0.17360000000000003,-0.11660050533487633
-0.17460000000000003,-0.11650147554388576
-0.17560000000000003,-0.11641659286589387
-0.17660000000000003,-0.11633171018790198
-0.17760000000000004,-0.11621853328391277
-0.17860000000000004,-0.11613365060592087
-0.17960000000000004,-0.11604876792792895
-0.18060000000000004,-0.11596388524993705
-0.18160000000000004,-0.11585070834594786
-0.18260000000000004,-0.11576582566795594
-0.18360000000000004,-0.11568094298996405
-0.18460000000000004,-0.11559606031197216
-0.18560000000000004,-0.11549703052098159
-0.18660000000000004,-0.1154121478429897
-0.18760000000000004,-0.11531311805199915
-0.18860000000000005,-0.11522823537400724
-0.18960000000000005,-0.11512920558301669
-0.19060000000000005,-0.11504432290502477
-0.19160000000000005,-0.11497358734003153
-0.19260000000000005,-0.11490285177503827
-0.19360000000000005,-0.11481796909704638
-0.19460000000000005,-0.11473308641905447
-0.19560000000000005,-0.1146623508540612
-0.19660000000000005,-0.11456332106307067
-0.19760000000000005,-0.11446429127208012
-0.19860000000000005,-0.11442184993308416
-0.19960000000000006,-0.1143228201420936
-0.20060000000000006,-0.11425208457710037
-0.20160000000000006,-0.11416720189910846
-0.20260000000000006,-0.11408231922111656
-0.20360000000000006,-0.11403987788212061
-0.20460000000000006,-0.11399743654312465
-0.20560000000000006,-0.11391255386513276
-0.20660000000000006,-0.1138135240741422
-0.20760000000000006,-0.1137569356221476
-0.20860000000000006,-0.113700347170153
-0.20960000000000006,-0.11360131737916243
-0.21060000000000006,-0.11355887604016648
-0.21160000000000007,-0.11348814047517325
-0.21260000000000007,-0.11343155202317864
-0.21360000000000007,-0.11337496357118404
-0.21460000000000007,-0.11329008089319213
-0.21560000000000007,-0.11324763955419619
-0.21660000000000007,-0.11317690398920292
-0.21760000000000007,-0.11314860976320563
-0.21860000000000007,-0.11309202131121103
-0.21960000000000007,-0.11303543285921643
-0.22060000000000007,-0.11297884440722182
-0.22160000000000007,-0.11292225595522724
-0.22260000000000008,-0.11286566750323263
-0.22360000000000008,-0.11282322616423668
-0.22460000000000008,-0.11276663771224207
-0.22560000000000008,-0.11269590214724882
-0.22660000000000008,-0.11265346080825286
-0.22760000000000008,-0.11261101946925692
-0.22860000000000008,-0.11256857813026097
-0.22960000000000008,-0.11254028390426365
-0.23060000000000008,-0.11248369545226906
-0.23160000000000008,-0.11244125411327312
-0.23260000000000008,-0.11239881277427716
-0.23360000000000009,-0.11235637143528121
-0.2346000000000001,-0.11229978298328659
-0.2356000000000001,-0.11227148875728932
-0.2366000000000001,-0.11224319453129203
-0.2376000000000001,-0.11218660607929741
-0.2386000000000001,-0.11217245896629877
-0.2396000000000001,-0.1121300176273028
-0.2406000000000001,-0.11210172340130552
-0.2416000000000001,-0.1120734291753082
-0.2426000000000001,-0.11204513494931091
-0.2436000000000001,-0.11205928206230956
-0.2446000000000001,-0.11200269361031497
-0.2456000000000001,-0.11200269361031497
-0.2466000000000001,-0.11194610515832035
-0.2476000000000001,-0.11191781093232304
-0.2486000000000001,-0.11190366381932441
-0.2496000000000001,-0.11188951670632576
-0.2506000000000001,-0.11190366381932441
-0.2516000000000001,-0.11186122248032847
-0.2526000000000001,-0.1118187811413325
-0.2536000000000001,-0.11180463402833385
-0.2546000000000001,-0.1117904869153352
-0.2556000000000001,-0.11177633980233655
-0.2566000000000001,-0.1117621926893379
-0.2576000000000001,-0.11171975135034196
-0.2586000000000001,-0.11171975135034196
-0.2596000000000001,-0.1117056042373433
-0.2606000000000001,-0.11169145712434464
-0.2616000000000001,-0.11169145712434464
-0.2626000000000001,-0.11166316289834735
-0.2636000000000001,-0.111677310011346
-0.2646000000000001,-0.11166316289834735
-0.2656000000000001,-0.11166316289834735
-0.2666000000000001,-0.1116490157853487
-0.2676000000000001,-0.1116207215593514
-0.2686000000000001,-0.1116207215593514
-0.2696000000000001,-0.1116207215593514
-0.2706000000000001,-0.11163486867235005
-0.2716000000000001,-0.11159242733335409
-0.2726000000000001,-0.11159242733335409
-0.2736000000000001,-0.11160657444635275
-0.2746000000000001,-0.11159242733335409
-0.2756000000000001,-0.11160657444635275
-0.2766000000000001,-0.11157828022035543
-0.2776000000000001,-0.11156413310735679
-0.2786000000000001,-0.11157828022035543
-0.2796000000000001,-0.11154998599435814
-0.2806000000000001,-0.11153583888135948
-0.28160000000000013,-0.11154998599435814
-0.28260000000000013,-0.11156413310735679
-0.28360000000000013,-0.11156413310735679
-0.2846,-0.11153583888135948
-0.2856,-0.11153583888135948
-0.2866,-0.11154998599435814
-0.2876,-0.11152169176836085
-0.2886,-0.11152169176836085
-0.2896,-0.11153583888135948
-0.2906,-0.11153583888135948
-0.2916,-0.11152169176836085
-0.2926,-0.11152169176836085
-0.2936,-0.11153583888135948
-0.29460000000000003,-0.11152169176836085
-0.29560000000000003,-0.11152169176836085
-0.29660000000000003,-0.11153583888135948
-0.29760000000000003,-0.1115075446553622
-0.29860000000000003,-0.1115075446553622
-0.29960000000000003,-0.1115075446553622
-0.30060000000000003,-0.1115075446553622
-0.30160000000000003,-0.11149339754236354
-0.30260000000000004,-0.1114792504293649
-0.30360000000000004,-0.1114792504293649
-0.30460000000000004,-0.11149339754236354
-0.30560000000000004,-0.11157828022035543
-0.30660000000000004,-0.11166316289834735
-0.30760000000000004,-0.11160657444635275
-0.30860000000000004,-0.11156413310735679
-0.30960000000000004,-0.11157828022035543
-0.31060000000000004,-0.11156413310735679
-0.31160000000000004,-0.11153583888135948
-0.31260000000000004,-0.11152169176836085
-0.31360000000000005,-0.11149339754236354
-0.31460000000000005,-0.1114792504293649
-0.31560000000000005,-0.1114792504293649
-0.31660000000000005,-0.11145095620336758
-0.31760000000000005,-0.11143680909036893
-0.31860000000000005,-0.11143680909036893
-0.31960000000000005,-0.11145095620336758
-0.32060000000000005,-0.11143680909036893
-0.32160000000000005,-0.11142266197737029
-0.32260000000000005,-0.11140851486437164
-0.32360000000000005,-0.11140851486437164
-0.32460000000000006,-0.1113660735253757
-0.32560000000000006,-0.11138022063837434
-0.32660000000000006,-0.1113660735253757
-0.32760000000000006,-0.11135192641237703
-0.32860000000000006,-0.11132363218637975
-0.32960000000000006,-0.11129533796038243
-0.33060000000000006,-0.11128119084738379
-0.33160000000000006,-0.11129533796038243
-0.33260000000000006,-0.11126704373438513
-0.33360000000000006,-0.11125289662138649
-0.33460000000000006,-0.11125289662138649
-0.33560000000000006,-0.11123874950838784
-0.33660000000000007,-0.11122460239538919
-0.33760000000000007,-0.11119630816939187
-0.33860000000000007,-0.11118216105639324
-0.33960000000000007,-0.11115386683039592
-0.34060000000000007,-0.11112557260439863
-0.34160000000000007,-0.11111142549139998
-0.34260000000000007,-0.11111142549139998
-0.34360000000000007,-0.11106898415240402
-0.3446000000000001,-0.11105483703940537
-0.3456000000000001,-0.11105483703940537
-0.3466000000000001,-0.11104068992640674
-0.34759999999999996,-0.11099824858741078
-0.3486000000000001,-0.1109558072484148
-0.34959999999999997,-0.11092751302241752
-0.3506000000000001,-0.11089921879642024
-0.35159999999999997,-0.11087092457042293
-0.3526000000000001,-0.11085677745742427
-0.35359999999999997,-0.11081433611842831
-0.3546000000000001,-0.11080018900542968
-0.35559999999999997,-0.11077189477943236
-0.3566000000000001,-0.11072945344043642
-0.3576,-0.11074360055343507
-0.3586000000000001,-0.11072945344043642
-0.3596,-0.11068701210144047
-0.3606000000000001,-0.11065871787544318
-0.3616,-0.11060212942344858
-0.3626000000000001,-0.11055968808445263
-0.3636,-0.11053139385845531
-0.3646000000000001,-0.11048895251945937
-0.3656,-0.11048895251945937
-0.3666000000000001,-0.11043236406746475
-0.3676,-0.11037577561547016
-0.3686000000000001,-0.11037577561547016
-0.3696,-0.11030504005047691
-0.3706000000000001,-0.11030504005047691
-0.3716,-0.11026259871148097
-0.3726000000000001,-0.11020601025948636
-0.3736,-0.11016356892049041
-0.3746000000000001,-0.1101352746944931
-0.3756,-0.11009283335549715
-0.3766000000000001,-0.1100503920165012
-0.3776,-0.11002209779050391
-0.3786000000000001,-0.1099938035645066
-0.3796,-0.10995136222551065
-0.3806000000000001,-0.1099089208865147
-0.3816,-0.10986647954751874
-0.3826000000000001,-0.10980989109552414
-0.3836,-0.10978159686952685
-0.3846000000000001,-0.10975330264352953
-0.3856,-0.10972500841753224
-0.3866000000000001,-0.10966841996553764
-0.3876,-0.10962597862654169
-0.3886000000000001,-0.10954109594854979
-0.3896,-0.10947036038355652
-0.3906000000000001,-0.10942791904456058
-0.3916,-0.10937133059256597
-0.3926000000000001,-0.1093430363665687
-0.3936,-0.10925815368857679
-0.3946000000000001,-0.10924400657557813
-0.3956,-0.10920156523658218
-0.3966000000000001,-0.1091732710105849
-0.3976,-0.10914497678458758
-0.3986000000000001,-0.10908838833259296
-0.3996,-0.10901765276759973
-0.4006000000000001,-0.10900350565460108
-0.4016,-0.10896106431560514
-0.4026000000000001,-0.10890447586361052
-0.4036,-0.10886203452461457
-0.4046000000000001,-0.10880544607261997
-0.4056,-0.10877715184662266
-0.40660000000000013,-0.10869226916863078
-0.4076,-0.10864982782963481
-0.40860000000000013,-0.10863568071663617
-0.4096,-0.10857909226464157
-0.41060000000000013,-0.10856494515164292
-0.4116,-0.10850835669964831
-0.41260000000000013,-0.10849420958664967
-0.4136,-0.10845176824765372
-0.41460000000000014,-0.10842347402165642
-0.4156,-0.10838103268266046
-0.41660000000000014,-0.1083668855696618
-0.4176,-0.1083102971176672
-0.41860000000000014,-0.1083102971176672
-0.41960000000000003,-0.10829615000466856
-0.42060000000000014,-0.10826785577867125
-0.42160000000000003,-0.10825370866567262
-0.42260000000000014,-0.1082254144396753
-0.42360000000000003,-0.10818297310067936
-0.42460000000000014,-0.10816882598768068
-0.42560000000000003,-0.10815467887468207
-0.42660000000000015,-0.1081405317616834
-0.42760000000000004,-0.10812638464868475
-0.42860000000000015,-0.10809809042268745
-0.42960000000000004,-0.10812638464868475
-0.43060000000000015,-0.10812638464868475
-0.43160000000000004,-0.10809809042268745
-0.43260000000000015,-0.10812638464868475
-0.43360000000000004,-0.10812638464868475
-0.43460000000000015,-0.10812638464868475
-0.43560000000000004,-0.10811223753568612
-0.43660000000000015,-0.10812638464868475
