Jan. 8, 2025   16:50:22
Cyclic Voltammetry
File: c:/users/guazh/data/banditlqround7_x0exp772_r5/2025-01-08-exp800\exp800-2025-01-08t16_39_11-arkoh\exp800_cv_sr_500mvs_efin_-1500mv.bin
Data Source:  Experiment
Instrument Model:  CHI760E
Header: CV ran at 500 mVs
Note: 

Init E (V) = -1
High E (V) = -1
Low E (V) = -1.5
Final E (V) = -1
Init P/N = N
Scan Rate (V/s) = 0.5
Segment = 3
Sample Interval (V) = 0.001
Quiet Time (sec) = 2
Sensitivity (A/V) = 0.01
Comp R (ohm) = 1.4

Results:

Channel 1:
Segment 1:
Ep = -1.255V
ip = 3.631e-4A
Ah = 4.409e-5C

Segment 2:

Segment 3:

Potential/V, Current/A

-1.000, -2.927e-6
-1.001, 1.019e-4
-1.002, 2.129e-4
-1.003, 3.023e-4
-1.004, 3.886e-4
-1.005, 4.472e-4
-1.006, 4.750e-4
-1.007, 4.904e-4
-1.008, 4.965e-4
-1.009, 5.120e-4
-1.010, 5.459e-4
-1.011, 5.859e-4
-1.012, 6.260e-4
-1.013, 6.538e-4
-1.014, 6.569e-4
-1.015, 6.507e-4
-1.016, 6.353e-4
-1.017, 6.291e-4
-1.018, 6.384e-4
-1.019, 6.630e-4
-1.020, 6.939e-4
-1.021, 7.154e-4
-1.022, 7.216e-4
-1.023, 7.124e-4
-1.024, 6.939e-4
-1.025, 6.754e-4
-1.026, 6.754e-4
-1.027, 6.969e-4
-1.028, 7.154e-4
-1.029, 7.432e-4
-1.030, 7.524e-4
-1.031, 7.432e-4
-1.032, 7.247e-4
-1.033, 6.969e-4
-1.034, 6.939e-4
-1.035, 7.000e-4
-1.036, 7.247e-4
-1.037, 7.524e-4
-1.038, 7.648e-4
-1.039, 7.617e-4
-1.040, 7.432e-4
-1.041, 7.185e-4
-1.042, 7.062e-4
-1.043, 7.124e-4
-1.044, 7.278e-4
-1.045, 7.555e-4
-1.046, 7.709e-4
-1.047, 7.771e-4
-1.048, 7.617e-4
-1.049, 7.370e-4
-1.050, 7.247e-4
-1.051, 7.154e-4
-1.052, 7.339e-4
-1.053, 7.555e-4
-1.054, 7.802e-4
-1.055, 7.894e-4
-1.056, 7.771e-4
-1.057, 7.555e-4
-1.058, 7.339e-4
-1.059, 7.278e-4
-1.060, 7.339e-4
-1.061, 7.586e-4
-1.062, 7.833e-4
-1.063, 7.987e-4
-1.064, 7.925e-4
-1.065, 7.709e-4
-1.066, 7.494e-4
-1.067, 7.339e-4
-1.068, 7.401e-4
-1.069, 7.586e-4
-1.070, 7.863e-4
-1.071, 7.987e-4
-1.072, 8.048e-4
-1.073, 7.863e-4
-1.074, 7.679e-4
-1.075, 7.524e-4
-1.076, 7.432e-4
-1.077, 7.617e-4
-1.078, 7.833e-4
-1.079, 8.079e-4
-1.080, 8.203e-4
-1.081, 8.048e-4
-1.082, 7.863e-4
-1.083, 7.617e-4
-1.084, 7.524e-4
-1.085, 7.648e-4
-1.086, 7.894e-4
-1.087, 8.141e-4
-1.088, 8.264e-4
-1.089, 8.172e-4
-1.090, 8.048e-4
-1.091, 7.802e-4
-1.092, 7.648e-4
-1.093, 7.709e-4
-1.094, 7.894e-4
-1.095, 8.172e-4
-1.096, 8.326e-4
-1.097, 8.388e-4
-1.098, 8.233e-4
-1.099, 8.018e-4
-1.100, 7.833e-4
-1.101, 7.802e-4
-1.102, 7.956e-4
-1.103, 8.172e-4
-1.104, 8.449e-4
-1.105, 8.511e-4
-1.106, 8.418e-4
-1.107, 8.233e-4
-1.108, 7.956e-4
-1.109, 7.894e-4
-1.110, 8.018e-4
-1.111, 8.233e-4
-1.112, 8.511e-4
-1.113, 8.665e-4
-1.114, 8.603e-4
-1.115, 8.449e-4
-1.116, 8.172e-4
-1.117, 8.079e-4
-1.118, 8.141e-4
-1.119, 8.295e-4
-1.120, 8.603e-4
-1.121, 8.727e-4
-1.122, 8.819e-4
-1.123, 8.665e-4
-1.124, 8.418e-4
-1.125, 8.295e-4
-1.126, 8.203e-4
-1.127, 8.418e-4
-1.128, 8.665e-4
-1.129, 8.912e-4
-1.130, 9.004e-4
-1.131, 8.881e-4
-1.132, 8.696e-4
-1.133, 8.449e-4
-1.134, 8.418e-4
-1.135, 8.480e-4
-1.136, 8.758e-4
-1.137, 9.004e-4
-1.138, 9.158e-4
-1.139, 9.097e-4
-1.140, 8.943e-4
-1.141, 8.727e-4
-1.142, 8.573e-4
-1.143, 8.603e-4
-1.144, 8.819e-4
-1.145, 9.128e-4
-1.146, 9.251e-4
-1.147, 9.343e-4
-1.148, 9.158e-4
-1.149, 9.004e-4
-1.150, 8.819e-4
-1.151, 8.758e-4
-1.152, 8.943e-4
-1.153, 9.189e-4
-1.154, 9.436e-4
-1.155, 9.559e-4
-1.156, 9.436e-4
-1.157, 9.282e-4
-1.158, 9.035e-4
-1.159, 8.943e-4
-1.160, 9.097e-4
-1.161, 9.343e-4
-1.162, 9.590e-4
-1.163, 9.744e-4
-1.164, 9.683e-4
-1.165, 9.559e-4
-1.166, 9.343e-4
-1.167, 9.189e-4
-1.168, 9.251e-4
-1.169, 9.467e-4
-1.170, 9.744e-4
-1.171, 9.929e-4
-1.172, 9.991e-4
-1.173, 9.868e-4
-1.174, 9.652e-4
-1.175, 9.498e-4
-1.176, 9.467e-4
-1.177, 9.683e-4
-1.178, 9.898e-4
-1.179, 1.018e-3
-1.180, 1.027e-3
-1.181, 1.024e-3
-1.182, 1.005e-3
-1.183, 9.775e-4
-1.184, 9.744e-4
-1.185, 9.868e-4
-1.186, 1.011e-3
-1.187, 1.039e-3
-1.188, 1.055e-3
-1.189, 1.051e-3
-1.190, 1.039e-3
-1.191, 1.014e-3
-1.192, 1.008e-3
-1.193, 1.014e-3
-1.194, 1.033e-3
-1.195, 1.064e-3
-1.196, 1.079e-3
-1.197, 1.088e-3
-1.198, 1.076e-3
-1.199, 1.055e-3
-1.200, 1.042e-3
-1.201, 1.039e-3
-1.202, 1.058e-3
-1.203, 1.085e-3
-1.204, 1.113e-3
-1.205, 1.125e-3
-1.206, 1.116e-3
-1.207, 1.098e-3
-1.208, 1.079e-3
-1.209, 1.076e-3
-1.210, 1.088e-3
-1.211, 1.113e-3
-1.212, 1.141e-3
-1.213, 1.159e-3
-1.214, 1.159e-3
-1.215, 1.141e-3
-1.216, 1.122e-3
-1.217, 1.113e-3
-1.218, 1.119e-3
-1.219, 1.141e-3
-1.220, 1.172e-3
-1.221, 1.190e-3
-1.222, 1.199e-3
-1.223, 1.184e-3
-1.224, 1.169e-3
-1.225, 1.156e-3
-1.226, 1.150e-3
-1.227, 1.172e-3
-1.228, 1.193e-3
-1.229, 1.227e-3
-1.230, 1.240e-3
-1.231, 1.227e-3
-1.232, 1.212e-3
-1.233, 1.190e-3
-1.234, 1.184e-3
-1.235, 1.203e-3
-1.236, 1.224e-3
-1.237, 1.249e-3
-1.238, 1.267e-3
-1.239, 1.261e-3
-1.240, 1.252e-3
-1.241, 1.230e-3
-1.242, 1.215e-3
-1.243, 1.221e-3
-1.244, 1.243e-3
-1.245, 1.270e-3
-1.246, 1.289e-3
-1.247, 1.295e-3
-1.248, 1.283e-3
-1.249, 1.261e-3
-1.250, 1.243e-3
-1.251, 1.240e-3
-1.252, 1.258e-3
-1.253, 1.277e-3
-1.254, 1.304e-3
-1.255, 1.310e-3
-1.256, 1.301e-3
-1.257, 1.283e-3
-1.258, 1.252e-3
-1.259, 1.246e-3
-1.260, 1.252e-3
-1.261, 1.270e-3
-1.262, 1.298e-3
-1.263, 1.307e-3
-1.264, 1.301e-3
-1.265, 1.280e-3
-1.266, 1.249e-3
-1.267, 1.236e-3
-1.268, 1.236e-3
-1.269, 1.246e-3
-1.270, 1.270e-3
-1.271, 1.277e-3
-1.272, 1.277e-3
-1.273, 1.258e-3
-1.274, 1.227e-3
-1.275, 1.206e-3
-1.276, 1.190e-3
-1.277, 1.199e-3
-1.278, 1.215e-3
-1.279, 1.233e-3
-1.280, 1.236e-3
-1.281, 1.218e-3
-1.282, 1.190e-3
-1.283, 1.159e-3
-1.284, 1.144e-3
-1.285, 1.141e-3
-1.286, 1.156e-3
-1.287, 1.172e-3
-1.288, 1.178e-3
-1.289, 1.166e-3
-1.290, 1.141e-3
-1.291, 1.107e-3
-1.292, 1.085e-3
-1.293, 1.079e-3
-1.294, 1.092e-3
-1.295, 1.113e-3
-1.296, 1.119e-3
-1.297, 1.119e-3
-1.298, 1.095e-3
-1.299, 1.070e-3
-1.300, 1.042e-3
-1.301, 1.027e-3
-1.302, 1.042e-3
-1.303, 1.058e-3
-1.304, 1.079e-3
-1.305, 1.085e-3
-1.306, 1.070e-3
-1.307, 1.045e-3
-1.308, 1.018e-3
-1.309, 1.002e-3
-1.310, 1.014e-3
-1.311, 1.036e-3
-1.312, 1.058e-3
-1.313, 1.073e-3
-1.314, 1.061e-3
-1.315, 1.045e-3
-1.316, 1.024e-3
-1.317, 1.005e-3
-1.318, 1.011e-3
-1.319, 1.030e-3
-1.320, 1.058e-3
-1.321, 1.076e-3
-1.322, 1.082e-3
-1.323, 1.067e-3
-1.324, 1.048e-3
-1.325, 1.030e-3
-1.326, 1.030e-3
-1.327, 1.048e-3
-1.328, 1.070e-3
-1.329, 1.101e-3
-1.330, 1.113e-3
-1.331, 1.110e-3
-1.332, 1.095e-3
-1.333, 1.070e-3
-1.334, 1.070e-3
-1.335, 1.082e-3
-1.336, 1.110e-3
-1.337, 1.144e-3
-1.338, 1.162e-3
-1.339, 1.162e-3
-1.340, 1.156e-3
-1.341, 1.132e-3
-1.342, 1.132e-3
-1.343, 1.141e-3
-1.344, 1.162e-3
-1.345, 1.196e-3
-1.346, 1.218e-3
-1.347, 1.233e-3
-1.348, 1.230e-3
-1.349, 1.215e-3
-1.350, 1.206e-3
-1.351, 1.209e-3
-1.352, 1.230e-3
-1.353, 1.267e-3
-1.354, 1.304e-3
-1.355, 1.320e-3
-1.356, 1.323e-3
-1.357, 1.310e-3
-1.358, 1.301e-3
-1.359, 1.304e-3
-1.360, 1.323e-3
-1.361, 1.360e-3
-1.362, 1.394e-3
-1.363, 1.421e-3
-1.364, 1.431e-3
-1.365, 1.428e-3
-1.366, 1.415e-3
-1.367, 1.421e-3
-1.368, 1.431e-3
-1.369, 1.468e-3
-1.370, 1.511e-3
-1.371, 1.539e-3
-1.372, 1.563e-3
-1.373, 1.560e-3
-1.374, 1.557e-3
-1.375, 1.560e-3
-1.376, 1.566e-3
-1.377, 1.603e-3
-1.378, 1.640e-3
-1.379, 1.684e-3
-1.380, 1.711e-3
-1.381, 1.724e-3
-1.382, 1.724e-3
-1.383, 1.721e-3
-1.384, 1.730e-3
-1.385, 1.761e-3
-1.386, 1.807e-3
-1.387, 1.850e-3
-1.388, 1.887e-3
-1.389, 1.902e-3
-1.390, 1.912e-3
-1.391, 1.912e-3
-1.392, 1.921e-3
-1.393, 1.949e-3
-1.394, 1.989e-3
-1.395, 2.038e-3
-1.396, 2.084e-3
-1.397, 2.118e-3
-1.398, 2.128e-3
-1.399, 2.134e-3
-1.400, 2.140e-3
-1.401, 2.168e-3
-1.402, 2.211e-3
-1.403, 2.257e-3
-1.404, 2.316e-3
-1.405, 2.356e-3
-1.406, 2.377e-3
-1.407, 2.393e-3
-1.408, 2.396e-3
-1.409, 2.423e-3
-1.410, 2.467e-3
-1.411, 2.522e-3
-1.412, 2.587e-3
-1.413, 2.636e-3
-1.414, 2.664e-3
-1.415, 2.689e-3
-1.416, 2.695e-3
-1.417, 2.726e-3
-1.418, 2.766e-3
-1.419, 2.815e-3
-1.420, 2.889e-3
-1.421, 2.941e-3
-1.422, 2.988e-3
-1.423, 3.012e-3
-1.424, 3.037e-3
-1.425, 3.062e-3
-1.426, 3.102e-3
-1.427, 3.157e-3
-1.428, 3.231e-3
-1.429, 3.299e-3
-1.430, 3.355e-3
-1.431, 3.392e-3
-1.432, 3.419e-3
-1.433, 3.444e-3
-1.434, 3.487e-3
-1.435, 3.543e-3
-1.436, 3.620e-3
-1.437, 3.697e-3
-1.438, 3.762e-3
-1.439, 3.811e-3
-1.440, 3.851e-3
-1.441, 3.879e-3
-1.442, 3.925e-3
-1.443, 3.980e-3
-1.444, 4.054e-3
-1.445, 4.138e-3
-1.446, 4.212e-3
-1.447, 4.280e-3
-1.448, 4.323e-3
-1.449, 4.363e-3
-1.450, 4.406e-3
-1.451, 4.455e-3
-1.452, 4.538e-3
-1.453, 4.619e-3
-1.454, 4.708e-3
-1.455, 4.782e-3
-1.456, 4.841e-3
-1.457, 4.884e-3
-1.458, 4.930e-3
-1.459, 4.986e-3
-1.460, 5.063e-3
-1.461, 5.149e-3
-1.462, 5.241e-3
-1.463, 5.328e-3
-1.464, 5.389e-3
-1.465, 5.448e-3
-1.466, 5.497e-3
-1.467, 5.556e-3
-1.468, 5.627e-3
-1.469, 5.716e-3
-1.470, 5.809e-3
-1.471, 5.898e-3
-1.472, 5.978e-3
-1.473, 6.034e-3
-1.474, 6.092e-3
-1.475, 6.142e-3
-1.476, 6.213e-3
-1.477, 6.299e-3
-1.478, 6.395e-3
-1.479, 6.496e-3
-1.480, 6.580e-3
-1.481, 6.647e-3
-1.482, 6.715e-3
-1.483, 6.777e-3
-1.484, 6.842e-3
-1.485, 6.937e-3
-1.486, 7.030e-3
-1.487, 7.141e-3
-1.488, 7.230e-3
-1.489, 7.301e-3
-1.490, 7.372e-3
-1.491, 7.424e-3
-1.492, 7.495e-3
-1.493, 7.578e-3
-1.494, 7.671e-3
-1.495, 7.785e-3
-1.496, 7.884e-3
-1.497, 7.985e-3
-1.498, 8.069e-3
-1.499, 8.109e-3
-1.500, 8.062e-3
-1.499, 7.890e-3
-1.498, 7.779e-3
-1.497, 7.699e-3
-1.496, 7.631e-3
-1.495, 7.548e-3
-1.494, 7.461e-3
-1.493, 7.356e-3
-1.492, 7.252e-3
-1.491, 7.162e-3
-1.490, 7.073e-3
-1.489, 6.999e-3
-1.488, 6.940e-3
-1.487, 6.869e-3
-1.486, 6.786e-3
-1.485, 6.697e-3
-1.484, 6.592e-3
-1.483, 6.502e-3
-1.482, 6.422e-3
-1.481, 6.361e-3
-1.480, 6.308e-3
-1.479, 6.243e-3
-1.478, 6.176e-3
-1.477, 6.083e-3
-1.476, 5.994e-3
-1.475, 5.889e-3
-1.474, 5.815e-3
-1.473, 5.744e-3
-1.472, 5.688e-3
-1.471, 5.633e-3
-1.470, 5.571e-3
-1.469, 5.491e-3
-1.468, 5.393e-3
-1.467, 5.300e-3
-1.466, 5.214e-3
-1.465, 5.152e-3
-1.464, 5.100e-3
-1.463, 5.047e-3
-1.462, 4.992e-3
-1.461, 4.915e-3
-1.460, 4.834e-3
-1.459, 4.745e-3
-1.458, 4.668e-3
-1.457, 4.600e-3
-1.456, 4.545e-3
-1.455, 4.492e-3
-1.454, 4.431e-3
-1.453, 4.384e-3
-1.452, 4.286e-3
-1.451, 4.193e-3
-1.450, 4.110e-3
-1.449, 4.039e-3
-1.448, 3.996e-3
-1.447, 3.947e-3
-1.446, 3.913e-3
-1.445, 3.860e-3
-1.444, 3.786e-3
-1.443, 3.706e-3
-1.442, 3.623e-3
-1.441, 3.552e-3
-1.440, 3.499e-3
-1.439, 3.456e-3
-1.438, 3.425e-3
-1.437, 3.382e-3
-1.436, 3.311e-3
-1.435, 3.244e-3
-1.434, 3.157e-3
-1.433, 3.089e-3
-1.432, 3.034e-3
-1.431, 2.994e-3
-1.430, 2.960e-3
-1.429, 2.923e-3
-1.428, 2.871e-3
-1.427, 2.806e-3
-1.426, 2.735e-3
-1.425, 2.661e-3
-1.424, 2.605e-3
-1.423, 2.565e-3
-1.422, 2.538e-3
-1.421, 2.513e-3
-1.420, 2.467e-3
-1.419, 2.411e-3
-1.418, 2.340e-3
-1.417, 2.269e-3
-1.416, 2.214e-3
-1.415, 2.174e-3
-1.414, 2.146e-3
-1.413, 2.128e-3
-1.412, 2.091e-3
-1.411, 2.041e-3
-1.410, 1.983e-3
-1.409, 1.912e-3
-1.408, 1.856e-3
-1.407, 1.810e-3
-1.406, 1.788e-3
-1.405, 1.773e-3
-1.404, 1.742e-3
-1.403, 1.711e-3
-1.402, 1.653e-3
-1.401, 1.594e-3
-1.400, 1.545e-3
-1.399, 1.495e-3
-1.398, 1.471e-3
-1.397, 1.455e-3
-1.396, 1.437e-3
-1.395, 1.409e-3
-1.394, 1.366e-3
-1.393, 1.295e-3
-1.392, 1.243e-3
-1.391, 1.196e-3
-1.390, 1.172e-3
-1.389, 1.156e-3
-1.388, 1.147e-3
-1.387, 1.132e-3
-1.386, 1.092e-3
-1.385, 1.039e-3
-1.384, 9.868e-4
-1.383, 9.436e-4
-1.382, 9.066e-4
-1.381, 8.943e-4
-1.380, 8.819e-4
-1.379, 8.696e-4
-1.378, 8.480e-4
-1.377, 7.987e-4
-1.376, 7.555e-4
-1.375, 7.062e-4
-1.374, 6.723e-4
-1.373, 6.599e-4
-1.372, 6.507e-4
-1.371, 6.538e-4
-1.370, 6.353e-4
-1.369, 5.983e-4
-1.368, 5.582e-4
-1.367, 5.058e-4
-1.366, 4.688e-4
-1.365, 4.565e-4
-1.364, 4.472e-4
-1.363, 4.534e-4
-1.362, 4.472e-4
-1.361, 4.164e-4
-1.360, 3.794e-4
-1.359, 3.331e-4
-1.358, 2.992e-4
-1.357, 2.776e-4
-1.356, 2.746e-4
-1.355, 2.776e-4
-1.354, 2.746e-4
-1.353, 2.591e-4
-1.352, 2.283e-4
-1.351, 1.882e-4
-1.350, 1.451e-4
-1.349, 1.235e-4
-1.348, 1.173e-4
-1.347, 1.235e-4
-1.346, 1.296e-4
-1.345, 1.204e-4
-1.344, 9.573e-5
-1.343, 5.873e-5
-1.342, 1.557e-5
-1.341, -9.093e-6
-1.340, -1.526e-5
-1.339, -1.218e-5
-1.338, 1.559e-7
-1.337, -2.927e-6
-1.336, -1.834e-5
-1.335, -4.917e-5
-1.334, -8.925e-5
-1.333, -1.139e-4
-1.332, -1.324e-4
-1.331, -1.263e-4
-1.330, -1.108e-4
-1.329, -1.108e-4
-1.328, -1.139e-4
-1.327, -1.417e-4
-1.326, -1.756e-4
-1.325, -2.033e-4
-1.324, -2.249e-4
-1.323, -2.218e-4
-1.322, -2.126e-4
-1.321, -2.033e-4
-1.320, -2.002e-4
-1.319, -2.187e-4
-1.318, -2.527e-4
-1.317, -2.835e-4
-1.316, -3.051e-4
-1.315, -3.051e-4
-1.314, -2.958e-4
-1.313, -2.773e-4
-1.312, -2.742e-4
-1.311, -2.897e-4
-1.310, -3.143e-4
-1.309, -3.452e-4
-1.308, -3.667e-4
-1.307, -3.760e-4
-1.306, -3.637e-4
-1.305, -3.513e-4
-1.304, -3.421e-4
-1.303, -3.390e-4
-1.302, -3.667e-4
-1.301, -3.883e-4
-1.300, -4.191e-4
-1.299, -4.315e-4
-1.298, -4.222e-4
-1.297, -4.099e-4
-1.296, -3.945e-4
-1.295, -3.883e-4
-1.294, -4.099e-4
-1.293, -4.284e-4
-1.292, -4.592e-4
-1.291, -4.777e-4
-1.290, -4.716e-4
-1.289, -4.623e-4
-1.288, -4.376e-4
-1.287, -4.315e-4
-1.286, -4.438e-4
-1.285, -4.623e-4
-1.284, -4.931e-4
-1.283, -5.116e-4
-1.282, -5.147e-4
-1.281, -5.024e-4
-1.280, -4.870e-4
-1.279, -4.716e-4
-1.278, -4.746e-4
-1.277, -4.901e-4
-1.276, -5.147e-4
-1.275, -5.394e-4
-1.274, -5.486e-4
-1.273, -5.425e-4
-1.272, -5.240e-4
-1.271, -5.024e-4
-1.270, -4.962e-4
-1.269, -5.116e-4
-1.268, -5.332e-4
-1.267, -5.641e-4
-1.266, -5.733e-4
-1.265, -5.671e-4
-1.264, -5.548e-4
-1.263, -5.301e-4
-1.262, -5.209e-4
-1.261, -5.271e-4
-1.260, -5.456e-4
-1.259, -5.764e-4
-1.258, -5.887e-4
-1.257, -5.949e-4
-1.256, -5.795e-4
-1.255, -5.579e-4
-1.254, -5.425e-4
-1.253, -5.425e-4
-1.252, -5.579e-4
-1.251, -5.826e-4
-1.250, -6.041e-4
-1.249, -6.103e-4
-1.248, -6.041e-4
-1.247, -5.826e-4
-1.246, -5.610e-4
-1.245, -5.548e-4
-1.244, -5.641e-4
-1.243, -5.887e-4
-1.242, -6.134e-4
-1.241, -6.257e-4
-1.240, -6.195e-4
-1.239, -6.011e-4
-1.238, -5.764e-4
-1.237, -5.702e-4
-1.236, -5.733e-4
-1.235, -5.949e-4
-1.234, -6.195e-4
-1.233, -6.319e-4
-1.232, -6.380e-4
-1.231, -6.195e-4
-1.230, -5.980e-4
-1.229, -5.887e-4
-1.228, -5.826e-4
-1.227, -5.980e-4
-1.226, -6.226e-4
-1.225, -6.442e-4
-1.224, -6.535e-4
-1.223, -6.380e-4
-1.222, -6.165e-4
-1.221, -5.980e-4
-1.220, -5.887e-4
-1.219, -6.011e-4
-1.218, -6.195e-4
-1.217, -6.442e-4
-1.216, -6.596e-4
-1.215, -6.504e-4
-1.214, -6.319e-4
-1.213, -6.103e-4
-1.212, -5.949e-4
-1.211, -6.011e-4
-1.210, -6.226e-4
-1.209, -6.442e-4
-1.208, -6.627e-4
-1.207, -6.627e-4
-1.206, -6.442e-4
-1.205, -6.257e-4
-1.204, -6.103e-4
-1.203, -6.041e-4
-1.202, -6.226e-4
-1.201, -6.411e-4
-1.200, -6.658e-4
-1.199, -6.720e-4
-1.198, -6.596e-4
-1.197, -6.411e-4
-1.196, -6.165e-4
-1.195, -6.072e-4
-1.194, -6.226e-4
-1.193, -6.411e-4
-1.192, -6.689e-4
-1.191, -6.781e-4
-1.190, -6.689e-4
-1.189, -6.535e-4
-1.188, -6.288e-4
-1.187, -6.195e-4
-1.186, -6.226e-4
-1.185, -6.380e-4
-1.184, -6.658e-4
-1.183, -6.781e-4
-1.182, -6.812e-4
-1.181, -6.689e-4
-1.180, -6.411e-4
-1.179, -6.257e-4
-1.178, -6.257e-4
-1.177, -6.411e-4
-1.176, -6.627e-4
-1.175, -6.843e-4
-1.174, -6.905e-4
-1.173, -6.781e-4
-1.172, -6.596e-4
-1.171, -6.350e-4
-1.170, -6.288e-4
-1.169, -6.380e-4
-1.168, -6.596e-4
-1.167, -6.874e-4
-1.166, -6.966e-4
-1.165, -6.905e-4
-1.164, -6.720e-4
-1.163, -6.442e-4
-1.162, -6.380e-4
-1.161, -6.411e-4
-1.160, -6.596e-4
-1.159, -6.874e-4
-1.158, -6.997e-4
-1.157, -7.028e-4
-1.156, -6.843e-4
-1.155, -6.596e-4
-1.154, -6.504e-4
-1.153, -6.411e-4
-1.152, -6.565e-4
-1.151, -6.843e-4
-1.150, -7.028e-4
-1.149, -7.120e-4
-1.148, -6.997e-4
-1.147, -6.781e-4
-1.146, -6.565e-4
-1.145, -6.473e-4
-1.144, -6.596e-4
-1.143, -6.812e-4
-1.142, -7.059e-4
-1.141, -7.151e-4
-1.140, -7.120e-4
-1.139, -6.935e-4
-1.138, -6.720e-4
-1.137, -6.565e-4
-1.136, -6.596e-4
-1.135, -6.843e-4
-1.134, -7.059e-4
-1.133, -7.244e-4
-1.132, -7.275e-4
-1.131, -7.090e-4
-1.130, -6.874e-4
-1.129, -6.720e-4
-1.128, -6.689e-4
-1.127, -6.874e-4
-1.126, -7.059e-4
-1.125, -7.275e-4
-1.124, -7.398e-4
-1.123, -7.244e-4
-1.122, -7.090e-4
-1.121, -6.812e-4
-1.120, -6.750e-4
-1.119, -6.905e-4
-1.118, -7.090e-4
-1.117, -7.367e-4
-1.116, -7.460e-4
-1.115, -7.398e-4
-1.114, -7.244e-4
-1.113, -6.997e-4
-1.112, -6.874e-4
-1.111, -6.966e-4
-1.110, -7.120e-4
-1.109, -7.367e-4
-1.108, -7.552e-4
-1.107, -7.583e-4
-1.106, -7.460e-4
-1.105, -7.213e-4
-1.104, -7.028e-4
-1.103, -7.059e-4
-1.102, -7.182e-4
-1.101, -7.429e-4
-1.100, -7.706e-4
-1.099, -7.737e-4
-1.098, -7.614e-4
-1.097, -7.460e-4
-1.096, -7.213e-4
-1.095, -7.182e-4
-1.094, -7.275e-4
-1.093, -7.490e-4
-1.092, -7.799e-4
-1.091, -7.891e-4
-1.090, -7.860e-4
-1.089, -7.675e-4
-1.088, -7.429e-4
-1.087, -7.336e-4
-1.086, -7.398e-4
-1.085, -7.614e-4
-1.084, -7.891e-4
-1.083, -8.015e-4
-1.082, -8.045e-4
-1.081, -7.953e-4
-1.080, -7.706e-4
-1.079, -7.614e-4
-1.078, -7.552e-4
-1.077, -7.706e-4
-1.076, -7.984e-4
-1.075, -8.200e-4
-1.074, -8.354e-4
-1.073, -8.230e-4
-1.072, -8.045e-4
-1.071, -7.860e-4
-1.070, -7.799e-4
-1.069, -7.922e-4
-1.068, -8.169e-4
-1.067, -8.415e-4
-1.066, -8.539e-4
-1.065, -8.508e-4
-1.064, -8.354e-4
-1.063, -8.169e-4
-1.062, -8.045e-4
-1.061, -8.107e-4
-1.060, -8.354e-4
-1.059, -8.600e-4
-1.058, -8.785e-4
-1.057, -8.878e-4
-1.056, -8.693e-4
-1.055, -8.539e-4
-1.054, -8.446e-4
-1.053, -8.415e-4
-1.052, -8.631e-4
-1.051, -8.847e-4
-1.050, -9.094e-4
-1.049, -9.248e-4
-1.048, -9.124e-4
-1.047, -9.001e-4
-1.046, -8.816e-4
-1.045, -8.754e-4
-1.044, -8.939e-4
-1.043, -9.155e-4
-1.042, -9.464e-4
-1.041, -9.649e-4
-1.040, -9.618e-4
-1.039, -9.464e-4
-1.038, -9.309e-4
-1.037, -9.217e-4
-1.036, -9.340e-4
-1.035, -9.525e-4
-1.034, -9.834e-4
-1.033, -1.008e-3
-1.032, -1.014e-3
-1.031, -1.008e-3
-1.030, -9.926e-4
-1.029, -9.834e-4
-1.028, -9.834e-4
-1.027, -1.008e-3
-1.026, -1.036e-3
-1.025, -1.067e-3
-1.024, -1.082e-3
-1.023, -1.076e-3
-1.022, -1.070e-3
-1.021, -1.051e-3
-1.020, -1.054e-3
-1.019, -1.070e-3
-1.018, -1.097e-3
-1.017, -1.138e-3
-1.016, -1.153e-3
-1.015, -1.159e-3
-1.014, -1.153e-3
-1.013, -1.134e-3
-1.012, -1.134e-3
-1.011, -1.150e-3
-1.010, -1.178e-3
-1.009, -1.218e-3
-1.008, -1.239e-3
-1.007, -1.255e-3
-1.006, -1.255e-3
-1.005, -1.245e-3
-1.004, -1.245e-3
-1.003, -1.252e-3
-1.002, -1.276e-3
-1.001, -1.313e-3
