July 10, 2024   15:55:40
Cyclic Voltammetry
File: c:/users/guazh/data/20240709_batch67/2024-07-10-exp2\exp2-2024-07-10t15_40_52-arkoh\exp2_cv_sr_400mvs_efin_-1600mv.bin
Data Source:  Experiment
Instrument Model:  CHI760E
Header: CV ran at 400 mVs
Note: 

Init E (V) = -1
High E (V) = -1
Low E (V) = -1.6
Final E (V) = -1
Init P/N = N
Scan Rate (V/s) = 0.4
Segment = 3
Sample Interval (V) = 0.001
Quiet Time (sec) = 2
Sensitivity (A/V) = 0.01
Comp R (ohm) = 1.4

Results:

Channel 1:
Segment 1:

Segment 2:

Segment 3:

Potential/V, Current/A

-1.000, 9.405e-6
-1.001, 1.249e-5
-1.002, 9.405e-6
-1.003, 9.405e-6
-1.004, 9.405e-6
-1.005, 9.405e-6
-1.006, 1.249e-5
-1.007, 1.249e-5
-1.008, 1.249e-5
-1.009, 1.249e-5
-1.010, 9.405e-6
-1.011, 9.405e-6
-1.012, 1.249e-5
-1.013, 1.249e-5
-1.014, 1.557e-5
-1.015, 1.249e-5
-1.016, 1.249e-5
-1.017, 9.405e-6
-1.018, 1.249e-5
-1.019, 1.249e-5
-1.020, 1.557e-5
-1.021, 1.557e-5
-1.022, 1.557e-5
-1.023, 1.249e-5
-1.024, 1.249e-5
-1.025, 1.249e-5
-1.026, 1.249e-5
-1.027, 1.557e-5
-1.028, 1.557e-5
-1.029, 1.249e-5
-1.030, 1.249e-5
-1.031, 1.249e-5
-1.032, 1.249e-5
-1.033, 1.557e-5
-1.034, 1.557e-5
-1.035, 1.557e-5
-1.036, 1.249e-5
-1.037, 1.249e-5
-1.038, 1.249e-5
-1.039, 1.557e-5
-1.040, 1.249e-5
-1.041, 1.557e-5
-1.042, 1.249e-5
-1.043, 1.249e-5
-1.044, 1.249e-5
-1.045, 1.249e-5
-1.046, 1.249e-5
-1.047, 1.557e-5
-1.048, 1.249e-5
-1.049, 1.249e-5
-1.050, 1.249e-5
-1.051, 1.249e-5
-1.052, 1.249e-5
-1.053, 1.249e-5
-1.054, 1.249e-5
-1.055, 1.557e-5
-1.056, 1.249e-5
-1.057, 1.249e-5
-1.058, 1.249e-5
-1.059, 1.249e-5
-1.060, 1.557e-5
-1.061, 1.557e-5
-1.062, 1.557e-5
-1.063, 1.249e-5
-1.064, 1.249e-5
-1.065, 1.249e-5
-1.066, 1.557e-5
-1.067, 1.557e-5
-1.068, 1.557e-5
-1.069, 1.249e-5
-1.070, 1.249e-5
-1.071, 1.249e-5
-1.072, 1.249e-5
-1.073, 1.557e-5
-1.074, 1.557e-5
-1.075, 1.557e-5
-1.076, 1.249e-5
-1.077, 1.249e-5
-1.078, 1.249e-5
-1.079, 1.249e-5
-1.080, 1.557e-5
-1.081, 1.557e-5
-1.082, 1.557e-5
-1.083, 1.249e-5
-1.084, 1.249e-5
-1.085, 1.249e-5
-1.086, 1.249e-5
-1.087, 1.557e-5
-1.088, 1.249e-5
-1.089, 1.557e-5
-1.090, 1.249e-5
-1.091, 1.249e-5
-1.092, 1.249e-5
-1.093, 1.557e-5
-1.094, 1.557e-5
-1.095, 1.557e-5
-1.096, 1.249e-5
-1.097, 1.557e-5
-1.098, 1.249e-5
-1.099, 1.557e-5
-1.100, 1.557e-5
-1.101, 1.557e-5
-1.102, 1.557e-5
-1.103, 1.249e-5
-1.104, 1.249e-5
-1.105, 1.249e-5
-1.106, 1.249e-5
-1.107, 1.557e-5
-1.108, 1.557e-5
-1.109, 1.557e-5
-1.110, 1.249e-5
-1.111, 1.249e-5
-1.112, 1.557e-5
-1.113, 1.557e-5
-1.114, 1.557e-5
-1.115, 1.557e-5
-1.116, 1.557e-5
-1.117, 1.249e-5
-1.118, 1.557e-5
-1.119, 1.249e-5
-1.120, 1.557e-5
-1.121, 1.557e-5
-1.122, 1.557e-5
-1.123, 1.249e-5
-1.124, 1.249e-5
-1.125, 1.249e-5
-1.126, 1.557e-5
-1.127, 1.557e-5
-1.128, 1.557e-5
-1.129, 1.557e-5
-1.130, 1.557e-5
-1.131, 1.249e-5
-1.132, 1.557e-5
-1.133, 1.557e-5
-1.134, 1.557e-5
-1.135, 1.557e-5
-1.136, 1.249e-5
-1.137, 1.249e-5
-1.138, 1.249e-5
-1.139, 1.557e-5
-1.140, 1.557e-5
-1.141, 1.865e-5
-1.142, 1.557e-5
-1.143, 1.557e-5
-1.144, 1.249e-5
-1.145, 1.557e-5
-1.146, 1.557e-5
-1.147, 1.865e-5
-1.148, 1.557e-5
-1.149, 1.557e-5
-1.150, 1.557e-5
-1.151, 1.557e-5
-1.152, 1.557e-5
-1.153, 1.557e-5
-1.154, 1.865e-5
-1.155, 1.557e-5
-1.156, 1.557e-5
-1.157, 1.249e-5
-1.158, 1.557e-5
-1.159, 1.557e-5
-1.160, 1.557e-5
-1.161, 1.557e-5
-1.162, 1.557e-5
-1.163, 1.249e-5
-1.164, 1.557e-5
-1.165, 1.249e-5
-1.166, 1.557e-5
-1.167, 1.557e-5
-1.168, 1.557e-5
-1.169, 1.557e-5
-1.170, 1.557e-5
-1.171, 1.249e-5
-1.172, 1.557e-5
-1.173, 1.557e-5
-1.174, 1.865e-5
-1.175, 1.557e-5
-1.176, 1.557e-5
-1.177, 1.557e-5
-1.178, 1.557e-5
-1.179, 1.557e-5
-1.180, 1.557e-5
-1.181, 1.865e-5
-1.182, 1.557e-5
-1.183, 1.557e-5
-1.184, 1.249e-5
-1.185, 1.557e-5
-1.186, 1.557e-5
-1.187, 1.865e-5
-1.188, 1.557e-5
-1.189, 1.865e-5
-1.190, 1.557e-5
-1.191, 1.557e-5
-1.192, 1.557e-5
-1.193, 1.865e-5
-1.194, 1.865e-5
-1.195, 1.865e-5
-1.196, 1.557e-5
-1.197, 1.557e-5
-1.198, 1.557e-5
-1.199, 1.557e-5
-1.200, 1.865e-5
-1.201, 1.865e-5
-1.202, 1.865e-5
-1.203, 1.557e-5
-1.204, 1.557e-5
-1.205, 1.557e-5
-1.206, 1.865e-5
-1.207, 1.865e-5
-1.208, 1.865e-5
-1.209, 1.557e-5
-1.210, 1.557e-5
-1.211, 1.557e-5
-1.212, 1.865e-5
-1.213, 1.865e-5
-1.214, 2.174e-5
-1.215, 1.865e-5
-1.216, 1.557e-5
-1.217, 1.557e-5
-1.218, 1.557e-5
-1.219, 1.865e-5
-1.220, 1.865e-5
-1.221, 1.865e-5
-1.222, 1.865e-5
-1.223, 1.865e-5
-1.224, 1.557e-5
-1.225, 1.557e-5
-1.226, 1.865e-5
-1.227, 1.865e-5
-1.228, 1.865e-5
-1.229, 1.865e-5
-1.230, 1.557e-5
-1.231, 1.865e-5
-1.232, 1.865e-5
-1.233, 2.174e-5
-1.234, 2.174e-5
-1.235, 2.174e-5
-1.236, 1.865e-5
-1.237, 1.865e-5
-1.238, 1.865e-5
-1.239, 1.865e-5
-1.240, 1.865e-5
-1.241, 2.174e-5
-1.242, 1.865e-5
-1.243, 1.865e-5
-1.244, 1.865e-5
-1.245, 1.865e-5
-1.246, 1.865e-5
-1.247, 2.174e-5
-1.248, 1.865e-5
-1.249, 2.174e-5
-1.250, 1.865e-5
-1.251, 1.865e-5
-1.252, 2.174e-5
-1.253, 2.174e-5
-1.254, 2.174e-5
-1.255, 2.174e-5
-1.256, 1.865e-5
-1.257, 1.865e-5
-1.258, 2.174e-5
-1.259, 1.865e-5
-1.260, 2.174e-5
-1.261, 2.174e-5
-1.262, 2.174e-5
-1.263, 1.865e-5
-1.264, 1.865e-5
-1.265, 1.865e-5
-1.266, 2.174e-5
-1.267, 2.482e-5
-1.268, 2.174e-5
-1.269, 2.174e-5
-1.270, 2.174e-5
-1.271, 1.865e-5
-1.272, 2.174e-5
-1.273, 2.482e-5
-1.274, 2.482e-5
-1.275, 2.482e-5
-1.276, 2.174e-5
-1.277, 2.174e-5
-1.278, 2.174e-5
-1.279, 2.482e-5
-1.280, 2.482e-5
-1.281, 2.482e-5
-1.282, 2.482e-5
-1.283, 2.482e-5
-1.284, 2.174e-5
-1.285, 2.482e-5
-1.286, 2.482e-5
-1.287, 2.790e-5
-1.288, 2.482e-5
-1.289, 2.482e-5
-1.290, 2.482e-5
-1.291, 2.482e-5
-1.292, 2.790e-5
-1.293, 2.790e-5
-1.294, 2.790e-5
-1.295, 3.099e-5
-1.296, 2.790e-5
-1.297, 2.790e-5
-1.298, 2.790e-5
-1.299, 2.790e-5
-1.300, 3.099e-5
-1.301, 3.099e-5
-1.302, 3.099e-5
-1.303, 2.790e-5
-1.304, 2.790e-5
-1.305, 2.790e-5
-1.306, 3.099e-5
-1.307, 3.099e-5
-1.308, 3.407e-5
-1.309, 3.099e-5
-1.310, 3.099e-5
-1.311, 3.099e-5
-1.312, 3.407e-5
-1.313, 3.407e-5
-1.314, 3.715e-5
-1.315, 3.407e-5
-1.316, 3.407e-5
-1.317, 3.407e-5
-1.318, 3.407e-5
-1.319, 3.715e-5
-1.320, 3.715e-5
-1.321, 4.024e-5
-1.322, 3.715e-5
-1.323, 3.715e-5
-1.324, 3.715e-5
-1.325, 3.715e-5
-1.326, 4.024e-5
-1.327, 4.332e-5
-1.328, 4.332e-5
-1.329, 4.332e-5
-1.330, 4.024e-5
-1.331, 4.332e-5
-1.332, 4.332e-5
-1.333, 4.640e-5
-1.334, 4.640e-5
-1.335, 4.640e-5
-1.336, 4.640e-5
-1.337, 4.640e-5
-1.338, 4.640e-5
-1.339, 4.640e-5
-1.340, 4.949e-5
-1.341, 5.257e-5
-1.342, 5.257e-5
-1.343, 5.257e-5
-1.344, 4.949e-5
-1.345, 5.257e-5
-1.346, 5.565e-5
-1.347, 5.565e-5
-1.348, 5.873e-5
-1.349, 5.873e-5
-1.350, 5.873e-5
-1.351, 5.873e-5
-1.352, 5.873e-5
-1.353, 6.182e-5
-1.354, 6.490e-5
-1.355, 6.490e-5
-1.356, 6.490e-5
-1.357, 6.490e-5
-1.358, 6.798e-5
-1.359, 6.798e-5
-1.360, 7.107e-5
-1.361, 7.107e-5
-1.362, 7.415e-5
-1.363, 7.107e-5
-1.364, 7.415e-5
-1.365, 7.415e-5
-1.366, 7.723e-5
-1.367, 8.032e-5
-1.368, 8.032e-5
-1.369, 8.340e-5
-1.370, 8.340e-5
-1.371, 8.340e-5
-1.372, 8.648e-5
-1.373, 8.957e-5
-1.374, 9.265e-5
-1.375, 9.265e-5
-1.376, 9.265e-5
-1.377, 9.573e-5
-1.378, 9.573e-5
-1.379, 9.882e-5
-1.380, 1.019e-4
-1.381, 1.050e-4
-1.382, 1.050e-4
-1.383, 1.081e-4
-1.384, 1.081e-4
-1.385, 1.111e-4
-1.386, 1.142e-4
-1.387, 1.173e-4
-1.388, 1.204e-4
-1.389, 1.235e-4
-1.390, 1.235e-4
-1.391, 1.266e-4
-1.392, 1.266e-4
-1.393, 1.327e-4
-1.394, 1.358e-4
-1.395, 1.389e-4
-1.396, 1.389e-4
-1.397, 1.420e-4
-1.398, 1.451e-4
-1.399, 1.481e-4
-1.400, 1.512e-4
-1.401, 1.543e-4
-1.402, 1.605e-4
-1.403, 1.605e-4
-1.404, 1.636e-4
-1.405, 1.666e-4
-1.406, 1.728e-4
-1.407, 1.759e-4
-1.408, 1.821e-4
-1.409, 1.851e-4
-1.410, 1.882e-4
-1.411, 1.882e-4
-1.412, 1.944e-4
-1.413, 2.006e-4
-1.414, 2.067e-4
-1.415, 2.098e-4
-1.416, 2.129e-4
-1.417, 2.160e-4
-1.418, 2.221e-4
-1.419, 2.252e-4
-1.420, 2.314e-4
-1.421, 2.376e-4
-1.422, 2.437e-4
-1.423, 2.468e-4
-1.424, 2.499e-4
-1.425, 2.561e-4
-1.426, 2.622e-4
-1.427, 2.684e-4
-1.428, 2.746e-4
-1.429, 2.838e-4
-1.430, 2.869e-4
-1.431, 2.900e-4
-1.432, 2.961e-4
-1.433, 3.054e-4
-1.434, 3.115e-4
-1.435, 3.208e-4
-1.436, 3.239e-4
-1.437, 3.331e-4
-1.438, 3.362e-4
-1.439, 3.455e-4
-1.440, 3.547e-4
-1.441, 3.640e-4
-1.442, 3.701e-4
-1.443, 3.763e-4
-1.444, 3.825e-4
-1.445, 3.886e-4
-1.446, 4.010e-4
-1.447, 4.102e-4
-1.448, 4.195e-4
-1.449, 4.287e-4
-1.450, 4.380e-4
-1.451, 4.441e-4
-1.452, 4.534e-4
-1.453, 4.626e-4
-1.454, 4.750e-4
-1.455, 4.842e-4
-1.456, 4.935e-4
-1.457, 5.027e-4
-1.458, 5.120e-4
-1.459, 5.181e-4
-1.460, 5.335e-4
-1.461, 5.459e-4
-1.462, 5.582e-4
-1.463, 5.674e-4
-1.464, 5.767e-4
-1.465, 5.859e-4
-1.466, 6.014e-4
-1.467, 6.137e-4
-1.468, 6.260e-4
-1.469, 6.414e-4
-1.470, 6.507e-4
-1.471, 6.599e-4
-1.472, 6.723e-4
-1.473, 6.877e-4
-1.474, 7.031e-4
-1.475, 7.185e-4
-1.476, 7.309e-4
-1.477, 7.432e-4
-1.478, 7.555e-4
-1.479, 7.709e-4
-1.480, 7.863e-4
-1.481, 8.048e-4
-1.482, 8.203e-4
-1.483, 8.357e-4
-1.484, 8.480e-4
-1.485, 8.603e-4
-1.486, 8.788e-4
-1.487, 8.973e-4
-1.488, 9.128e-4
-1.489, 9.313e-4
-1.490, 9.467e-4
-1.491, 9.590e-4
-1.492, 9.775e-4
-1.493, 9.929e-4
-1.494, 1.014e-3
-1.495, 1.036e-3
-1.496, 1.055e-3
-1.497, 1.070e-3
-1.498, 1.085e-3
-1.499, 1.101e-3
-1.500, 1.122e-3
-1.501, 1.147e-3
-1.502, 1.169e-3
-1.503, 1.184e-3
-1.504, 1.203e-3
-1.505, 1.218e-3
-1.506, 1.240e-3
-1.507, 1.264e-3
-1.508, 1.289e-3
-1.509, 1.310e-3
-1.510, 1.329e-3
-1.511, 1.344e-3
-1.512, 1.366e-3
-1.513, 1.391e-3
-1.514, 1.415e-3
-1.515, 1.443e-3
-1.516, 1.465e-3
-1.517, 1.486e-3
-1.518, 1.505e-3
-1.519, 1.526e-3
-1.520, 1.554e-3
-1.521, 1.585e-3
-1.522, 1.613e-3
-1.523, 1.634e-3
-1.524, 1.656e-3
-1.525, 1.680e-3
-1.526, 1.705e-3
-1.527, 1.736e-3
-1.528, 1.767e-3
-1.529, 1.798e-3
-1.530, 1.819e-3
-1.531, 1.847e-3
-1.532, 1.869e-3
-1.533, 1.896e-3
-1.534, 1.930e-3
-1.535, 1.964e-3
-1.536, 1.992e-3
-1.537, 2.020e-3
-1.538, 2.044e-3
-1.539, 2.072e-3
-1.540, 2.106e-3
-1.541, 2.140e-3
-1.542, 2.174e-3
-1.543, 2.205e-3
-1.544, 2.232e-3
-1.545, 2.257e-3
-1.546, 2.291e-3
-1.547, 2.325e-3
-1.548, 2.365e-3
-1.549, 2.402e-3
-1.550, 2.433e-3
-1.551, 2.457e-3
-1.552, 2.491e-3
-1.553, 2.525e-3
-1.554, 2.568e-3
-1.555, 2.605e-3
-1.556, 2.642e-3
-1.557, 2.673e-3
-1.558, 2.704e-3
-1.559, 2.738e-3
-1.560, 2.778e-3
-1.561, 2.821e-3
-1.562, 2.864e-3
-1.563, 2.895e-3
-1.564, 2.929e-3
-1.565, 2.963e-3
-1.566, 3.000e-3
-1.567, 3.043e-3
-1.568, 3.089e-3
-1.569, 3.133e-3
-1.570, 3.170e-3
-1.571, 3.204e-3
-1.572, 3.237e-3
-1.573, 3.281e-3
-1.574, 3.327e-3
-1.575, 3.376e-3
-1.576, 3.416e-3
-1.577, 3.447e-3
-1.578, 3.481e-3
-1.579, 3.521e-3
-1.580, 3.570e-3
-1.581, 3.620e-3
-1.582, 3.666e-3
-1.583, 3.712e-3
-1.584, 3.746e-3
-1.585, 3.783e-3
-1.586, 3.826e-3
-1.587, 3.879e-3
-1.588, 3.931e-3
-1.589, 3.980e-3
-1.590, 4.024e-3
-1.591, 4.061e-3
-1.592, 4.104e-3
-1.593, 4.153e-3
-1.594, 4.209e-3
-1.595, 4.261e-3
-1.596, 4.310e-3
-1.597, 4.347e-3
-1.598, 4.387e-3
-1.599, 4.431e-3
-1.600, 4.455e-3
-1.599, 4.421e-3
-1.598, 4.384e-3
-1.597, 4.338e-3
-1.596, 4.289e-3
-1.595, 4.236e-3
-1.594, 4.196e-3
-1.593, 4.159e-3
-1.592, 4.125e-3
-1.591, 4.085e-3
-1.590, 4.036e-3
-1.589, 3.987e-3
-1.588, 3.937e-3
-1.587, 3.897e-3
-1.586, 3.866e-3
-1.585, 3.829e-3
-1.584, 3.786e-3
-1.583, 3.740e-3
-1.582, 3.688e-3
-1.581, 3.641e-3
-1.580, 3.604e-3
-1.579, 3.573e-3
-1.578, 3.533e-3
-1.577, 3.490e-3
-1.576, 3.444e-3
-1.575, 3.398e-3
-1.574, 3.361e-3
-1.573, 3.327e-3
-1.572, 3.293e-3
-1.571, 3.256e-3
-1.570, 3.210e-3
-1.569, 3.163e-3
-1.568, 3.120e-3
-1.567, 3.083e-3
-1.566, 3.052e-3
-1.565, 3.019e-3
-1.564, 2.982e-3
-1.563, 2.938e-3
-1.562, 2.895e-3
-1.561, 2.852e-3
-1.560, 2.821e-3
-1.559, 2.790e-3
-1.558, 2.760e-3
-1.557, 2.723e-3
-1.556, 2.679e-3
-1.555, 2.636e-3
-1.554, 2.602e-3
-1.553, 2.575e-3
-1.552, 2.544e-3
-1.551, 2.513e-3
-1.550, 2.476e-3
-1.549, 2.433e-3
-1.548, 2.396e-3
-1.547, 2.362e-3
-1.546, 2.334e-3
-1.545, 2.306e-3
-1.544, 2.275e-3
-1.543, 2.238e-3
-1.542, 2.198e-3
-1.541, 2.164e-3
-1.540, 2.140e-3
-1.539, 2.112e-3
-1.538, 2.084e-3
-1.537, 2.054e-3
-1.536, 2.020e-3
-1.535, 1.983e-3
-1.534, 1.952e-3
-1.533, 1.927e-3
-1.532, 1.906e-3
-1.531, 1.881e-3
-1.530, 1.844e-3
-1.529, 1.813e-3
-1.528, 1.779e-3
-1.527, 1.754e-3
-1.526, 1.739e-3
-1.525, 1.717e-3
-1.524, 1.687e-3
-1.523, 1.659e-3
-1.522, 1.625e-3
-1.521, 1.597e-3
-1.520, 1.573e-3
-1.519, 1.551e-3
-1.518, 1.529e-3
-1.517, 1.502e-3
-1.516, 1.474e-3
-1.515, 1.446e-3
-1.514, 1.425e-3
-1.513, 1.403e-3
-1.512, 1.381e-3
-1.511, 1.360e-3
-1.510, 1.335e-3
-1.509, 1.307e-3
-1.508, 1.283e-3
-1.507, 1.264e-3
-1.506, 1.246e-3
-1.505, 1.227e-3
-1.504, 1.206e-3
-1.503, 1.181e-3
-1.502, 1.159e-3
-1.501, 1.138e-3
-1.500, 1.122e-3
-1.499, 1.104e-3
-1.498, 1.088e-3
-1.497, 1.067e-3
-1.496, 1.045e-3
-1.495, 1.024e-3
-1.494, 1.005e-3
-1.493, 9.898e-4
-1.492, 9.775e-4
-1.491, 9.590e-4
-1.490, 9.374e-4
-1.489, 9.189e-4
-1.488, 9.004e-4
-1.487, 8.850e-4
-1.486, 8.727e-4
-1.485, 8.603e-4
-1.484, 8.418e-4
-1.483, 8.264e-4
-1.482, 8.048e-4
-1.481, 7.925e-4
-1.480, 7.771e-4
-1.479, 7.679e-4
-1.478, 7.524e-4
-1.477, 7.401e-4
-1.476, 7.216e-4
-1.475, 7.062e-4
-1.474, 6.939e-4
-1.473, 6.815e-4
-1.472, 6.692e-4
-1.471, 6.599e-4
-1.470, 6.445e-4
-1.469, 6.322e-4
-1.468, 6.168e-4
-1.467, 6.075e-4
-1.466, 5.983e-4
-1.465, 5.859e-4
-1.464, 5.736e-4
-1.463, 5.613e-4
-1.462, 5.489e-4
-1.461, 5.366e-4
-1.460, 5.305e-4
-1.459, 5.212e-4
-1.458, 5.120e-4
-1.457, 4.996e-4
-1.456, 4.904e-4
-1.455, 4.780e-4
-1.454, 4.688e-4
-1.453, 4.595e-4
-1.452, 4.534e-4
-1.451, 4.441e-4
-1.450, 4.349e-4
-1.449, 4.225e-4
-1.448, 4.133e-4
-1.447, 4.071e-4
-1.446, 4.010e-4
-1.445, 3.917e-4
-1.444, 3.855e-4
-1.443, 3.763e-4
-1.442, 3.670e-4
-1.441, 3.578e-4
-1.440, 3.516e-4
-1.439, 3.485e-4
-1.438, 3.393e-4
-1.437, 3.331e-4
-1.436, 3.239e-4
-1.435, 3.177e-4
-1.434, 3.085e-4
-1.433, 3.054e-4
-1.432, 2.992e-4
-1.431, 2.931e-4
-1.430, 2.838e-4
-1.429, 2.776e-4
-1.428, 2.715e-4
-1.427, 2.684e-4
-1.426, 2.622e-4
-1.425, 2.591e-4
-1.424, 2.499e-4
-1.423, 2.468e-4
-1.422, 2.376e-4
-1.421, 2.345e-4
-1.420, 2.314e-4
-1.419, 2.283e-4
-1.418, 2.221e-4
-1.417, 2.160e-4
-1.416, 2.098e-4
-1.415, 2.036e-4
-1.414, 2.036e-4
-1.413, 1.975e-4
-1.412, 1.944e-4
-1.411, 1.882e-4
-1.410, 1.821e-4
-1.409, 1.790e-4
-1.408, 1.759e-4
-1.407, 1.697e-4
-1.406, 1.697e-4
-1.405, 1.636e-4
-1.404, 1.605e-4
-1.403, 1.574e-4
-1.402, 1.543e-4
-1.401, 1.481e-4
-1.400, 1.481e-4
-1.399, 1.451e-4
-1.398, 1.420e-4
-1.397, 1.358e-4
-1.396, 1.327e-4
-1.395, 1.296e-4
-1.394, 1.266e-4
-1.393, 1.266e-4
-1.392, 1.235e-4
-1.391, 1.204e-4
-1.390, 1.142e-4
-1.389, 1.111e-4
-1.388, 1.081e-4
-1.387, 1.081e-4
-1.386, 1.081e-4
-1.385, 1.050e-4
-1.384, 9.882e-5
-1.383, 9.882e-5
-1.382, 9.573e-5
-1.381, 9.265e-5
-1.380, 9.265e-5
-1.379, 9.265e-5
-1.378, 8.648e-5
-1.377, 8.648e-5
-1.376, 8.032e-5
-1.375, 8.032e-5
-1.374, 8.032e-5
-1.373, 8.032e-5
-1.372, 7.723e-5
-1.371, 7.415e-5
-1.370, 7.107e-5
-1.369, 6.798e-5
-1.368, 6.490e-5
-1.367, 6.798e-5
-1.366, 6.490e-5
-1.365, 6.490e-5
-1.364, 5.873e-5
-1.363, 5.873e-5
-1.362, 5.873e-5
-1.361, 5.565e-5
-1.360, 5.565e-5
-1.359, 5.565e-5
-1.358, 5.257e-5
-1.357, 4.949e-5
-1.356, 4.949e-5
-1.355, 4.640e-5
-1.354, 4.949e-5
-1.353, 4.640e-5
-1.352, 4.640e-5
-1.351, 4.332e-5
-1.350, 4.024e-5
-1.349, 3.715e-5
-1.348, 3.715e-5
-1.347, 4.024e-5
-1.346, 4.024e-5
-1.345, 3.715e-5
-1.344, 3.407e-5
-1.343, 3.407e-5
-1.342, 3.099e-5
-1.341, 3.099e-5
-1.340, 3.407e-5
-1.339, 3.099e-5
-1.338, 3.099e-5
-1.337, 2.790e-5
-1.336, 2.790e-5
-1.335, 2.790e-5
-1.334, 2.482e-5
-1.333, 2.790e-5
-1.332, 2.482e-5
-1.331, 2.482e-5
-1.330, 2.174e-5
-1.329, 2.174e-5
-1.328, 1.865e-5
-1.327, 2.174e-5
-1.326, 2.174e-5
-1.325, 2.174e-5
-1.324, 1.865e-5
-1.323, 1.865e-5
-1.322, 1.557e-5
-1.321, 1.557e-5
-1.320, 1.865e-5
-1.319, 1.865e-5
-1.318, 1.557e-5
-1.317, 1.557e-5
-1.316, 1.249e-5
-1.315, 1.249e-5
-1.314, 1.249e-5
-1.313, 1.249e-5
-1.312, 1.249e-5
-1.311, 1.249e-5
-1.310, 9.405e-6
-1.309, 9.405e-6
-1.308, 9.405e-6
-1.307, 9.405e-6
-1.306, 1.249e-5
-1.305, 9.405e-6
-1.304, 9.405e-6
-1.303, 6.322e-6
-1.302, 6.322e-6
-1.301, 6.322e-6
-1.300, 9.405e-6
-1.299, 6.322e-6
-1.298, 6.322e-6
-1.297, 3.239e-6
-1.296, 3.239e-6
-1.295, 3.239e-6
-1.294, 3.239e-6
-1.293, 6.322e-6
-1.292, 6.322e-6
-1.291, 3.239e-6
-1.290, 3.239e-6
-1.289, 1.559e-7
-1.288, 1.559e-7
-1.287, 3.239e-6
-1.286, 3.239e-6
-1.285, 3.239e-6
-1.284, 1.559e-7
-1.283, 1.559e-7
-1.282, -2.927e-6
-1.281, 1.559e-7
-1.280, 1.559e-7
-1.279, 3.239e-6
-1.278, 1.559e-7
-1.277, 1.559e-7
-1.276, -2.927e-6
-1.275, 1.559e-7
-1.274, 1.559e-7
-1.273, 1.559e-7
-1.272, 1.559e-7
-1.271, -2.927e-6
-1.270, -2.927e-6
-1.269, -2.927e-6
-1.268, -6.010e-6
-1.267, -2.927e-6
-1.266, 1.559e-7
-1.265, -2.927e-6
-1.264, -2.927e-6
-1.263, -2.927e-6
-1.262, -6.010e-6
-1.261, -2.927e-6
-1.260, -2.927e-6
-1.259, -2.927e-6
-1.258, -2.927e-6
-1.257, -6.010e-6
-1.256, -6.010e-6
-1.255, -6.010e-6
-1.254, -2.927e-6
-1.253, -6.010e-6
-1.252, -2.927e-6
-1.251, -6.010e-6
-1.250, -6.010e-6
-1.249, -9.093e-6
-1.248, -6.010e-6
-1.247, -6.010e-6
-1.246, -2.927e-6
-1.245, -6.010e-6
-1.244, -6.010e-6
-1.243, -9.093e-6
-1.242, -6.010e-6
-1.241, -9.093e-6
-1.240, -6.010e-6
-1.239, -6.010e-6
-1.238, -6.010e-6
-1.237, -6.010e-6
-1.236, -9.093e-6
-1.235, -9.093e-6
-1.234, -9.093e-6
-1.233, -6.010e-6
-1.232, -6.010e-6
-1.231, -6.010e-6
-1.230, -9.093e-6
-1.229, -9.093e-6
-1.228, -1.218e-5
-1.227, -9.093e-6
-1.226, -6.010e-6
-1.225, -9.093e-6
-1.224, -9.093e-6
-1.223, -9.093e-6
-1.222, -1.218e-5
-1.221, -9.093e-6
-1.220, -9.093e-6
-1.219, -6.010e-6
-1.218, -9.093e-6
-1.217, -9.093e-6
-1.216, -1.218e-5
-1.215, -9.093e-6
-1.214, -9.093e-6
-1.213, -9.093e-6
-1.212, -9.093e-6
-1.211, -9.093e-6
-1.210, -9.093e-6
-1.209, -1.218e-5
-1.208, -1.218e-5
-1.207, -9.093e-6
-1.206, -6.010e-6
-1.205, -9.093e-6
-1.204, -9.093e-6
-1.203, -1.218e-5
-1.202, -1.218e-5
-1.201, -1.218e-5
-1.200, -9.093e-6
-1.199, -9.093e-6
-1.198, -9.093e-6
-1.197, -9.093e-6
-1.196, -1.218e-5
-1.195, -1.218e-5
-1.194, -9.093e-6
-1.193, -9.093e-6
-1.192, -9.093e-6
-1.191, -9.093e-6
-1.190, -1.218e-5
-1.189, -1.218e-5
-1.188, -1.218e-5
-1.187, -9.093e-6
-1.186, -9.093e-6
-1.185, -9.093e-6
-1.184, -1.218e-5
-1.183, -1.218e-5
-1.182, -1.218e-5
-1.181, -9.093e-6
-1.180, -9.093e-6
-1.179, -9.093e-6
-1.178, -9.093e-6
-1.177, -9.093e-6
-1.176, -1.526e-5
-1.175, -9.093e-6
-1.174, -1.218e-5
-1.173, -9.093e-6
-1.172, -9.093e-6
-1.171, -9.093e-6
-1.170, -1.218e-5
-1.169, -1.218e-5
-1.168, -1.526e-5
-1.167, -9.093e-6
-1.166, -9.093e-6
-1.165, -9.093e-6
-1.164, -1.218e-5
-1.163, -1.218e-5
-1.162, -1.218e-5
-1.161, -1.218e-5
-1.160, -9.093e-6
-1.159, -9.093e-6
-1.158, -9.093e-6
-1.157, -1.218e-5
-1.156, -1.218e-5
-1.155, -1.218e-5
-1.154, -9.093e-6
-1.153, -1.218e-5
-1.152, -9.093e-6
-1.151, -1.218e-5
-1.150, -1.218e-5
-1.149, -1.218e-5
-1.148, -1.218e-5
-1.147, -1.218e-5
-1.146, -9.093e-6
-1.145, -1.218e-5
-1.144, -1.218e-5
-1.143, -1.218e-5
-1.142, -1.218e-5
-1.141, -1.218e-5
-1.140, -9.093e-6
-1.139, -9.093e-6
-1.138, -9.093e-6
-1.137, -1.218e-5
-1.136, -1.218e-5
-1.135, -1.218e-5
-1.134, -1.218e-5
-1.133, -9.093e-6
-1.132, -1.218e-5
-1.131, -9.093e-6
-1.130, -1.218e-5
-1.129, -1.218e-5
-1.128, -1.218e-5
-1.127, -9.093e-6
-1.126, -9.093e-6
-1.125, -1.218e-5
-1.124, -1.218e-5
-1.123, -1.218e-5
-1.122, -1.526e-5
-1.121, -1.218e-5
-1.120, -1.218e-5
-1.119, -9.093e-6
-1.118, -1.218e-5
-1.117, -1.218e-5
-1.116, -1.218e-5
-1.115, -1.218e-5
-1.114, -1.218e-5
-1.113, -1.218e-5
-1.112, -1.218e-5
-1.111, -1.218e-5
-1.110, -1.218e-5
-1.109, -1.218e-5
-1.108, -1.218e-5
-1.107, -1.218e-5
-1.106, -1.218e-5
-1.105, -1.218e-5
-1.104, -1.218e-5
-1.103, -1.218e-5
-1.102, -1.526e-5
-1.101, -1.218e-5
-1.100, -9.093e-6
-1.099, -9.093e-6
-1.098, -9.093e-6
-1.097, -1.218e-5
-1.096, -1.218e-5
-1.095, -1.218e-5
-1.094, -1.218e-5
-1.093, -1.218e-5
-1.092, -9.093e-6
-1.091, -1.218e-5
-1.090, -1.218e-5
-1.089, -1.526e-5
-1.088, -1.218e-5
-1.087, -1.218e-5
-1.086, -1.218e-5
-1.085, -1.218e-5
-1.084, -1.218e-5
-1.083, -1.218e-5
-1.082, -1.218e-5
-1.081, -1.218e-5
-1.080, -1.218e-5
-1.079, -9.093e-6
-1.078, -1.218e-5
-1.077, -1.218e-5
-1.076, -1.218e-5
-1.075, -1.218e-5
-1.074, -1.526e-5
-1.073, -1.218e-5
-1.072, -1.218e-5
-1.071, -1.218e-5
-1.070, -1.526e-5
-1.069, -1.218e-5
-1.068, -1.526e-5
-1.067, -1.218e-5
-1.066, -1.218e-5
-1.065, -1.218e-5
-1.064, -1.218e-5
-1.063, -1.218e-5
-1.062, -1.526e-5
-1.061, -1.218e-5
-1.060, -1.218e-5
-1.059, -9.093e-6
-1.058, -1.218e-5
-1.057, -1.218e-5
-1.056, -1.218e-5
-1.055, -1.218e-5
-1.054, -1.218e-5
-1.053, -1.218e-5
-1.052, -1.218e-5
-1.051, -1.218e-5
-1.050, -1.526e-5
-1.049, -1.526e-5
-1.048, -1.218e-5
-1.047, -1.218e-5
-1.046, -1.218e-5
-1.045, -1.218e-5
-1.044, -1.218e-5
-1.043, -1.526e-5
-1.042, -1.526e-5
-1.041, -1.526e-5
-1.040, -1.218e-5
-1.039, -1.218e-5
-1.038, -1.218e-5
-1.037, -1.526e-5
-1.036, -1.526e-5
-1.035, -1.526e-5
-1.034, -1.526e-5
-1.033, -1.218e-5
-1.032, -1.218e-5
-1.031, -1.218e-5
-1.030, -1.526e-5
-1.029, -1.526e-5
-1.028, -1.526e-5
-1.027, -1.526e-5
-1.026, -1.218e-5
-1.025, -1.218e-5
-1.024, -1.526e-5
-1.023, -1.526e-5
-1.022, -1.834e-5
-1.021, -1.526e-5
-1.020, -1.526e-5
-1.019, -1.218e-5
-1.018, -1.526e-5
-1.017, -1.526e-5
-1.016, -1.526e-5
-1.015, -1.526e-5
-1.014, -1.834e-5
-1.013, -1.526e-5
-1.012, -1.526e-5
-1.011, -1.526e-5
-1.010, -1.834e-5
-1.009, -1.834e-5
-1.008, -1.834e-5
-1.007, -1.834e-5
-1.006, -1.526e-5
-1.005, -1.526e-5
-1.004, -1.526e-5
-1.003, -1.834e-5
-1.002, -1.834e-5
-1.001, -1.834e-5
