Potential V vs RHE, Current mA cm-2
0.013299999999999867,-0.30755823659065895
0.012299999999999978,-1.3107300193249565
0.011299999999999866,-2.052746096104168
0.010299999999999976,-2.618630616050183
0.009299999999999864,-3.0996324580042955
0.008299999999999974,-3.5353635383627267
0.007299999999999862,-3.7970851288377587
0.006299999999999972,-4.102662769608606
0.00529999999999986,-4.364384360083638
0.0042999999999999705,-4.626105950558669
0.0032999999999998586,-4.843971490737885
0.0022999999999999687,-5.017980980621284
0.0012999999999998568,-5.191990470504685
0.00029999999999996696,-5.323558621392133
-0.000700000000000145,-5.497568111275533
-0.0017000000000000348,-5.629136262162981
-0.0027000000000001467,-5.759289701750564
-0.0037000000000000366,-5.890857852638012
-0.0047000000000001485,-5.977155241929781
-0.005700000000000038,-6.108723392817228
-0.00670000000000015,-6.196435493408861
-0.00770000000000004,-6.326588932996443
-0.008700000000000152,-6.458157083883892
-0.009700000000000042,-6.500598422879844
-0.010700000000000154,-6.6760226240631075
-0.011700000000000044,-6.806176063650692
-0.012700000000000156,-6.93774421453814
-0.013700000000000045,-7.024041603829907
-0.014700000000000157,-7.155609754717355
-0.015700000000000047,-7.243321855308987
-0.01670000000000016,-7.4173313451923875
-0.01770000000000005,-7.50504344578402
-0.01870000000000016,-7.591340835075788
-0.01970000000000005,-7.722908985963235
-0.020700000000000163,-7.853062425550818
-0.021700000000000053,-8.027071915434218
-0.022700000000000164,-8.11478401602585
-0.023700000000000054,-8.246352166913299
-0.024700000000000166,-8.376505606500881
-0.025700000000000056,-8.508073757388331
-0.026700000000000168,-8.638227196975913
-0.027700000000000058,-8.725939297567548
-0.02870000000000017,-8.812236686859313
-0.02970000000000006,-8.899948787450944
-0.03070000000000017,-8.987660888042578
-0.03170000000000006,-9.11781432763016
-0.03270000000000017,-9.205526428221793
-0.03370000000000006,-9.335679867809377
-0.034700000000000175,-9.379535918105192
-0.035700000000000065,-9.511104068992642
-0.03670000000000018,-9.59740145828441
-0.03770000000000007,-9.728969609171857
-0.03870000000000018,-9.85912304875944
-0.03970000000000007,-9.99069119964689
-0.04070000000000018,-10.120844639234473
-0.04170000000000007,-10.164700689530287
-0.04270000000000018,-10.296268840417738
-0.04370000000000007,-10.42642228000532
-0.044700000000000184,-10.514134380596953
-0.045700000000000074,-10.601846481188586
-0.046700000000000186,-10.688143870480351
-0.047700000000000076,-10.731999920776168
-0.04870000000000019,-10.775855971071984
-0.04970000000000008,-10.819712021367803
-0.05070000000000019,-10.819712021367803
-0.05170000000000008,-10.863568071663616
-0.05270000000000019,-10.819712021367803
-0.05370000000000008,-10.863568071663616
-0.05470000000000019,-10.819712021367803
-0.05570000000000008,-10.819712021367803
-0.056700000000000195,-10.863568071663616
-0.057700000000000085,-10.819712021367803
-0.058700000000000196,-10.775855971071984
-0.059700000000000086,-10.731999920776168
-0.0607000000000002,-10.688143870480351
-0.06170000000000009,-10.688143870480351
-0.0627000000000002,-10.644287820184536
-0.06370000000000009,-10.601846481188586
-0.0647000000000002,-10.514134380596953
-0.06570000000000009,-10.470278330301136
-0.0667000000000002,-10.42642228000532
-0.0677000000000001,-10.382566229709504
-0.0687000000000002,-10.340124890713554
-0.0697000000000001,-10.296268840417738
-0.07070000000000021,-10.25241279012192
-0.0717000000000001,-10.208556739826104
-0.07270000000000021,-10.208556739826104
-0.0737000000000001,-10.120844639234473
-0.07470000000000021,-10.078403300238522
-0.0757000000000001,-10.078403300238522
-0.07670000000000021,-9.99069119964689
-0.0777000000000001,-9.99069119964689
-0.07870000000000021,-9.902979099055257
-0.0797000000000001,-9.85912304875944
-0.08070000000000022,-9.85912304875944
-0.0817000000000001,-9.85912304875944
-0.08270000000000022,-9.85912304875944
-0.08370000000000011,-9.81668170976349
-0.08470000000000022,-9.772825659467674
-0.08570000000000011,-9.728969609171857
-0.08670000000000022,-9.685113558876042
-0.08770000000000011,-9.641257508580225
-0.08870000000000022,-9.641257508580225
-0.08970000000000011,-9.641257508580225
-0.09070000000000022,-9.59740145828441
-0.09170000000000011,-9.641257508580225
-0.09270000000000023,-9.59740145828441
-0.09370000000000012,-9.59740145828441
-0.09470000000000023,-9.59740145828441
-0.09570000000000012,-9.59740145828441
-0.09670000000000023,-9.55496011928846
-0.09770000000000012,-9.55496011928846
-0.09870000000000023,-9.55496011928846
-0.09970000000000012,-9.59740145828441
-0.10070000000000023,-9.59740145828441
-0.10170000000000012,-9.641257508580225
-0.10270000000000024,-9.641257508580225
-0.10370000000000013,-9.685113558876042
-0.10470000000000024,-9.685113558876042
-0.10570000000000013,-9.685113558876042
-0.10670000000000024,-9.728969609171857
-0.10770000000000013,-9.772825659467674
-0.10870000000000024,-9.772825659467674
-0.10970000000000013,-9.772825659467674
-0.11070000000000024,-9.81668170976349
-0.11170000000000013,-9.81668170976349
-0.11270000000000002,-9.85912304875944
-0.11370000000000013,-9.85912304875944
-0.11470000000000002,-9.85912304875944
-0.11570000000000014,-9.902979099055257
-0.11670000000000003,-9.946835149351072
-0.11770000000000014,-9.99069119964689
-0.11870000000000003,-9.99069119964689
-0.11970000000000014,-10.078403300238522
-0.12070000000000003,-10.078403300238522
-0.12170000000000014,-10.120844639234473
-0.12270000000000003,-10.078403300238522
-0.12370000000000014,-10.120844639234473
-0.12470000000000003,-10.164700689530287
-0.12570000000000014,-10.208556739826104
-0.12670000000000003,-10.296268840417738
-0.12770000000000015,-10.296268840417738
-0.12870000000000004,-10.340124890713554
-0.12970000000000015,-10.382566229709504
-0.13070000000000004,-10.42642228000532
-0.13170000000000015,-10.514134380596953
-0.13270000000000004,-10.557990430892769
-0.13370000000000015,-10.557990430892769
-0.13470000000000004,-10.601846481188586
-0.13570000000000015,-10.644287820184536
-0.13670000000000004,-10.688143870480351
-0.13770000000000016,-10.731999920776168
-0.13870000000000005,-10.819712021367803
-0.13970000000000016,-10.863568071663616
-0.14070000000000005,-10.949865460955383
-0.14170000000000016,-10.993721511251199
-0.14270000000000005,-11.037577561547016
-0.14370000000000016,-11.123874950838783
-0.14470000000000005,-11.1677310011346
-0.14570000000000016,-11.211587051430415
-0.14670000000000005,-11.255443101726232
-0.14770000000000016,-11.299299152022046
-0.14870000000000005,-11.343155202317865
-0.14970000000000017,-11.42945259160963
-0.15070000000000006,-11.517164692201263
-0.15170000000000017,-11.56102074249708
-0.15270000000000006,-11.647318131788847
-0.15370000000000017,-11.691174182084664
-0.15470000000000006,-11.778886282676295
-0.15570000000000017,-11.82274233297211
-0.15670000000000006,-11.909039722263879
-0.15770000000000017,-11.952895772559694
-0.15870000000000006,-11.996751822855511
-0.15970000000000018,-12.084463923447142
-0.16070000000000007,-12.12831997374296
-0.16170000000000018,-12.214617363034726
-0.16270000000000007,-12.302329463626359
-0.16370000000000018,-12.390041564217992
-0.16470000000000007,-12.476338953509758
-0.16570000000000018,-12.520195003805576
-0.16670000000000007,-12.607907104397206
-0.16770000000000018,-12.651763154693022
-0.16870000000000007,-12.73806054398479
-0.16970000000000018,-12.781916594280606
-0.17070000000000007,-12.869628694872238
-0.17170000000000019,-12.955926084164007
-0.17270000000000008,-12.99978213445982
-0.1737000000000002,-13.087494235051453
-0.17470000000000008,-13.175206335643086
-0.1757000000000002,-13.261503724934855
-0.17670000000000008,-13.349215825526485
-0.1777000000000002,-13.436927926118118
-0.17870000000000008,-13.523225315409885
-0.1797000000000002,-13.567081365705702
-0.18070000000000008,-13.654793466297335
-0.1817000000000002,-13.698649516593148
-0.18270000000000008,-13.784946905884919
-0.1837000000000002,-13.872659006476551
-0.1847000000000001,-13.960371107068182
-0.1857000000000002,-14.046668496359947
-0.1867000000000001,-14.13438059695158
-0.1877000000000002,-14.26028990263957
-0.1887000000000001,-14.345172580631472
-0.1897000000000002,-14.401761032626075
-0.1907000000000001,-14.486643710617974
-0.1917000000000001,-14.57152638860988
-0.19269999999999998,-14.61396772760583
-0.1937000000000001,-14.69885040559773
-0.19469999999999998,-14.783733083589633
-0.1957000000000001,-14.868615761581536
-0.19669999999999999,-14.967645552572087
-0.1977000000000001,-15.01008689156804
-0.1987,-15.137410908555893
-0.1997000000000001,-15.179852247551842
-0.2007,-15.264734925543747
-0.2017000000000001,-15.349617603535648
-0.2027,-15.3920589425316
-0.2037000000000001,-15.491088733522153
-0.2047,-15.533530072518102
-0.2057000000000001,-15.618412750510005
-0.2067,-15.660854089505953
-0.2077000000000001,-15.74573676749786
-0.2087,-15.78817810649381
-0.2097000000000001,-15.87306078448571
-0.2107,-15.91550212348166
-0.2117000000000001,-15.972090575476265
-0.2127,-16.014531914472215
-0.2137000000000001,-16.014531914472215
-0.2147,-16.014531914472215
-0.2157000000000001,-15.972090575476265
-0.2167,-15.91550212348166
-0.21770000000000012,-15.91550212348166
-0.2187,-15.87306078448571
-0.21970000000000012,-15.87306078448571
-0.2207,-15.830619445489761
-0.22170000000000012,-15.78817810649381
-0.2227,-15.78817810649381
-0.22370000000000012,-15.74573676749786
-0.2247,-15.70329542850191
-0.22570000000000012,-15.660854089505953
-0.2267,-15.618412750510005
-0.22770000000000012,-15.575971411514052
-0.22870000000000001,-15.533530072518102
-0.22970000000000013,-15.448647394526201
-0.23070000000000002,-15.3920589425316
-0.23170000000000013,-15.3920589425316
-0.23270000000000002,-15.307176264539699
-0.23370000000000013,-15.307176264539699
-0.23470000000000002,-15.222293586547794
-0.23570000000000013,-15.179852247551842
-0.23670000000000002,-15.137410908555893
-0.2376999999999999,-15.05252823056399
-0.23870000000000002,-15.01008689156804
-0.2396999999999999,-14.925204213576137
-0.24070000000000003,-14.826174422585586
-0.24169999999999991,-14.741291744593681
-0.24270000000000003,-14.65640906660178
-0.24369999999999992,-14.65640906660178
-0.24470000000000003,-14.57152638860988
-0.24569999999999992,-14.529085049613924
-0.24670000000000003,-14.444202371622024
-0.24769999999999992,-14.401761032626075
-0.24870000000000003,-14.345172580631472
-0.24969999999999992,-14.26028990263957
-0.25070000000000003,-14.217848563643619
-0.2516999999999999,-14.13438059695158
-0.25270000000000004,-14.090524546655764
-0.2536999999999999,-14.046668496359947
-0.25470000000000004,-14.002812446064135
-0.2556999999999999,-13.960371107068182
-0.25670000000000004,-13.916515056772363
-0.25769999999999993,-13.916515056772363
-0.25870000000000004,-13.828802956180734
-0.25969999999999993,-13.828802956180734
-0.26070000000000004,-13.784946905884919
-0.26169999999999993,-13.741090855589102
-0.26270000000000004,-13.741090855589102
-0.26369999999999993,-13.698649516593148
-0.26470000000000005,-13.698649516593148
-0.26569999999999994,-13.654793466297335
-0.26670000000000005,-13.698649516593148
-0.26769999999999994,-13.654793466297335
-0.26870000000000005,-13.698649516593148
-0.26969999999999994,-13.698649516593148
-0.27070000000000005,-13.741090855589102
-0.27169999999999994,-13.741090855589102
-0.27270000000000005,-13.741090855589102
-0.27369999999999994,-13.741090855589102
-0.27470000000000006,-13.784946905884919
-0.27569999999999995,-13.828802956180734
-0.27670000000000006,-13.828802956180734
-0.27769999999999995,-13.872659006476551
-0.27870000000000006,-13.916515056772363
-0.27969999999999995,-13.960371107068182
-0.28070000000000006,-14.046668496359947
-0.28169999999999995,-14.13438059695158
-0.28270000000000006,-14.175407224647667
-0.28369999999999995,-14.217848563643619
-0.28470000000000006,-14.26028990263957
-0.28569999999999995,-14.401761032626075
-0.28670000000000007,-14.444202371622024
-0.28769999999999996,-14.529085049613924
-0.28870000000000007,-14.61396772760583
-0.28969999999999996,-14.741291744593681
-0.29070000000000007,-14.826174422585586
-0.29169999999999996,-14.967645552572087
-0.29270000000000007,-15.094969569559943
-0.29369999999999996,-15.222293586547794
-0.2947000000000001,-15.349617603535648
-0.29569999999999996,-15.491088733522153
-0.2967000000000001,-15.618412750510005
-0.29769999999999996,-15.74573676749786
-0.2987000000000001,-15.91550212348166
-0.29969999999999997,-16.099414592464115
-0.3007000000000001,-16.22673860945197
-0.30169999999999997,-16.438945304431726
-0.3027000000000001,-16.622857773414182
-0.30369999999999997,-16.835064468393938
-0.3047000000000001,-17.061418276372343
-0.30569999999999997,-17.2736249713521
-0.3067000000000001,-17.542420118326454
-0.3077,-17.71218547431026
-0.3087000000000001,-17.966833508285966
-0.3097,-18.19318731626437
-0.3107000000000001,-18.44783535024008
-0.3117,-18.716630497214435
-0.3127000000000001,-18.97127853119014
-0.3137,-19.28251501716045
-0.3147000000000001,-19.579604390132108
-0.3157,-19.848399537106463
-0.3167000000000001,-20.159636023076775
-0.3177,-20.456725396048434
-0.3187000000000001,-20.76796188201874
-0.3197,-21.065051254990397
-0.3207000000000001,-21.376287740960702
-0.3217,-21.67337711393236
-0.3227000000000001,-22.027054938898623
-0.3237,-22.38073276386488
-0.3247000000000001,-22.72026347583249
-0.3257,-23.1163826397947
-0.3267000000000001,-23.47006046476096
-0.3277,-23.86617962872317
-0.3287000000000001,-24.20571034069078
-0.3297,-24.64427084364894
-0.3307000000000001,-24.997948668615198
-0.3317,-25.43650917157336
-0.3327000000000001,-25.77603988354097
-0.3337,-26.21460038649913
-0.3347000000000001,-26.65316088945729
-0.3357,-27.134162731411404
-0.3367000000000001,-27.615164573365515
-0.3377,-28.05372507632368
-0.3387000000000001,-28.577168257273744
-0.3397,-29.058170099227848
-0.3407000000000001,-29.581613280177915
-0.3417,-30.10505646112798
-0.3427000000000001,-30.614352529079397
-0.3437,-31.137795710029454
-0.3447000000000001,-31.717827342974125
-0.3457,-32.24127052392419
-0.3467000000000001,-32.807155043870196
-0.3477,-33.373039563816214
-0.3487000000000001,-34.02380676175414
-0.3497,-34.632132620696105
-0.3507000000000001,-35.282899818634014
-0.3517,-35.94781412957058
-0.3527000000000001,-36.5985813275085
-0.3537,-37.249348525446415
-0.3547000000000001,-37.94255706238028
-0.3557,-38.6499127123128
-0.35670000000000013,-39.34312124924667
-0.3577,-40.03632978618054
-0.35870000000000013,-40.78612677510901
-0.3597,-41.52177665103883
-0.36070000000000013,-42.31401497896325
-0.3617,-43.134547532884966
-0.3626999999999999,-43.96922719980534
-0.3637,-44.80390686672572
-0.3646999999999999,-45.624439420647434
-0.3657,-46.45911908756781
-0.3666999999999999,-47.36453431948143
-0.3677,-48.1992139864018
-0.3686999999999999,-49.118776331314066
-0.36970000000000003,-50.024191563227696
-0.3706999999999999,-50.943753908139975
-0.37170000000000003,-51.90575759204819
-0.3726999999999999,-52.82531993696047
-0.37370000000000003,-53.82976495986464
-0.3746999999999999,-54.834209982768826
-0.37570000000000003,-55.838655005673
-0.3766999999999999,-56.88554136757313
-0.37770000000000004,-57.8333979384827
-0.3786999999999999,-58.92272563937878
-0.37970000000000004,-59.9696120012789
-0.3806999999999999,-61.01649836317903
-0.38170000000000004,-62.11997317707376
-0.38269999999999993,-63.20930087796983
-0.38370000000000004,-64.29862857886593
-0.38469999999999993,-65.43039761875795
-0.38570000000000004,-66.60460799764593
-0.38669999999999993,-66.81681469262568
-0.38570000000000004,-65.7274869917296
-0.38469999999999993,-64.99183711579978
-0.38370000000000004,-64.34106991786187
-0.38269999999999993,-63.77518539791585
-0.38170000000000004,-63.15271242597524
-0.3806999999999999,-62.58682790602922
-0.37970000000000004,-62.02094338608321
-0.3786999999999999,-61.455058866137186
-0.37770000000000004,-60.93161568518713
-0.3766999999999999,-60.36573116524111
-0.37570000000000003,-59.842287984291055
-0.3746999999999999,-59.23396212534908
-0.37370000000000003,-58.66807760540307
-0.3726999999999999,-58.10219308545706
-0.37170000000000003,-57.493867226515086
-0.3706999999999999,-56.927982706569075
-0.36970000000000003,-56.26306839563251
-0.3686999999999999,-55.65474253669055
-0.3677,-55.088858016744524
-0.3666999999999999,-54.480532157802564
-0.3657,-53.872206298860604
-0.3646999999999999,-53.26388043991864
-0.3637,-52.64140746797801
-0.3626999999999999,-52.033081609036046
-0.3617,-51.29743173310623
-0.36070000000000013,-50.547634744177756
-0.3597,-49.89686754623985
-0.35870000000000013,-49.118776331314066
-0.3577,-48.41142068138156
-0.35670000000000013,-47.71821214444768
-0.3557,-46.982562268517874
-0.3547000000000001,-46.3176479575813
-0.3537,-45.624439420647434
-0.3527000000000001,-44.93123088371356
-0.3517,-44.223875233781044
-0.3507000000000001,-43.57310803584313
-0.3497,-42.87989949890926
-0.3487000000000001,-42.186690961975394
-0.3477,-41.52177665103883
-0.3467000000000001,-40.828568114104954
-0.3457,-40.135359577171094
-0.3447000000000001,-39.42800392723857
-0.3437,-38.777236729300654
-0.3427000000000001,-38.08402819236679
-0.3417,-37.41911388143023
-0.3407000000000001,-36.768346683492304
-0.3397,-36.11757948555439
-0.3387000000000001,-35.46681228761647
-0.3377,-34.8018979766799
-0.3367000000000001,-34.15113077874198
-0.3357,-33.50036358080407
-0.3347000000000001,-32.84959638286615
-0.3337,-32.184682071929586
-0.3327000000000001,-31.57635621298762
-0.3317,-30.968030354045652
-0.3307000000000001,-30.359704495103685
-0.3297,-29.793819975157668
-0.3287000000000001,-29.18549411621571
-0.3277,-28.619609596269694
-0.3267000000000001,-28.011283737327723
-0.3257,-27.38881076538711
-0.3247000000000001,-26.822926245441096
-0.3237,-26.257041725495082
-0.3227000000000001,-25.691157205549064
-0.3217,-25.167714024599
-0.3207000000000001,-24.601829504652986
-0.3197,-24.120827662698876
-0.3187000000000001,-23.55494314275286
-0.3177,-23.073941300798747
-0.3167000000000001,-22.592939458844636
-0.3157,-22.069496277894572
-0.3147000000000001,-21.58849443594046
-0.3137,-21.065051254990397
-0.3127000000000001,-20.584049413036283
-0.3117,-20.10304757108217
-0.3107000000000001,-19.678634181122664
-0.3097,-19.197632339168546
-0.3087000000000001,-18.716630497214435
-0.3077,-18.27806999425627
-0.3067000000000001,-17.839509491298113
-0.30569999999999997,-17.40094898833995
-0.3047000000000001,-17.018976937376394
-0.30369999999999997,-16.622857773414182
-0.3027000000000001,-16.141855931460068
-0.30169999999999997,-15.74573676749786
-0.3007000000000001,-15.307176264539699
-0.29969999999999997,-14.925204213576137
-0.2987000000000001,-14.529085049613924
-0.29769999999999996,-14.13438059695158
-0.2967000000000001,-13.784946905884919
-0.29569999999999996,-13.3930718758223
-0.2947000000000001,-13.043638184755638
-0.29369999999999996,-12.651763154693022
-0.29270000000000007,-12.302329463626359
-0.29169999999999996,-11.952895772559694
-0.29070000000000007,-11.604876792792895
-0.28969999999999996,-11.255443101726232
-0.28870000000000007,-10.863568071663616
-0.28769999999999996,-10.514134380596953
-0.28670000000000007,-10.208556739826104
-0.28569999999999995,-9.85912304875944
-0.28470000000000006,-9.59740145828441
-0.28369999999999995,-9.24938247851761
-0.28270000000000006,-8.943804837746763
-0.28169999999999995,-8.638227196975913
-0.28070000000000006,-8.332649556205066
-0.27969999999999995,-8.070927965730034
-0.27870000000000006,-7.722908985963235
-0.27769999999999995,-7.461187395488204
-0.27670000000000006,-7.155609754717355
-0.27569999999999995,-6.893888164242324
-0.27470000000000006,-6.632166573767292
-0.27369999999999994,-6.37044498329226
-0.27270000000000005,-6.108723392817228
-0.27169999999999994,-5.847001802342197
-0.27070000000000005,-5.585280211867165
-0.26969999999999994,-5.367414671687949
-0.26870000000000005,-5.105693081212917
-0.26769999999999994,-4.887827541033701
