Oct. 19, 2024   18:04:09
Cyclic Voltammetry
File: c:/users/guazh/data/banditlqround2/2024-10-18-exp577\exp577-2024-10-19t17_49_56-h2koh\exp577_cv_sr_300mvs_efin_-1600mv.bin
Data Source:  Experiment
Instrument Model:  CHI760E
Header: CV ran at 300 mVs
Note: 

Init E (V) = -1
High E (V) = -1
Low E (V) = -1.6
Final E (V) = -1
Init P/N = N
Scan Rate (V/s) = 0.3
Segment = 3
Sample Interval (V) = 0.001
Quiet Time (sec) = 2
Sensitivity (A/V) = 0.01
Comp R (ohm) = 0.9

Results:

Channel 1:
Segment 1:

Segment 2:

Segment 3:

Potential/V, Current/A

-1.000, 2.482e-5
-1.001, 5.565e-5
-1.002, 7.107e-5
-1.003, 8.648e-5
-1.004, 9.573e-5
-1.005, 9.265e-5
-1.006, 8.957e-5
-1.007, 9.265e-5
-1.008, 9.882e-5
-1.009, 1.050e-4
-1.010, 1.019e-4
-1.011, 9.573e-5
-1.012, 9.882e-5
-1.013, 1.050e-4
-1.014, 1.111e-4
-1.015, 1.081e-4
-1.016, 1.019e-4
-1.017, 1.050e-4
-1.018, 1.111e-4
-1.019, 1.142e-4
-1.020, 1.081e-4
-1.021, 1.050e-4
-1.022, 1.050e-4
-1.023, 1.111e-4
-1.024, 1.173e-4
-1.025, 1.111e-4
-1.026, 1.081e-4
-1.027, 1.081e-4
-1.028, 1.142e-4
-1.029, 1.173e-4
-1.030, 1.142e-4
-1.031, 1.111e-4
-1.032, 1.111e-4
-1.033, 1.173e-4
-1.034, 1.204e-4
-1.035, 1.142e-4
-1.036, 1.111e-4
-1.037, 1.111e-4
-1.038, 1.173e-4
-1.039, 1.204e-4
-1.040, 1.173e-4
-1.041, 1.111e-4
-1.042, 1.142e-4
-1.043, 1.173e-4
-1.044, 1.235e-4
-1.045, 1.173e-4
-1.046, 1.142e-4
-1.047, 1.142e-4
-1.048, 1.204e-4
-1.049, 1.235e-4
-1.050, 1.204e-4
-1.051, 1.142e-4
-1.052, 1.173e-4
-1.053, 1.204e-4
-1.054, 1.235e-4
-1.055, 1.204e-4
-1.056, 1.173e-4
-1.057, 1.173e-4
-1.058, 1.235e-4
-1.059, 1.266e-4
-1.060, 1.235e-4
-1.061, 1.173e-4
-1.062, 1.173e-4
-1.063, 1.235e-4
-1.064, 1.266e-4
-1.065, 1.235e-4
-1.066, 1.173e-4
-1.067, 1.173e-4
-1.068, 1.266e-4
-1.069, 1.296e-4
-1.070, 1.235e-4
-1.071, 1.204e-4
-1.072, 1.204e-4
-1.073, 1.235e-4
-1.074, 1.296e-4
-1.075, 1.235e-4
-1.076, 1.204e-4
-1.077, 1.204e-4
-1.078, 1.266e-4
-1.079, 1.296e-4
-1.080, 1.235e-4
-1.081, 1.204e-4
-1.082, 1.204e-4
-1.083, 1.266e-4
-1.084, 1.327e-4
-1.085, 1.266e-4
-1.086, 1.204e-4
-1.087, 1.204e-4
-1.088, 1.266e-4
-1.089, 1.296e-4
-1.090, 1.266e-4
-1.091, 1.204e-4
-1.092, 1.235e-4
-1.093, 1.266e-4
-1.094, 1.327e-4
-1.095, 1.296e-4
-1.096, 1.204e-4
-1.097, 1.235e-4
-1.098, 1.296e-4
-1.099, 1.327e-4
-1.100, 1.266e-4
-1.101, 1.235e-4
-1.102, 1.235e-4
-1.103, 1.296e-4
-1.104, 1.327e-4
-1.105, 1.296e-4
-1.106, 1.235e-4
-1.107, 1.266e-4
-1.108, 1.327e-4
-1.109, 1.358e-4
-1.110, 1.296e-4
-1.111, 1.235e-4
-1.112, 1.235e-4
-1.113, 1.296e-4
-1.114, 1.327e-4
-1.115, 1.296e-4
-1.116, 1.266e-4
-1.117, 1.266e-4
-1.118, 1.327e-4
-1.119, 1.327e-4
-1.120, 1.296e-4
-1.121, 1.266e-4
-1.122, 1.266e-4
-1.123, 1.327e-4
-1.124, 1.358e-4
-1.125, 1.296e-4
-1.126, 1.266e-4
-1.127, 1.266e-4
-1.128, 1.327e-4
-1.129, 1.358e-4
-1.130, 1.327e-4
-1.131, 1.266e-4
-1.132, 1.266e-4
-1.133, 1.327e-4
-1.134, 1.358e-4
-1.135, 1.327e-4
-1.136, 1.266e-4
-1.137, 1.266e-4
-1.138, 1.327e-4
-1.139, 1.358e-4
-1.140, 1.327e-4
-1.141, 1.266e-4
-1.142, 1.296e-4
-1.143, 1.327e-4
-1.144, 1.358e-4
-1.145, 1.358e-4
-1.146, 1.296e-4
-1.147, 1.296e-4
-1.148, 1.358e-4
-1.149, 1.389e-4
-1.150, 1.327e-4
-1.151, 1.296e-4
-1.152, 1.296e-4
-1.153, 1.358e-4
-1.154, 1.389e-4
-1.155, 1.327e-4
-1.156, 1.296e-4
-1.157, 1.296e-4
-1.158, 1.358e-4
-1.159, 1.389e-4
-1.160, 1.358e-4
-1.161, 1.296e-4
-1.162, 1.296e-4
-1.163, 1.358e-4
-1.164, 1.389e-4
-1.165, 1.327e-4
-1.166, 1.296e-4
-1.167, 1.296e-4
-1.168, 1.358e-4
-1.169, 1.420e-4
-1.170, 1.358e-4
-1.171, 1.296e-4
-1.172, 1.327e-4
-1.173, 1.358e-4
-1.174, 1.389e-4
-1.175, 1.327e-4
-1.176, 1.296e-4
-1.177, 1.327e-4
-1.178, 1.389e-4
-1.179, 1.420e-4
-1.180, 1.358e-4
-1.181, 1.327e-4
-1.182, 1.327e-4
-1.183, 1.389e-4
-1.184, 1.420e-4
-1.185, 1.389e-4
-1.186, 1.327e-4
-1.187, 1.327e-4
-1.188, 1.389e-4
-1.189, 1.420e-4
-1.190, 1.389e-4
-1.191, 1.327e-4
-1.192, 1.327e-4
-1.193, 1.389e-4
-1.194, 1.420e-4
-1.195, 1.389e-4
-1.196, 1.358e-4
-1.197, 1.358e-4
-1.198, 1.420e-4
-1.199, 1.420e-4
-1.200, 1.389e-4
-1.201, 1.327e-4
-1.202, 1.358e-4
-1.203, 1.389e-4
-1.204, 1.451e-4
-1.205, 1.389e-4
-1.206, 1.358e-4
-1.207, 1.358e-4
-1.208, 1.420e-4
-1.209, 1.451e-4
-1.210, 1.389e-4
-1.211, 1.358e-4
-1.212, 1.358e-4
-1.213, 1.420e-4
-1.214, 1.451e-4
-1.215, 1.420e-4
-1.216, 1.358e-4
-1.217, 1.358e-4
-1.218, 1.420e-4
-1.219, 1.451e-4
-1.220, 1.420e-4
-1.221, 1.358e-4
-1.222, 1.358e-4
-1.223, 1.420e-4
-1.224, 1.451e-4
-1.225, 1.420e-4
-1.226, 1.358e-4
-1.227, 1.389e-4
-1.228, 1.451e-4
-1.229, 1.481e-4
-1.230, 1.451e-4
-1.231, 1.389e-4
-1.232, 1.389e-4
-1.233, 1.451e-4
-1.234, 1.481e-4
-1.235, 1.420e-4
-1.236, 1.389e-4
-1.237, 1.389e-4
-1.238, 1.451e-4
-1.239, 1.481e-4
-1.240, 1.451e-4
-1.241, 1.389e-4
-1.242, 1.420e-4
-1.243, 1.481e-4
-1.244, 1.512e-4
-1.245, 1.451e-4
-1.246, 1.420e-4
-1.247, 1.420e-4
-1.248, 1.481e-4
-1.249, 1.512e-4
-1.250, 1.481e-4
-1.251, 1.420e-4
-1.252, 1.420e-4
-1.253, 1.481e-4
-1.254, 1.512e-4
-1.255, 1.481e-4
-1.256, 1.420e-4
-1.257, 1.451e-4
-1.258, 1.512e-4
-1.259, 1.512e-4
-1.260, 1.481e-4
-1.261, 1.420e-4
-1.262, 1.451e-4
-1.263, 1.512e-4
-1.264, 1.543e-4
-1.265, 1.512e-4
-1.266, 1.451e-4
-1.267, 1.481e-4
-1.268, 1.543e-4
-1.269, 1.543e-4
-1.270, 1.512e-4
-1.271, 1.451e-4
-1.272, 1.481e-4
-1.273, 1.543e-4
-1.274, 1.574e-4
-1.275, 1.512e-4
-1.276, 1.481e-4
-1.277, 1.512e-4
-1.278, 1.574e-4
-1.279, 1.605e-4
-1.280, 1.574e-4
-1.281, 1.512e-4
-1.282, 1.543e-4
-1.283, 1.574e-4
-1.284, 1.605e-4
-1.285, 1.543e-4
-1.286, 1.512e-4
-1.287, 1.543e-4
-1.288, 1.605e-4
-1.289, 1.636e-4
-1.290, 1.605e-4
-1.291, 1.543e-4
-1.292, 1.574e-4
-1.293, 1.636e-4
-1.294, 1.666e-4
-1.295, 1.605e-4
-1.296, 1.574e-4
-1.297, 1.605e-4
-1.298, 1.666e-4
-1.299, 1.697e-4
-1.300, 1.636e-4
-1.301, 1.605e-4
-1.302, 1.636e-4
-1.303, 1.697e-4
-1.304, 1.697e-4
-1.305, 1.697e-4
-1.306, 1.636e-4
-1.307, 1.636e-4
-1.308, 1.697e-4
-1.309, 1.759e-4
-1.310, 1.728e-4
-1.311, 1.666e-4
-1.312, 1.697e-4
-1.313, 1.759e-4
-1.314, 1.821e-4
-1.315, 1.759e-4
-1.316, 1.728e-4
-1.317, 1.759e-4
-1.318, 1.821e-4
-1.319, 1.851e-4
-1.320, 1.790e-4
-1.321, 1.759e-4
-1.322, 1.821e-4
-1.323, 1.851e-4
-1.324, 1.913e-4
-1.325, 1.851e-4
-1.326, 1.851e-4
-1.327, 1.882e-4
-1.328, 1.944e-4
-1.329, 1.975e-4
-1.330, 1.944e-4
-1.331, 1.882e-4
-1.332, 1.944e-4
-1.333, 2.006e-4
-1.334, 2.036e-4
-1.335, 2.006e-4
-1.336, 1.975e-4
-1.337, 2.006e-4
-1.338, 2.098e-4
-1.339, 2.129e-4
-1.340, 2.098e-4
-1.341, 2.098e-4
-1.342, 2.098e-4
-1.343, 2.191e-4
-1.344, 2.191e-4
-1.345, 2.191e-4
-1.346, 2.160e-4
-1.347, 2.191e-4
-1.348, 2.283e-4
-1.349, 2.314e-4
-1.350, 2.314e-4
-1.351, 2.283e-4
-1.352, 2.314e-4
-1.353, 2.406e-4
-1.354, 2.437e-4
-1.355, 2.406e-4
-1.356, 2.406e-4
-1.357, 2.468e-4
-1.358, 2.530e-4
-1.359, 2.591e-4
-1.360, 2.561e-4
-1.361, 2.561e-4
-1.362, 2.591e-4
-1.363, 2.684e-4
-1.364, 2.746e-4
-1.365, 2.715e-4
-1.366, 2.715e-4
-1.367, 2.776e-4
-1.368, 2.869e-4
-1.369, 2.931e-4
-1.370, 2.931e-4
-1.371, 2.900e-4
-1.372, 2.961e-4
-1.373, 3.054e-4
-1.374, 3.146e-4
-1.375, 3.146e-4
-1.376, 3.146e-4
-1.377, 3.208e-4
-1.378, 3.300e-4
-1.379, 3.331e-4
-1.380, 3.362e-4
-1.381, 3.393e-4
-1.382, 3.455e-4
-1.383, 3.547e-4
-1.384, 3.640e-4
-1.385, 3.640e-4
-1.386, 3.670e-4
-1.387, 3.763e-4
-1.388, 3.886e-4
-1.389, 4.010e-4
-1.390, 4.010e-4
-1.391, 4.010e-4
-1.392, 4.071e-4
-1.393, 4.225e-4
-1.394, 4.318e-4
-1.395, 4.349e-4
-1.396, 4.410e-4
-1.397, 4.503e-4
-1.398, 4.657e-4
-1.399, 4.780e-4
-1.400, 4.842e-4
-1.401, 4.904e-4
-1.402, 5.027e-4
-1.403, 5.181e-4
-1.404, 5.305e-4
-1.405, 5.366e-4
-1.406, 5.459e-4
-1.407, 5.644e-4
-1.408, 5.798e-4
-1.409, 5.983e-4
-1.410, 6.075e-4
-1.411, 6.199e-4
-1.412, 6.414e-4
-1.413, 6.630e-4
-1.414, 6.784e-4
-1.415, 6.908e-4
-1.416, 7.031e-4
-1.417, 7.247e-4
-1.418, 7.524e-4
-1.419, 7.740e-4
-1.420, 7.894e-4
-1.421, 8.079e-4
-1.422, 8.357e-4
-1.423, 8.665e-4
-1.424, 8.943e-4
-1.425, 9.189e-4
-1.426, 9.405e-4
-1.427, 9.652e-4
-1.428, 9.991e-4
-1.429, 1.030e-3
-1.430, 1.058e-3
-1.431, 1.079e-3
-1.432, 1.110e-3
-1.433, 1.147e-3
-1.434, 1.184e-3
-1.435, 1.218e-3
-1.436, 1.249e-3
-1.437, 1.286e-3
-1.438, 1.323e-3
-1.439, 1.360e-3
-1.440, 1.384e-3
-1.441, 1.412e-3
-1.442, 1.446e-3
-1.443, 1.489e-3
-1.444, 1.526e-3
-1.445, 1.560e-3
-1.446, 1.591e-3
-1.447, 1.631e-3
-1.448, 1.677e-3
-1.449, 1.721e-3
-1.450, 1.761e-3
-1.451, 1.798e-3
-1.452, 1.828e-3
-1.453, 1.859e-3
-1.454, 1.896e-3
-1.455, 1.933e-3
-1.456, 1.967e-3
-1.457, 2.007e-3
-1.458, 2.054e-3
-1.459, 2.097e-3
-1.460, 2.140e-3
-1.461, 2.177e-3
-1.462, 2.217e-3
-1.463, 2.260e-3
-1.464, 2.294e-3
-1.465, 2.325e-3
-1.466, 2.359e-3
-1.467, 2.396e-3
-1.468, 2.442e-3
-1.469, 2.479e-3
-1.470, 2.516e-3
-1.471, 2.556e-3
-1.472, 2.602e-3
-1.473, 2.658e-3
-1.474, 2.713e-3
-1.475, 2.763e-3
-1.476, 2.793e-3
-1.477, 2.821e-3
-1.478, 2.861e-3
-1.479, 2.908e-3
-1.480, 2.945e-3
-1.481, 2.978e-3
-1.482, 3.019e-3
-1.483, 3.071e-3
-1.484, 3.123e-3
-1.485, 3.173e-3
-1.486, 3.219e-3
-1.487, 3.265e-3
-1.488, 3.311e-3
-1.489, 3.348e-3
-1.490, 3.385e-3
-1.491, 3.429e-3
-1.492, 3.475e-3
-1.493, 3.527e-3
-1.494, 3.580e-3
-1.495, 3.632e-3
-1.496, 3.691e-3
-1.497, 3.755e-3
-1.498, 3.823e-3
-1.499, 3.888e-3
-1.500, 3.925e-3
-1.501, 3.943e-3
-1.502, 3.974e-3
-1.503, 4.024e-3
-1.504, 4.076e-3
-1.505, 4.125e-3
-1.506, 4.169e-3
-1.507, 4.221e-3
-1.508, 4.286e-3
-1.509, 4.360e-3
-1.510, 4.434e-3
-1.511, 4.511e-3
-1.512, 4.575e-3
-1.513, 4.622e-3
-1.514, 4.662e-3
-1.515, 4.708e-3
-1.516, 4.754e-3
-1.517, 4.807e-3
-1.518, 4.853e-3
-1.519, 4.908e-3
-1.520, 4.967e-3
-1.521, 5.007e-3
-1.522, 5.047e-3
-1.523, 5.097e-3
-1.524, 5.158e-3
-1.525, 5.223e-3
-1.526, 5.282e-3
-1.527, 5.340e-3
-1.528, 5.402e-3
-1.529, 5.473e-3
-1.530, 5.537e-3
-1.531, 5.621e-3
-1.532, 5.713e-3
-1.533, 5.796e-3
-1.534, 5.843e-3
-1.535, 5.877e-3
-1.536, 5.917e-3
-1.537, 5.972e-3
-1.538, 6.037e-3
-1.539, 6.099e-3
-1.540, 6.154e-3
-1.541, 6.203e-3
-1.542, 6.271e-3
-1.543, 6.345e-3
-1.544, 6.432e-3
-1.545, 6.509e-3
-1.546, 6.552e-3
-1.547, 6.607e-3
-1.548, 6.681e-3
-1.549, 6.752e-3
-1.550, 6.808e-3
-1.551, 6.854e-3
-1.552, 6.912e-3
-1.553, 6.996e-3
-1.554, 7.091e-3
-1.555, 7.202e-3
-1.556, 7.304e-3
-1.557, 7.397e-3
-1.558, 7.461e-3
-1.559, 7.495e-3
-1.560, 7.520e-3
-1.561, 7.560e-3
-1.562, 7.609e-3
-1.563, 7.668e-3
-1.564, 7.730e-3
-1.565, 7.788e-3
-1.566, 7.865e-3
-1.567, 7.951e-3
-1.568, 8.059e-3
-1.569, 8.173e-3
-1.570, 8.251e-3
-1.571, 8.306e-3
-1.572, 8.358e-3
-1.573, 8.423e-3
-1.574, 8.476e-3
-1.575, 8.516e-3
-1.576, 8.568e-3
-1.577, 8.658e-3
-1.578, 8.772e-3
-1.579, 8.895e-3
-1.580, 9.021e-3
-1.581, 9.114e-3
-1.582, 9.185e-3
-1.583, 9.200e-3
-1.584, 9.212e-3
-1.585, 9.240e-3
-1.586, 9.283e-3
-1.587, 9.345e-3
-1.588, 9.419e-3
-1.589, 9.512e-3
-1.590, 9.623e-3
-1.591, 9.737e-3
-1.592, 9.869e-3
-1.593, 1.003e-2
-1.594, 1.012e-2
-1.595, 1.014e-2
-1.596, 1.017e-2
-1.597, 1.021e-2
-1.598, 1.028e-2
-1.599, 1.034e-2
-1.600, 1.033e-2
-1.599, 1.023e-2
-1.598, 1.017e-2
-1.597, 1.013e-2
-1.596, 1.008e-2
-1.595, 1.002e-2
-1.594, 9.931e-3
-1.593, 9.801e-3
-1.592, 9.675e-3
-1.591, 9.576e-3
-1.590, 9.518e-3
-1.589, 9.441e-3
-1.588, 9.360e-3
-1.587, 9.290e-3
-1.586, 9.231e-3
-1.585, 9.185e-3
-1.584, 9.145e-3
-1.583, 9.111e-3
-1.582, 9.037e-3
-1.581, 8.917e-3
-1.580, 8.806e-3
-1.579, 8.701e-3
-1.578, 8.611e-3
-1.577, 8.519e-3
-1.576, 8.439e-3
-1.575, 8.362e-3
-1.574, 8.297e-3
-1.573, 8.254e-3
-1.572, 8.229e-3
-1.571, 8.198e-3
-1.570, 8.155e-3
-1.569, 8.053e-3
-1.568, 7.930e-3
-1.567, 7.828e-3
-1.566, 7.763e-3
-1.565, 7.677e-3
-1.564, 7.582e-3
-1.563, 7.495e-3
-1.562, 7.440e-3
-1.561, 7.375e-3
-1.560, 7.292e-3
-1.559, 7.218e-3
-1.558, 7.162e-3
-1.557, 7.110e-3
-1.556, 7.042e-3
-1.555, 6.965e-3
-1.554, 6.888e-3
-1.553, 6.826e-3
-1.552, 6.780e-3
-1.551, 6.731e-3
-1.550, 6.684e-3
-1.549, 6.632e-3
-1.548, 6.558e-3
-1.547, 6.472e-3
-1.546, 6.385e-3
-1.545, 6.308e-3
-1.544, 6.240e-3
-1.543, 6.166e-3
-1.542, 6.102e-3
-1.541, 6.037e-3
-1.540, 5.978e-3
-1.539, 5.935e-3
-1.538, 5.898e-3
-1.537, 5.873e-3
-1.536, 5.815e-3
-1.535, 5.719e-3
-1.534, 5.633e-3
-1.533, 5.556e-3
-1.532, 5.494e-3
-1.531, 5.433e-3
-1.530, 5.368e-3
-1.529, 5.312e-3
-1.528, 5.269e-3
-1.527, 5.229e-3
-1.526, 5.186e-3
-1.525, 5.134e-3
-1.524, 5.050e-3
-1.523, 4.970e-3
-1.522, 4.912e-3
-1.521, 4.856e-3
-1.520, 4.801e-3
-1.519, 4.727e-3
-1.518, 4.656e-3
-1.517, 4.606e-3
-1.516, 4.563e-3
-1.515, 4.520e-3
-1.514, 4.480e-3
-1.513, 4.440e-3
-1.512, 4.394e-3
-1.511, 4.326e-3
-1.510, 4.243e-3
-1.509, 4.178e-3
-1.508, 4.116e-3
-1.507, 4.064e-3
-1.506, 4.008e-3
-1.505, 3.956e-3
-1.504, 3.910e-3
-1.503, 3.869e-3
-1.502, 3.845e-3
-1.501, 3.817e-3
-1.500, 3.777e-3
-1.499, 3.709e-3
-1.498, 3.638e-3
-1.497, 3.592e-3
-1.496, 3.549e-3
-1.495, 3.503e-3
-1.494, 3.453e-3
-1.493, 3.407e-3
-1.492, 3.373e-3
-1.491, 3.330e-3
-1.490, 3.284e-3
-1.489, 3.234e-3
-1.488, 3.182e-3
-1.487, 3.130e-3
-1.486, 3.080e-3
-1.485, 3.034e-3
-1.484, 2.988e-3
-1.483, 2.938e-3
-1.482, 2.898e-3
-1.481, 2.861e-3
-1.480, 2.824e-3
-1.479, 2.790e-3
-1.478, 2.766e-3
-1.477, 2.741e-3
-1.476, 2.704e-3
-1.475, 2.642e-3
-1.474, 2.581e-3
-1.473, 2.538e-3
-1.472, 2.507e-3
-1.471, 2.476e-3
-1.470, 2.433e-3
-1.469, 2.390e-3
-1.468, 2.353e-3
-1.467, 2.319e-3
-1.466, 2.282e-3
-1.465, 2.238e-3
-1.464, 2.198e-3
-1.463, 2.164e-3
-1.462, 2.137e-3
-1.461, 2.103e-3
-1.460, 2.063e-3
-1.459, 2.023e-3
-1.458, 1.992e-3
-1.457, 1.964e-3
-1.456, 1.939e-3
-1.455, 1.909e-3
-1.454, 1.872e-3
-1.453, 1.832e-3
-1.452, 1.795e-3
-1.451, 1.767e-3
-1.450, 1.733e-3
-1.449, 1.702e-3
-1.448, 1.671e-3
-1.447, 1.647e-3
-1.446, 1.619e-3
-1.445, 1.591e-3
-1.444, 1.563e-3
-1.443, 1.542e-3
-1.442, 1.514e-3
-1.441, 1.483e-3
-1.440, 1.449e-3
-1.439, 1.415e-3
-1.438, 1.388e-3
-1.437, 1.366e-3
-1.436, 1.341e-3
-1.435, 1.310e-3
-1.434, 1.283e-3
-1.433, 1.264e-3
-1.432, 1.249e-3
-1.431, 1.227e-3
-1.430, 1.203e-3
-1.429, 1.175e-3
-1.428, 1.147e-3
-1.427, 1.125e-3
-1.426, 1.107e-3
-1.425, 1.082e-3
-1.424, 1.058e-3
-1.423, 1.033e-3
-1.422, 1.018e-3
-1.421, 1.002e-3
-1.420, 9.775e-4
-1.419, 9.559e-4
-1.418, 9.374e-4
-1.417, 9.220e-4
-1.416, 9.004e-4
-1.415, 8.727e-4
-1.414, 8.511e-4
-1.413, 8.357e-4
-1.412, 8.233e-4
-1.411, 8.079e-4
-1.410, 7.863e-4
-1.409, 7.679e-4
-1.408, 7.524e-4
-1.407, 7.432e-4
-1.406, 7.278e-4
-1.405, 7.062e-4
-1.404, 6.815e-4
-1.403, 6.692e-4
-1.402, 6.599e-4
-1.401, 6.445e-4
-1.400, 6.260e-4
-1.399, 6.075e-4
-1.398, 5.952e-4
-1.397, 5.890e-4
-1.396, 5.767e-4
-1.395, 5.582e-4
-1.394, 5.428e-4
-1.393, 5.305e-4
-1.392, 5.212e-4
-1.391, 5.089e-4
-1.390, 4.935e-4
-1.389, 4.750e-4
-1.388, 4.657e-4
-1.387, 4.595e-4
-1.386, 4.472e-4
-1.385, 4.349e-4
-1.384, 4.195e-4
-1.383, 4.133e-4
-1.382, 4.071e-4
-1.381, 3.979e-4
-1.380, 3.794e-4
-1.379, 3.670e-4
-1.378, 3.578e-4
-1.377, 3.547e-4
-1.376, 3.455e-4
-1.375, 3.331e-4
-1.374, 3.177e-4
-1.373, 3.115e-4
-1.372, 3.085e-4
-1.371, 3.023e-4
-1.370, 2.900e-4
-1.369, 2.776e-4
-1.368, 2.715e-4
-1.367, 2.684e-4
-1.366, 2.591e-4
-1.365, 2.499e-4
-1.364, 2.376e-4
-1.363, 2.314e-4
-1.362, 2.314e-4
-1.361, 2.252e-4
-1.360, 2.129e-4
-1.359, 2.036e-4
-1.358, 1.975e-4
-1.357, 1.975e-4
-1.356, 1.913e-4
-1.355, 1.790e-4
-1.354, 1.697e-4
-1.353, 1.666e-4
-1.352, 1.666e-4
-1.351, 1.605e-4
-1.350, 1.512e-4
-1.349, 1.420e-4
-1.348, 1.389e-4
-1.347, 1.389e-4
-1.346, 1.358e-4
-1.345, 1.266e-4
-1.344, 1.173e-4
-1.343, 1.142e-4
-1.342, 1.142e-4
-1.341, 1.081e-4
-1.340, 9.882e-5
-1.339, 9.265e-5
-1.338, 9.265e-5
-1.337, 9.265e-5
-1.336, 8.648e-5
-1.335, 8.032e-5
-1.334, 7.415e-5
-1.333, 7.107e-5
-1.332, 7.107e-5
-1.331, 6.798e-5
-1.330, 6.182e-5
-1.329, 5.257e-5
-1.328, 5.257e-5
-1.327, 5.565e-5
-1.326, 5.257e-5
-1.325, 4.332e-5
-1.324, 3.715e-5
-1.323, 3.407e-5
-1.322, 4.024e-5
-1.321, 3.715e-5
-1.320, 2.790e-5
-1.319, 2.174e-5
-1.318, 2.174e-5
-1.317, 2.174e-5
-1.316, 2.174e-5
-1.315, 1.557e-5
-1.314, 9.405e-6
-1.313, 6.322e-6
-1.312, 9.405e-6
-1.311, 9.405e-6
-1.310, 1.559e-7
-1.309, -2.927e-6
-1.308, -6.010e-6
-1.307, 1.559e-7
-1.306, -2.927e-6
-1.305, -9.093e-6
-1.304, -1.526e-5
-1.303, -1.526e-5
-1.302, -1.218e-5
-1.301, -1.218e-5
-1.300, -1.834e-5
-1.299, -2.451e-5
-1.298, -2.451e-5
-1.297, -2.143e-5
-1.296, -2.143e-5
-1.295, -2.759e-5
-1.294, -3.068e-5
-1.293, -3.376e-5
-1.292, -3.068e-5
-1.291, -3.068e-5
-1.290, -3.684e-5
-1.289, -3.992e-5
-1.288, -3.992e-5
-1.287, -3.684e-5
-1.286, -3.684e-5
-1.285, -4.301e-5
-1.284, -4.917e-5
-1.283, -4.609e-5
-1.282, -4.301e-5
-1.281, -4.609e-5
-1.280, -4.917e-5
-1.279, -5.534e-5
-1.278, -5.226e-5
-1.277, -4.917e-5
-1.276, -4.917e-5
-1.275, -5.534e-5
-1.274, -6.151e-5
-1.273, -5.842e-5
-1.272, -5.534e-5
-1.271, -5.534e-5
-1.270, -6.151e-5
-1.269, -6.459e-5
-1.268, -6.459e-5
-1.267, -5.842e-5
-1.266, -6.151e-5
-1.265, -6.459e-5
-1.264, -7.076e-5
-1.263, -7.076e-5
-1.262, -6.459e-5
-1.261, -6.459e-5
-1.260, -7.076e-5
-1.259, -7.384e-5
-1.258, -7.384e-5
-1.257, -6.767e-5
-1.256, -6.767e-5
-1.255, -7.384e-5
-1.254, -8.000e-5
-1.253, -7.692e-5
-1.252, -7.384e-5
-1.251, -7.384e-5
-1.250, -7.692e-5
-1.249, -8.309e-5
-1.248, -8.000e-5
-1.247, -7.692e-5
-1.246, -7.384e-5
-1.245, -8.000e-5
-1.244, -8.617e-5
-1.243, -8.309e-5
-1.242, -7.692e-5
-1.241, -8.000e-5
-1.240, -8.309e-5
-1.239, -8.925e-5
-1.238, -8.617e-5
-1.237, -8.000e-5
-1.236, -8.309e-5
-1.235, -8.617e-5
-1.234, -9.234e-5
-1.233, -9.234e-5
-1.232, -8.309e-5
-1.231, -8.617e-5
-1.230, -8.925e-5
-1.229, -9.542e-5
-1.228, -9.542e-5
-1.227, -8.617e-5
-1.226, -8.925e-5
-1.225, -9.234e-5
-1.224, -9.850e-5
-1.223, -9.542e-5
-1.222, -8.925e-5
-1.221, -8.925e-5
-1.220, -9.542e-5
-1.219, -1.016e-4
-1.218, -9.850e-5
-1.217, -9.234e-5
-1.216, -9.234e-5
-1.215, -9.850e-5
-1.214, -1.016e-4
-1.213, -1.016e-4
-1.212, -9.542e-5
-1.211, -9.542e-5
-1.210, -1.016e-4
-1.209, -1.047e-4
-1.208, -1.047e-4
-1.207, -9.850e-5
-1.206, -9.850e-5
-1.205, -1.016e-4
-1.204, -1.078e-4
-1.203, -1.047e-4
-1.202, -9.850e-5
-1.201, -1.016e-4
-1.200, -1.047e-4
-1.199, -1.108e-4
-1.198, -1.078e-4
-1.197, -1.016e-4
-1.196, -1.016e-4
-1.195, -1.078e-4
-1.194, -1.108e-4
-1.193, -1.108e-4
-1.192, -1.047e-4
-1.191, -1.047e-4
-1.190, -1.108e-4
-1.189, -1.139e-4
-1.188, -1.139e-4
-1.187, -1.078e-4
-1.186, -1.047e-4
-1.185, -1.139e-4
-1.184, -1.170e-4
-1.183, -1.139e-4
-1.182, -1.078e-4
-1.181, -1.078e-4
-1.180, -1.139e-4
-1.179, -1.201e-4
-1.178, -1.170e-4
-1.177, -1.108e-4
-1.176, -1.108e-4
-1.175, -1.170e-4
-1.174, -1.201e-4
-1.173, -1.170e-4
-1.172, -1.139e-4
-1.171, -1.139e-4
-1.170, -1.170e-4
-1.169, -1.232e-4
-1.168, -1.201e-4
-1.167, -1.170e-4
-1.166, -1.170e-4
-1.165, -1.201e-4
-1.164, -1.263e-4
-1.163, -1.232e-4
-1.162, -1.170e-4
-1.161, -1.170e-4
-1.160, -1.201e-4
-1.159, -1.263e-4
-1.158, -1.263e-4
-1.157, -1.201e-4
-1.156, -1.201e-4
-1.155, -1.232e-4
-1.154, -1.293e-4
-1.153, -1.293e-4
-1.152, -1.232e-4
-1.151, -1.232e-4
-1.150, -1.263e-4
-1.149, -1.324e-4
-1.148, -1.293e-4
-1.147, -1.232e-4
-1.146, -1.232e-4
-1.145, -1.293e-4
-1.144, -1.324e-4
-1.143, -1.293e-4
-1.142, -1.263e-4
-1.141, -1.263e-4
-1.140, -1.324e-4
-1.139, -1.355e-4
-1.138, -1.324e-4
-1.137, -1.263e-4
-1.136, -1.263e-4
-1.135, -1.324e-4
-1.134, -1.386e-4
-1.133, -1.355e-4
-1.132, -1.293e-4
-1.131, -1.293e-4
-1.130, -1.355e-4
-1.129, -1.417e-4
-1.128, -1.386e-4
-1.127, -1.324e-4
-1.126, -1.324e-4
-1.125, -1.386e-4
-1.124, -1.417e-4
-1.123, -1.386e-4
-1.122, -1.324e-4
-1.121, -1.324e-4
-1.120, -1.386e-4
-1.119, -1.448e-4
-1.118, -1.417e-4
-1.117, -1.355e-4
-1.116, -1.355e-4
-1.115, -1.417e-4
-1.114, -1.448e-4
-1.113, -1.448e-4
-1.112, -1.355e-4
-1.111, -1.355e-4
-1.110, -1.417e-4
-1.109, -1.448e-4
-1.108, -1.448e-4
-1.107, -1.386e-4
-1.106, -1.386e-4
-1.105, -1.448e-4
-1.104, -1.478e-4
-1.103, -1.478e-4
-1.102, -1.417e-4
-1.101, -1.417e-4
-1.100, -1.478e-4
-1.099, -1.478e-4
-1.098, -1.478e-4
-1.097, -1.417e-4
-1.096, -1.417e-4
-1.095, -1.478e-4
-1.094, -1.509e-4
-1.093, -1.509e-4
-1.092, -1.448e-4
-1.091, -1.448e-4
-1.090, -1.509e-4
-1.089, -1.571e-4
-1.088, -1.540e-4
-1.087, -1.478e-4
-1.086, -1.448e-4
-1.085, -1.509e-4
-1.084, -1.571e-4
-1.083, -1.540e-4
-1.082, -1.478e-4
-1.081, -1.478e-4
-1.080, -1.540e-4
-1.079, -1.602e-4
-1.078, -1.571e-4
-1.077, -1.509e-4
-1.076, -1.509e-4
-1.075, -1.540e-4
-1.074, -1.602e-4
-1.073, -1.571e-4
-1.072, -1.509e-4
-1.071, -1.509e-4
-1.070, -1.571e-4
-1.069, -1.602e-4
-1.068, -1.602e-4
-1.067, -1.540e-4
-1.066, -1.540e-4
-1.065, -1.602e-4
-1.064, -1.663e-4
-1.063, -1.602e-4
-1.062, -1.540e-4
-1.061, -1.540e-4
-1.060, -1.602e-4
-1.059, -1.632e-4
-1.058, -1.632e-4
-1.057, -1.571e-4
-1.056, -1.571e-4
-1.055, -1.602e-4
-1.054, -1.663e-4
-1.053, -1.632e-4
-1.052, -1.602e-4
-1.051, -1.571e-4
-1.050, -1.632e-4
-1.049, -1.694e-4
-1.048, -1.632e-4
-1.047, -1.602e-4
-1.046, -1.602e-4
-1.045, -1.663e-4
-1.044, -1.694e-4
-1.043, -1.663e-4
-1.042, -1.632e-4
-1.041, -1.632e-4
-1.040, -1.694e-4
-1.039, -1.725e-4
-1.038, -1.725e-4
-1.037, -1.632e-4
-1.036, -1.632e-4
-1.035, -1.694e-4
-1.034, -1.725e-4
-1.033, -1.725e-4
-1.032, -1.663e-4
-1.031, -1.663e-4
-1.030, -1.725e-4
-1.029, -1.756e-4
-1.028, -1.756e-4
-1.027, -1.694e-4
-1.026, -1.694e-4
-1.025, -1.725e-4
-1.024, -1.787e-4
-1.023, -1.756e-4
-1.022, -1.694e-4
-1.021, -1.694e-4
-1.020, -1.756e-4
-1.019, -1.787e-4
-1.018, -1.756e-4
-1.017, -1.725e-4
-1.016, -1.725e-4
-1.015, -1.787e-4
-1.014, -1.848e-4
-1.013, -1.817e-4
-1.012, -1.756e-4
-1.011, -1.756e-4
-1.010, -1.787e-4
-1.009, -1.848e-4
-1.008, -1.817e-4
-1.007, -1.787e-4
-1.006, -1.756e-4
-1.005, -1.817e-4
-1.004, -1.879e-4
-1.003, -1.879e-4
-1.002, -1.817e-4
-1.001, -1.817e-4
