Mar. 4, 2025   17:45:16
Linear Sweep Voltammetry
File: c:/users/guazh/data/banditlqround7_x0exp169_r20_3/2025-03-03-exp869\1acid_2ac-2025-03-04t17_42_03-lsvinphos\1acid_2ac_lsv_50mvs_efin_-2300mv.bin
Data Source:  Experiment
Instrument Model:  CHI760E
Header: LSV ran at 50 mVs with Efin at -2300mV
Note: 

Init E (V) = -0.6
Final E (V) = -2.3
Scan Rate (V/s) = 0.05
Sample Interval (V) = 0.001
Quiet Time (sec) = 2
Sensitivity (A/V) = 1e-4
Comp R (ohm) = 9.2

Results:

Channel 1:
Ep = -1.818V
ip = 4.881e-4A
Ah = 7.074e-4C

Potential/V, Current/A

-0.600, 9.742e-6
-0.601, 9.954e-6
-0.602, 1.004e-5
-0.603, 1.007e-5
-0.604, 1.009e-5
-0.605, 1.014e-5
-0.606, 1.019e-5
-0.607, 1.022e-5
-0.608, 1.021e-5
-0.609, 1.025e-5
-0.610, 1.029e-5
-0.611, 1.032e-5
-0.612, 1.037e-5
-0.613, 1.038e-5
-0.614, 1.041e-5
-0.615, 1.044e-5
-0.616, 1.046e-5
-0.617, 1.048e-5
-0.618, 1.050e-5
-0.619, 1.052e-5
-0.620, 1.054e-5
-0.621, 1.056e-5
-0.622, 1.060e-5
-0.623, 1.063e-5
-0.624, 1.062e-5
-0.625, 1.063e-5
-0.626, 1.065e-5
-0.627, 1.068e-5
-0.628, 1.071e-5
-0.629, 1.073e-5
-0.630, 1.076e-5
-0.631, 1.077e-5
-0.632, 1.080e-5
-0.633, 1.082e-5
-0.634, 1.082e-5
-0.635, 1.084e-5
-0.636, 1.087e-5
-0.637, 1.089e-5
-0.638, 1.091e-5
-0.639, 1.092e-5
-0.640, 1.094e-5
-0.641, 1.094e-5
-0.642, 1.096e-5
-0.643, 1.098e-5
-0.644, 1.100e-5
-0.645, 1.103e-5
-0.646, 1.104e-5
-0.647, 1.104e-5
-0.648, 1.107e-5
-0.649, 1.108e-5
-0.650, 1.109e-5
-0.651, 1.110e-5
-0.652, 1.112e-5
-0.653, 1.113e-5
-0.654, 1.114e-5
-0.655, 1.115e-5
-0.656, 1.116e-5
-0.657, 1.118e-5
-0.658, 1.119e-5
-0.659, 1.120e-5
-0.660, 1.121e-5
-0.661, 1.122e-5
-0.662, 1.124e-5
-0.663, 1.125e-5
-0.664, 1.126e-5
-0.665, 1.127e-5
-0.666, 1.128e-5
-0.667, 1.128e-5
-0.668, 1.130e-5
-0.669, 1.131e-5
-0.670, 1.131e-5
-0.671, 1.132e-5
-0.672, 1.133e-5
-0.673, 1.134e-5
-0.674, 1.135e-5
-0.675, 1.136e-5
-0.676, 1.137e-5
-0.677, 1.138e-5
-0.678, 1.139e-5
-0.679, 1.139e-5
-0.680, 1.140e-5
-0.681, 1.140e-5
-0.682, 1.141e-5
-0.683, 1.142e-5
-0.684, 1.142e-5
-0.685, 1.143e-5
-0.686, 1.144e-5
-0.687, 1.144e-5
-0.688, 1.145e-5
-0.689, 1.145e-5
-0.690, 1.145e-5
-0.691, 1.145e-5
-0.692, 1.146e-5
-0.693, 1.146e-5
-0.694, 1.146e-5
-0.695, 1.147e-5
-0.696, 1.147e-5
-0.697, 1.148e-5
-0.698, 1.148e-5
-0.699, 1.148e-5
-0.700, 1.148e-5
-0.701, 1.148e-5
-0.702, 1.149e-5
-0.703, 1.150e-5
-0.704, 1.150e-5
-0.705, 1.149e-5
-0.706, 1.150e-5
-0.707, 1.150e-5
-0.708, 1.150e-5
-0.709, 1.150e-5
-0.710, 1.150e-5
-0.711, 1.150e-5
-0.712, 1.150e-5
-0.713, 1.150e-5
-0.714, 1.150e-5
-0.715, 1.150e-5
-0.716, 1.150e-5
-0.717, 1.150e-5
-0.718, 1.150e-5
-0.719, 1.150e-5
-0.720, 1.149e-5
-0.721, 1.150e-5
-0.722, 1.150e-5
-0.723, 1.150e-5
-0.724, 1.150e-5
-0.725, 1.149e-5
-0.726, 1.149e-5
-0.727, 1.149e-5
-0.728, 1.149e-5
-0.729, 1.148e-5
-0.730, 1.148e-5
-0.731, 1.148e-5
-0.732, 1.148e-5
-0.733, 1.148e-5
-0.734, 1.147e-5
-0.735, 1.147e-5
-0.736, 1.147e-5
-0.737, 1.147e-5
-0.738, 1.147e-5
-0.739, 1.147e-5
-0.740, 1.146e-5
-0.741, 1.147e-5
-0.742, 1.147e-5
-0.743, 1.147e-5
-0.744, 1.146e-5
-0.745, 1.146e-5
-0.746, 1.145e-5
-0.747, 1.145e-5
-0.748, 1.145e-5
-0.749, 1.145e-5
-0.750, 1.144e-5
-0.751, 1.143e-5
-0.752, 1.144e-5
-0.753, 1.143e-5
-0.754, 1.142e-5
-0.755, 1.143e-5
-0.756, 1.142e-5
-0.757, 1.141e-5
-0.758, 1.140e-5
-0.759, 1.141e-5
-0.760, 1.140e-5
-0.761, 1.140e-5
-0.762, 1.140e-5
-0.763, 1.139e-5
-0.764, 1.139e-5
-0.765, 1.139e-5
-0.766, 1.139e-5
-0.767, 1.139e-5
-0.768, 1.139e-5
-0.769, 1.138e-5
-0.770, 1.137e-5
-0.771, 1.138e-5
-0.772, 1.137e-5
-0.773, 1.136e-5
-0.774, 1.136e-5
-0.775, 1.135e-5
-0.776, 1.135e-5
-0.777, 1.135e-5
-0.778, 1.134e-5
-0.779, 1.135e-5
-0.780, 1.134e-5
-0.781, 1.134e-5
-0.782, 1.134e-5
-0.783, 1.133e-5
-0.784, 1.133e-5
-0.785, 1.132e-5
-0.786, 1.132e-5
-0.787, 1.132e-5
-0.788, 1.132e-5
-0.789, 1.131e-5
-0.790, 1.131e-5
-0.791, 1.131e-5
-0.792, 1.132e-5
-0.793, 1.132e-5
-0.794, 1.131e-5
-0.795, 1.130e-5
-0.796, 1.130e-5
-0.797, 1.131e-5
-0.798, 1.131e-5
-0.799, 1.130e-5
-0.800, 1.129e-5
-0.801, 1.129e-5
-0.802, 1.129e-5
-0.803, 1.129e-5
-0.804, 1.128e-5
-0.805, 1.127e-5
-0.806, 1.128e-5
-0.807, 1.128e-5
-0.808, 1.128e-5
-0.809, 1.127e-5
-0.810, 1.126e-5
-0.811, 1.126e-5
-0.812, 1.127e-5
-0.813, 1.126e-5
-0.814, 1.126e-5
-0.815, 1.125e-5
-0.816, 1.126e-5
-0.817, 1.126e-5
-0.818, 1.125e-5
-0.819, 1.126e-5
-0.820, 1.127e-5
-0.821, 1.125e-5
-0.822, 1.126e-5
-0.823, 1.126e-5
-0.824, 1.125e-5
-0.825, 1.125e-5
-0.826, 1.125e-5
-0.827, 1.125e-5
-0.828, 1.125e-5
-0.829, 1.124e-5
-0.830, 1.124e-5
-0.831, 1.124e-5
-0.832, 1.124e-5
-0.833, 1.124e-5
-0.834, 1.124e-5
-0.835, 1.124e-5
-0.836, 1.124e-5
-0.837, 1.125e-5
-0.838, 1.125e-5
-0.839, 1.124e-5
-0.840, 1.124e-5
-0.841, 1.124e-5
-0.842, 1.124e-5
-0.843, 1.124e-5
-0.844, 1.124e-5
-0.845, 1.124e-5
-0.846, 1.124e-5
-0.847, 1.124e-5
-0.848, 1.125e-5
-0.849, 1.125e-5
-0.850, 1.124e-5
-0.851, 1.124e-5
-0.852, 1.124e-5
-0.853, 1.124e-5
-0.854, 1.123e-5
-0.855, 1.123e-5
-0.856, 1.123e-5
-0.857, 1.124e-5
-0.858, 1.124e-5
-0.859, 1.124e-5
-0.860, 1.124e-5
-0.861, 1.124e-5
-0.862, 1.124e-5
-0.863, 1.124e-5
-0.864, 1.124e-5
-0.865, 1.125e-5
-0.866, 1.125e-5
-0.867, 1.126e-5
-0.868, 1.126e-5
-0.869, 1.126e-5
-0.870, 1.126e-5
-0.871, 1.127e-5
-0.872, 1.127e-5
-0.873, 1.127e-5
-0.874, 1.127e-5
-0.875, 1.127e-5
-0.876, 1.127e-5
-0.877, 1.128e-5
-0.878, 1.128e-5
-0.879, 1.128e-5
-0.880, 1.128e-5
-0.881, 1.129e-5
-0.882, 1.129e-5
-0.883, 1.130e-5
-0.884, 1.130e-5
-0.885, 1.130e-5
-0.886, 1.130e-5
-0.887, 1.131e-5
-0.888, 1.131e-5
-0.889, 1.131e-5
-0.890, 1.131e-5
-0.891, 1.132e-5
-0.892, 1.132e-5
-0.893, 1.133e-5
-0.894, 1.133e-5
-0.895, 1.133e-5
-0.896, 1.133e-5
-0.897, 1.134e-5
-0.898, 1.134e-5
-0.899, 1.135e-5
-0.900, 1.136e-5
-0.901, 1.135e-5
-0.902, 1.136e-5
-0.903, 1.136e-5
-0.904, 1.137e-5
-0.905, 1.138e-5
-0.906, 1.137e-5
-0.907, 1.138e-5
-0.908, 1.139e-5
-0.909, 1.139e-5
-0.910, 1.140e-5
-0.911, 1.140e-5
-0.912, 1.141e-5
-0.913, 1.141e-5
-0.914, 1.142e-5
-0.915, 1.142e-5
-0.916, 1.143e-5
-0.917, 1.144e-5
-0.918, 1.145e-5
-0.919, 1.145e-5
-0.920, 1.146e-5
-0.921, 1.147e-5
-0.922, 1.148e-5
-0.923, 1.149e-5
-0.924, 1.150e-5
-0.925, 1.150e-5
-0.926, 1.151e-5
-0.927, 1.152e-5
-0.928, 1.153e-5
-0.929, 1.154e-5
-0.930, 1.155e-5
-0.931, 1.156e-5
-0.932, 1.157e-5
-0.933, 1.157e-5
-0.934, 1.159e-5
-0.935, 1.160e-5
-0.936, 1.161e-5
-0.937, 1.162e-5
-0.938, 1.163e-5
-0.939, 1.164e-5
-0.940, 1.164e-5
-0.941, 1.165e-5
-0.942, 1.167e-5
-0.943, 1.168e-5
-0.944, 1.169e-5
-0.945, 1.170e-5
-0.946, 1.172e-5
-0.947, 1.173e-5
-0.948, 1.175e-5
-0.949, 1.177e-5
-0.950, 1.177e-5
-0.951, 1.179e-5
-0.952, 1.180e-5
-0.953, 1.181e-5
-0.954, 1.183e-5
-0.955, 1.184e-5
-0.956, 1.186e-5
-0.957, 1.188e-5
-0.958, 1.189e-5
-0.959, 1.190e-5
-0.960, 1.192e-5
-0.961, 1.194e-5
-0.962, 1.195e-5
-0.963, 1.196e-5
-0.964, 1.198e-5
-0.965, 1.199e-5
-0.966, 1.200e-5
-0.967, 1.202e-5
-0.968, 1.203e-5
-0.969, 1.204e-5
-0.970, 1.205e-5
-0.971, 1.207e-5
-0.972, 1.208e-5
-0.973, 1.211e-5
-0.974, 1.212e-5
-0.975, 1.213e-5
-0.976, 1.215e-5
-0.977, 1.217e-5
-0.978, 1.218e-5
-0.979, 1.220e-5
-0.980, 1.222e-5
-0.981, 1.223e-5
-0.982, 1.225e-5
-0.983, 1.227e-5
-0.984, 1.229e-5
-0.985, 1.231e-5
-0.986, 1.232e-5
-0.987, 1.234e-5
-0.988, 1.236e-5
-0.989, 1.238e-5
-0.990, 1.240e-5
-0.991, 1.242e-5
-0.992, 1.244e-5
-0.993, 1.246e-5
-0.994, 1.248e-5
-0.995, 1.250e-5
-0.996, 1.252e-5
-0.997, 1.254e-5
-0.998, 1.256e-5
-0.999, 1.258e-5
-1.000, 1.260e-5
-1.001, 1.262e-5
-1.002, 1.264e-5
-1.003, 1.266e-5
-1.004, 1.268e-5
-1.005, 1.270e-5
-1.006, 1.272e-5
-1.007, 1.275e-5
-1.008, 1.277e-5
-1.009, 1.279e-5
-1.010, 1.281e-5
-1.011, 1.283e-5
-1.012, 1.286e-5
-1.013, 1.288e-5
-1.014, 1.290e-5
-1.015, 1.292e-5
-1.016, 1.294e-5
-1.017, 1.297e-5
-1.018, 1.300e-5
-1.019, 1.302e-5
-1.020, 1.305e-5
-1.021, 1.306e-5
-1.022, 1.309e-5
-1.023, 1.311e-5
-1.024, 1.314e-5
-1.025, 1.316e-5
-1.026, 1.318e-5
-1.027, 1.321e-5
-1.028, 1.324e-5
-1.029, 1.326e-5
-1.030, 1.329e-5
-1.031, 1.332e-5
-1.032, 1.335e-5
-1.033, 1.338e-5
-1.034, 1.340e-5
-1.035, 1.343e-5
-1.036, 1.346e-5
-1.037, 1.349e-5
-1.038, 1.352e-5
-1.039, 1.354e-5
-1.040, 1.357e-5
-1.041, 1.361e-5
-1.042, 1.364e-5
-1.043, 1.367e-5
-1.044, 1.370e-5
-1.045, 1.373e-5
-1.046, 1.377e-5
-1.047, 1.380e-5
-1.048, 1.383e-5
-1.049, 1.387e-5
-1.050, 1.390e-5
-1.051, 1.393e-5
-1.052, 1.396e-5
-1.053, 1.400e-5
-1.054, 1.403e-5
-1.055, 1.406e-5
-1.056, 1.410e-5
-1.057, 1.414e-5
-1.058, 1.417e-5
-1.059, 1.421e-5
-1.060, 1.425e-5
-1.061, 1.428e-5
-1.062, 1.432e-5
-1.063, 1.436e-5
-1.064, 1.440e-5
-1.065, 1.444e-5
-1.066, 1.447e-5
-1.067, 1.452e-5
-1.068, 1.456e-5
-1.069, 1.460e-5
-1.070, 1.465e-5
-1.071, 1.469e-5
-1.072, 1.473e-5
-1.073, 1.477e-5
-1.074, 1.480e-5
-1.075, 1.485e-5
-1.076, 1.489e-5
-1.077, 1.492e-5
-1.078, 1.497e-5
-1.079, 1.501e-5
-1.080, 1.505e-5
-1.081, 1.509e-5
-1.082, 1.513e-5
-1.083, 1.519e-5
-1.084, 1.524e-5
-1.085, 1.526e-5
-1.086, 1.529e-5
-1.087, 1.534e-5
-1.088, 1.538e-5
-1.089, 1.543e-5
-1.090, 1.548e-5
-1.091, 1.552e-5
-1.092, 1.557e-5
-1.093, 1.561e-5
-1.094, 1.565e-5
-1.095, 1.570e-5
-1.096, 1.575e-5
-1.097, 1.580e-5
-1.098, 1.585e-5
-1.099, 1.589e-5
-1.100, 1.594e-5
-1.101, 1.598e-5
-1.102, 1.603e-5
-1.103, 1.608e-5
-1.104, 1.613e-5
-1.105, 1.617e-5
-1.106, 1.625e-5
-1.107, 1.631e-5
-1.108, 1.635e-5
-1.109, 1.639e-5
-1.110, 1.644e-5
-1.111, 1.649e-5
-1.112, 1.655e-5
-1.113, 1.661e-5
-1.114, 1.666e-5
-1.115, 1.671e-5
-1.116, 1.677e-5
-1.117, 1.682e-5
-1.118, 1.686e-5
-1.119, 1.690e-5
-1.120, 1.694e-5
-1.121, 1.699e-5
-1.122, 1.703e-5
-1.123, 1.708e-5
-1.124, 1.714e-5
-1.125, 1.718e-5
-1.126, 1.723e-5
-1.127, 1.729e-5
-1.128, 1.737e-5
-1.129, 1.743e-5
-1.130, 1.749e-5
-1.131, 1.755e-5
-1.132, 1.758e-5
-1.133, 1.762e-5
-1.134, 1.766e-5
-1.135, 1.770e-5
-1.136, 1.773e-5
-1.137, 1.777e-5
-1.138, 1.782e-5
-1.139, 1.786e-5
-1.140, 1.790e-5
-1.141, 1.794e-5
-1.142, 1.799e-5
-1.143, 1.803e-5
-1.144, 1.808e-5
-1.145, 1.812e-5
-1.146, 1.816e-5
-1.147, 1.820e-5
-1.148, 1.824e-5
-1.149, 1.828e-5
-1.150, 1.832e-5
-1.151, 1.836e-5
-1.152, 1.842e-5
-1.153, 1.846e-5
-1.154, 1.850e-5
-1.155, 1.854e-5
-1.156, 1.858e-5
-1.157, 1.862e-5
-1.158, 1.867e-5
-1.159, 1.871e-5
-1.160, 1.875e-5
-1.161, 1.879e-5
-1.162, 1.885e-5
-1.163, 1.890e-5
-1.164, 1.895e-5
-1.165, 1.897e-5
-1.166, 1.900e-5
-1.167, 1.902e-5
-1.168, 1.907e-5
-1.169, 1.912e-5
-1.170, 1.918e-5
-1.171, 1.922e-5
-1.172, 1.925e-5
-1.173, 1.929e-5
-1.174, 1.933e-5
-1.175, 1.936e-5
-1.176, 1.940e-5
-1.177, 1.943e-5
-1.178, 1.948e-5
-1.179, 1.953e-5
-1.180, 1.958e-5
-1.181, 1.961e-5
-1.182, 1.965e-5
-1.183, 1.970e-5
-1.184, 1.973e-5
-1.185, 1.977e-5
-1.186, 1.980e-5
-1.187, 1.985e-5
-1.188, 1.989e-5
-1.189, 1.992e-5
-1.190, 1.996e-5
-1.191, 1.999e-5
-1.192, 2.006e-5
-1.193, 2.015e-5
-1.194, 2.018e-5
-1.195, 2.020e-5
-1.196, 2.024e-5
-1.197, 2.030e-5
-1.198, 2.033e-5
-1.199, 2.037e-5
-1.200, 2.042e-5
-1.201, 2.045e-5
-1.202, 2.051e-5
-1.203, 2.060e-5
-1.204, 2.063e-5
-1.205, 2.065e-5
-1.206, 2.068e-5
-1.207, 2.074e-5
-1.208, 2.084e-5
-1.209, 2.086e-5
-1.210, 2.087e-5
-1.211, 2.090e-5
-1.212, 2.094e-5
-1.213, 2.100e-5
-1.214, 2.105e-5
-1.215, 2.108e-5
-1.216, 2.112e-5
-1.217, 2.116e-5
-1.218, 2.123e-5
-1.219, 2.132e-5
-1.220, 2.134e-5
-1.221, 2.136e-5
-1.222, 2.142e-5
-1.223, 2.149e-5
-1.224, 2.151e-5
-1.225, 2.153e-5
-1.226, 2.160e-5
-1.227, 2.169e-5
-1.228, 2.174e-5
-1.229, 2.179e-5
-1.230, 2.184e-5
-1.231, 2.191e-5
-1.232, 2.199e-5
-1.233, 2.210e-5
-1.234, 2.223e-5
-1.235, 2.228e-5
-1.236, 2.228e-5
-1.237, 2.238e-5
-1.238, 2.243e-5
-1.239, 2.246e-5
-1.240, 2.251e-5
-1.241, 2.256e-5
-1.242, 2.261e-5
-1.243, 2.267e-5
-1.244, 2.272e-5
-1.245, 2.276e-5
-1.246, 2.282e-5
-1.247, 2.287e-5
-1.248, 2.293e-5
-1.249, 2.301e-5
-1.250, 2.311e-5
-1.251, 2.317e-5
-1.252, 2.328e-5
-1.253, 2.333e-5
-1.254, 2.337e-5
-1.255, 2.341e-5
-1.256, 2.352e-5
-1.257, 2.361e-5
-1.258, 2.367e-5
-1.259, 2.375e-5
-1.260, 2.380e-5
-1.261, 2.388e-5
-1.262, 2.398e-5
-1.263, 2.408e-5
-1.264, 2.412e-5
-1.265, 2.418e-5
-1.266, 2.427e-5
-1.267, 2.436e-5
-1.268, 2.444e-5
-1.269, 2.448e-5
-1.270, 2.449e-5
-1.271, 2.455e-5
-1.272, 2.462e-5
-1.273, 2.472e-5
-1.274, 2.478e-5
-1.275, 2.489e-5
-1.276, 2.494e-5
-1.277, 2.501e-5
-1.278, 2.506e-5
-1.279, 2.511e-5
-1.280, 2.519e-5
-1.281, 2.523e-5
-1.282, 2.532e-5
-1.283, 2.536e-5
-1.284, 2.544e-5
-1.285, 2.551e-5
-1.286, 2.563e-5
-1.287, 2.574e-5
-1.288, 2.582e-5
-1.289, 2.588e-5
-1.290, 2.597e-5
-1.291, 2.601e-5
-1.292, 2.603e-5
-1.293, 2.614e-5
-1.294, 2.626e-5
-1.295, 2.636e-5
-1.296, 2.646e-5
-1.297, 2.650e-5
-1.298, 2.659e-5
-1.299, 2.675e-5
-1.300, 2.686e-5
-1.301, 2.695e-5
-1.302, 2.713e-5
-1.303, 2.719e-5
-1.304, 2.728e-5
-1.305, 2.744e-5
-1.306, 2.747e-5
-1.307, 2.758e-5
-1.308, 2.767e-5
-1.309, 2.776e-5
-1.310, 2.783e-5
-1.311, 2.792e-5
-1.312, 2.798e-5
-1.313, 2.807e-5
-1.314, 2.812e-5
-1.315, 2.819e-5
-1.316, 2.835e-5
-1.317, 2.853e-5
-1.318, 2.853e-5
-1.319, 2.857e-5
-1.320, 2.867e-5
-1.321, 2.874e-5
-1.322, 2.882e-5
-1.323, 2.900e-5
-1.324, 2.909e-5
-1.325, 2.915e-5
-1.326, 2.928e-5
-1.327, 2.943e-5
-1.328, 2.955e-5
-1.329, 2.969e-5
-1.330, 2.977e-5
-1.331, 2.981e-5
-1.332, 2.991e-5
-1.333, 3.003e-5
-1.334, 3.017e-5
-1.335, 3.028e-5
-1.336, 3.038e-5
-1.337, 3.047e-5
-1.338, 3.057e-5
-1.339, 3.069e-5
-1.340, 3.078e-5
-1.341, 3.078e-5
-1.342, 3.083e-5
-1.343, 3.091e-5
-1.344, 3.096e-5
-1.345, 3.107e-5
-1.346, 3.121e-5
-1.347, 3.122e-5
-1.348, 3.132e-5
-1.349, 3.140e-5
-1.350, 3.139e-5
-1.351, 3.142e-5
-1.352, 3.154e-5
-1.353, 3.163e-5
-1.354, 3.172e-5
-1.355, 3.184e-5
-1.356, 3.190e-5
-1.357, 3.201e-5
-1.358, 3.215e-5
-1.359, 3.222e-5
-1.360, 3.227e-5
-1.361, 3.235e-5
-1.362, 3.246e-5
-1.363, 3.250e-5
-1.364, 3.254e-5
-1.365, 3.267e-5
-1.366, 3.276e-5
-1.367, 3.286e-5
-1.368, 3.299e-5
-1.369, 3.308e-5
-1.370, 3.312e-5
-1.371, 3.325e-5
-1.372, 3.342e-5
-1.373, 3.354e-5
-1.374, 3.364e-5
-1.375, 3.370e-5
-1.376, 3.377e-5
-1.377, 3.395e-5
-1.378, 3.424e-5
-1.379, 3.426e-5
-1.380, 3.440e-5
-1.381, 3.458e-5
-1.382, 3.470e-5
-1.383, 3.484e-5
-1.384, 3.499e-5
-1.385, 3.510e-5
-1.386, 3.527e-5
-1.387, 3.535e-5
-1.388, 3.552e-5
-1.389, 3.567e-5
-1.390, 3.584e-5
-1.391, 3.609e-5
-1.392, 3.630e-5
-1.393, 3.643e-5
-1.394, 3.676e-5
-1.395, 3.703e-5
-1.396, 3.714e-5
-1.397, 3.727e-5
-1.398, 3.748e-5
-1.399, 3.768e-5
-1.400, 3.796e-5
-1.401, 3.810e-5
-1.402, 3.829e-5
-1.403, 3.852e-5
-1.404, 3.871e-5
-1.405, 3.899e-5
-1.406, 3.926e-5
-1.407, 3.939e-5
-1.408, 3.958e-5
-1.409, 3.979e-5
-1.410, 4.007e-5
-1.411, 4.025e-5
-1.412, 4.049e-5
-1.413, 4.078e-5
-1.414, 4.101e-5
-1.415, 4.123e-5
-1.416, 4.146e-5
-1.417, 4.164e-5
-1.418, 4.186e-5
-1.419, 4.215e-5
-1.420, 4.244e-5
-1.421, 4.269e-5
-1.422, 4.301e-5
-1.423, 4.328e-5
-1.424, 4.355e-5
-1.425, 4.386e-5
-1.426, 4.423e-5
-1.427, 4.458e-5
-1.428, 4.489e-5
-1.429, 4.516e-5
-1.430, 4.550e-5
-1.431, 4.578e-5
-1.432, 4.609e-5
-1.433, 4.641e-5
-1.434, 4.675e-5
-1.435, 4.717e-5
-1.436, 4.749e-5
-1.437, 4.782e-5
-1.438, 4.813e-5
-1.439, 4.854e-5
-1.440, 4.888e-5
-1.441, 4.918e-5
-1.442, 4.952e-5
-1.443, 4.987e-5
-1.444, 5.023e-5
-1.445, 5.059e-5
-1.446, 5.095e-5
-1.447, 5.128e-5
-1.448, 5.169e-5
-1.449, 5.240e-5
-1.450, 5.291e-5
-1.451, 5.335e-5
-1.452, 5.417e-5
-1.453, 5.473e-5
-1.454, 5.510e-5
-1.455, 5.550e-5
-1.456, 5.588e-5
-1.457, 5.630e-5
-1.458, 5.663e-5
-1.459, 5.697e-5
-1.460, 5.736e-5
-1.461, 5.779e-5
-1.462, 5.822e-5
-1.463, 5.867e-5
-1.464, 5.911e-5
-1.465, 5.953e-5
-1.466, 5.997e-5
-1.467, 6.040e-5
-1.468, 6.089e-5
-1.469, 6.136e-5
-1.470, 6.176e-5
-1.471, 6.219e-5
-1.472, 6.263e-5
-1.473, 6.316e-5
-1.474, 6.377e-5
-1.475, 6.426e-5
-1.476, 6.477e-5
-1.477, 6.527e-5
-1.478, 6.573e-5
-1.479, 6.622e-5
-1.480, 6.672e-5
-1.481, 6.720e-5
-1.482, 6.770e-5
-1.483, 6.820e-5
-1.484, 6.874e-5
-1.485, 6.932e-5
-1.486, 6.993e-5
-1.487, 7.052e-5
-1.488, 7.113e-5
-1.489, 7.173e-5
-1.490, 7.226e-5
-1.491, 7.280e-5
-1.492, 7.346e-5
-1.493, 7.412e-5
-1.494, 7.475e-5
-1.495, 7.530e-5
-1.496, 7.595e-5
-1.497, 7.663e-5
-1.498, 7.732e-5
-1.499, 7.805e-5
-1.500, 7.868e-5
-1.501, 7.934e-5
-1.502, 7.992e-5
-1.503, 8.053e-5
-1.504, 8.132e-5
-1.505, 8.219e-5
-1.506, 8.273e-5
-1.507, 8.323e-5
-1.508, 8.406e-5
-1.509, 8.482e-5
-1.510, 8.541e-5
-1.511, 8.589e-5
-1.512, 8.662e-5
-1.513, 8.732e-5
-1.514, 8.807e-5
-1.515, 8.879e-5
-1.516, 8.947e-5
-1.517, 9.026e-5
-1.518, 9.106e-5
-1.519, 9.179e-5
-1.520, 9.263e-5
-1.521, 9.341e-5
-1.522, 9.431e-5
-1.523, 9.507e-5
-1.524, 9.592e-5
-1.525, 9.656e-5
-1.526, 9.739e-5
-1.527, 9.830e-5
-1.528, 9.911e-5
-1.529, 9.989e-5
-1.530, 1.007e-4
-1.531, 1.017e-4
-1.532, 1.025e-4
-1.533, 1.034e-4
-1.534, 1.043e-4
-1.535, 1.053e-4
-1.536, 1.062e-4
-1.537, 1.071e-4
-1.538, 1.080e-4
-1.539, 1.089e-4
-1.540, 1.100e-4
-1.541, 1.109e-4
-1.542, 1.120e-4
-1.543, 1.129e-4
-1.544, 1.139e-4
-1.545, 1.148e-4
-1.546, 1.158e-4
-1.547, 1.168e-4
-1.548, 1.179e-4
-1.549, 1.190e-4
-1.550, 1.201e-4
-1.551, 1.211e-4
-1.552, 1.221e-4
-1.553, 1.234e-4
-1.554, 1.247e-4
-1.555, 1.261e-4
-1.556, 1.272e-4
-1.557, 1.283e-4
-1.558, 1.295e-4
-1.559, 1.307e-4
-1.560, 1.317e-4
-1.561, 1.329e-4
-1.562, 1.340e-4
-1.563, 1.351e-4
-1.564, 1.363e-4
-1.565, 1.375e-4
-1.566, 1.388e-4
-1.567, 1.401e-4
-1.568, 1.414e-4
-1.569, 1.427e-4
-1.570, 1.440e-4
-1.571, 1.454e-4
-1.572, 1.467e-4
-1.573, 1.480e-4
-1.574, 1.495e-4
-1.575, 1.510e-4
-1.576, 1.526e-4
-1.577, 1.538e-4
-1.578, 1.552e-4
-1.579, 1.567e-4
-1.580, 1.581e-4
-1.581, 1.594e-4
-1.582, 1.609e-4
-1.583, 1.624e-4
-1.584, 1.639e-4
-1.585, 1.653e-4
-1.586, 1.668e-4
-1.587, 1.684e-4
-1.588, 1.700e-4
-1.589, 1.715e-4
-1.590, 1.731e-4
-1.591, 1.746e-4
-1.592, 1.762e-4
-1.593, 1.780e-4
-1.594, 1.795e-4
-1.595, 1.812e-4
-1.596, 1.828e-4
-1.597, 1.845e-4
-1.598, 1.861e-4
-1.599, 1.877e-4
-1.600, 1.893e-4
-1.601, 1.911e-4
-1.602, 1.928e-4
-1.603, 1.945e-4
-1.604, 1.963e-4
-1.605, 1.980e-4
-1.606, 1.997e-4
-1.607, 2.015e-4
-1.608, 2.033e-4
-1.609, 2.051e-4
-1.610, 2.069e-4
-1.611, 2.088e-4
-1.612, 2.107e-4
-1.613, 2.126e-4
-1.614, 2.145e-4
-1.615, 2.162e-4
-1.616, 2.180e-4
-1.617, 2.199e-4
-1.618, 2.218e-4
-1.619, 2.238e-4
-1.620, 2.258e-4
-1.621, 2.279e-4
-1.622, 2.300e-4
-1.623, 2.320e-4
-1.624, 2.341e-4
-1.625, 2.361e-4
-1.626, 2.383e-4
-1.627, 2.404e-4
-1.628, 2.426e-4
-1.629, 2.449e-4
-1.630, 2.470e-4
-1.631, 2.491e-4
-1.632, 2.513e-4
-1.633, 2.535e-4
-1.634, 2.558e-4
-1.635, 2.581e-4
-1.636, 2.605e-4
-1.637, 2.629e-4
-1.638, 2.653e-4
-1.639, 2.678e-4
-1.640, 2.702e-4
-1.641, 2.726e-4
-1.642, 2.750e-4
-1.643, 2.773e-4
-1.644, 2.798e-4
-1.645, 2.823e-4
-1.646, 2.848e-4
-1.647, 2.873e-4
-1.648, 2.899e-4
-1.649, 2.925e-4
-1.650, 2.951e-4
-1.651, 2.976e-4
-1.652, 3.001e-4
-1.653, 3.027e-4
-1.654, 3.053e-4
-1.655, 3.080e-4
-1.656, 3.108e-4
-1.657, 3.135e-4
-1.658, 3.162e-4
-1.659, 3.195e-4
-1.660, 3.231e-4
-1.661, 3.262e-4
-1.662, 3.291e-4
-1.663, 3.320e-4
-1.664, 3.347e-4
-1.665, 3.375e-4
-1.666, 3.404e-4
-1.667, 3.435e-4
-1.668, 3.466e-4
-1.669, 3.494e-4
-1.670, 3.524e-4
-1.671, 3.554e-4
-1.672, 3.583e-4
-1.673, 3.614e-4
-1.674, 3.649e-4
-1.675, 3.681e-4
-1.676, 3.712e-4
-1.677, 3.745e-4
-1.678, 3.796e-4
-1.679, 3.823e-4
-1.680, 3.852e-4
-1.681, 3.882e-4
-1.682, 3.911e-4
-1.683, 3.942e-4
-1.684, 3.973e-4
-1.685, 4.006e-4
-1.686, 4.050e-4
-1.687, 4.092e-4
-1.688, 4.120e-4
-1.689, 4.148e-4
-1.690, 4.180e-4
-1.691, 4.212e-4
-1.692, 4.244e-4
-1.693, 4.277e-4
-1.694, 4.310e-4
-1.695, 4.343e-4
-1.696, 4.378e-4
-1.697, 4.414e-4
-1.698, 4.450e-4
-1.699, 4.485e-4
-1.700, 4.523e-4
-1.701, 4.559e-4
-1.702, 4.598e-4
-1.703, 4.634e-4
-1.704, 4.670e-4
-1.705, 4.706e-4
-1.706, 4.744e-4
-1.707, 4.783e-4
-1.708, 4.823e-4
-1.709, 4.860e-4
-1.710, 4.898e-4
-1.711, 4.936e-4
-1.712, 4.975e-4
-1.713, 5.019e-4
-1.714, 5.059e-4
-1.715, 5.096e-4
-1.716, 5.133e-4
-1.717, 5.171e-4
-1.718, 5.097e-4
-1.719, 4.996e-4
-1.720, 5.028e-4
-1.721, 5.072e-4
-1.722, 5.117e-4
-1.723, 5.156e-4
-1.724, 5.196e-4
-1.725, 5.236e-4
-1.726, 5.276e-4
-1.727, 5.317e-4
-1.728, 5.359e-4
-1.729, 5.402e-4
-1.730, 5.444e-4
-1.731, 5.487e-4
-1.732, 5.530e-4
-1.733, 5.573e-4
-1.734, 5.616e-4
-1.735, 5.661e-4
-1.736, 5.706e-4
-1.737, 5.752e-4
-1.738, 5.798e-4
-1.739, 5.842e-4
-1.740, 5.887e-4
-1.741, 5.932e-4
-1.742, 5.975e-4
-1.743, 6.019e-4
-1.744, 6.065e-4
-1.745, 6.112e-4
-1.746, 6.159e-4
-1.747, 6.207e-4
-1.748, 6.255e-4
-1.749, 6.304e-4
-1.750, 6.353e-4
-1.751, 6.401e-4
-1.752, 6.450e-4
-1.753, 6.497e-4
-1.754, 6.546e-4
-1.755, 6.598e-4
-1.756, 6.649e-4
-1.757, 6.696e-4
-1.758, 6.742e-4
-1.759, 6.795e-4
-1.760, 6.850e-4
-1.761, 6.902e-4
-1.762, 6.957e-4
-1.763, 7.011e-4
-1.764, 7.064e-4
-1.765, 7.120e-4
-1.766, 7.176e-4
-1.767, 7.229e-4
-1.768, 7.281e-4
-1.769, 7.331e-4
-1.770, 7.382e-4
-1.771, 7.434e-4
-1.772, 7.485e-4
-1.773, 7.538e-4
-1.774, 7.583e-4
-1.775, 7.626e-4
-1.776, 7.680e-4
-1.777, 7.729e-4
-1.778, 7.772e-4
-1.779, 7.822e-4
-1.780, 7.871e-4
-1.781, 7.915e-4
-1.782, 7.987e-4
-1.783, 8.041e-4
-1.784, 8.095e-4
-1.785, 8.150e-4
-1.786, 8.204e-4
-1.787, 8.261e-4
-1.788, 8.317e-4
-1.789, 8.371e-4
-1.790, 8.427e-4
-1.791, 8.484e-4
-1.792, 8.543e-4
-1.793, 8.602e-4
-1.794, 8.656e-4
-1.795, 8.711e-4
-1.796, 8.766e-4
-1.797, 8.823e-4
-1.798, 8.885e-4
-1.799, 8.946e-4
-1.800, 9.007e-4
-1.801, 9.071e-4
-1.802, 9.134e-4
-1.803, 9.196e-4
-1.804, 9.258e-4
-1.805, 9.319e-4
-1.806, 9.382e-4
-1.807, 9.443e-4
-1.808, 9.505e-4
-1.809, 9.569e-4
-1.810, 9.632e-4
-1.811, 9.710e-4
-1.812, 9.776e-4
-1.813, 9.834e-4
-1.814, 9.885e-4
-1.815, 9.946e-4
-1.816, 1.002e-3
-1.817, 1.008e-3
-1.818, 1.011e-3
-1.819, 1.011e-3
-1.820, 1.011e-3
-1.821, 1.011e-3
-1.822, 1.011e-3
-1.823, 1.011e-3
-1.824, 1.011e-3
-1.825, 1.011e-3
-1.826, 1.011e-3
-1.827, 1.011e-3
-1.828, 1.011e-3
-1.829, 1.011e-3
-1.830, 1.011e-3
-1.831, 1.011e-3
-1.832, 1.011e-3
-1.833, 1.011e-3
-1.834, 1.011e-3
-1.835, 1.011e-3
-1.836, 1.011e-3
-1.837, 1.011e-3
-1.838, 1.011e-3
-1.839, 1.011e-3
-1.840, 1.011e-3
-1.841, 1.011e-3
-1.842, 1.011e-3
-1.843, 1.011e-3
-1.844, 1.011e-3
-1.845, 1.011e-3
-1.846, 1.011e-3
-1.847, 1.011e-3
-1.848, 1.011e-3
-1.849, 1.011e-3
-1.850, 1.011e-3
-1.851, 1.011e-3
-1.852, 1.011e-3
-1.853, 1.011e-3
-1.854, 1.011e-3
-1.855, 1.011e-3
-1.856, 1.011e-3
-1.857, 1.011e-3
-1.858, 1.011e-3
-1.859, 1.011e-3
-1.860, 1.011e-3
-1.861, 1.011e-3
-1.862, 1.011e-3
-1.863, 1.011e-3
-1.864, 1.011e-3
-1.865, 1.011e-3
-1.866, 1.011e-3
-1.867, 1.011e-3
-1.868, 1.011e-3
-1.869, 1.011e-3
-1.870, 1.011e-3
-1.871, 1.011e-3
-1.872, 1.011e-3
-1.873, 1.011e-3
-1.874, 1.011e-3
-1.875, 1.011e-3
-1.876, 1.011e-3
-1.877, 1.011e-3
-1.878, 1.011e-3
-1.879, 1.011e-3
-1.880, 1.011e-3
-1.881, 1.011e-3
-1.882, 1.011e-3
-1.883, 1.011e-3
-1.884, 1.011e-3
-1.885, 1.011e-3
-1.886, 1.011e-3
-1.887, 1.011e-3
-1.888, 1.011e-3
-1.889, 1.011e-3
-1.890, 1.011e-3
-1.891, 1.011e-3
-1.892, 1.011e-3
-1.893, 1.011e-3
-1.894, 1.011e-3
-1.895, 1.011e-3
-1.896, 1.011e-3
-1.897, 1.011e-3
-1.898, 1.011e-3
-1.899, 1.011e-3
-1.900, 1.011e-3
-1.901, 1.011e-3
-1.902, 1.011e-3
-1.903, 1.011e-3
-1.904, 1.011e-3
-1.905, 1.011e-3
-1.906, 1.011e-3
-1.907, 1.011e-3
-1.908, 1.011e-3
-1.909, 1.011e-3
-1.910, 1.011e-3
-1.911, 1.011e-3
-1.912, 1.011e-3
-1.913, 1.011e-3
-1.914, 1.011e-3
-1.915, 1.011e-3
-1.916, 1.011e-3
-1.917, 1.011e-3
-1.918, 1.011e-3
-1.919, 1.011e-3
-1.920, 1.011e-3
-1.921, 1.011e-3
-1.922, 1.011e-3
-1.923, 1.011e-3
-1.924, 1.011e-3
-1.925, 1.011e-3
-1.926, 1.011e-3
-1.927, 1.011e-3
-1.928, 1.011e-3
-1.929, 1.011e-3
-1.930, 1.011e-3
-1.931, 1.011e-3
-1.932, 1.011e-3
-1.933, 1.011e-3
-1.934, 1.011e-3
-1.935, 1.011e-3
-1.936, 1.011e-3
-1.937, 1.011e-3
-1.938, 1.011e-3
-1.939, 1.011e-3
-1.940, 1.011e-3
-1.941, 1.011e-3
-1.942, 1.011e-3
-1.943, 1.011e-3
-1.944, 1.011e-3
-1.945, 1.011e-3
-1.946, 1.011e-3
-1.947, 1.011e-3
-1.948, 1.011e-3
-1.949, 1.011e-3
-1.950, 1.011e-3
-1.951, 1.011e-3
-1.952, 1.011e-3
-1.953, 1.011e-3
-1.954, 1.011e-3
-1.955, 1.011e-3
-1.956, 1.011e-3
-1.957, 1.011e-3
-1.958, 1.011e-3
-1.959, 1.011e-3
-1.960, 1.011e-3
-1.961, 1.011e-3
-1.962, 1.011e-3
-1.963, 1.011e-3
-1.964, 1.011e-3
-1.965, 1.011e-3
-1.966, 1.011e-3
-1.967, 1.011e-3
-1.968, 1.011e-3
-1.969, 1.011e-3
-1.970, 1.011e-3
-1.971, 1.011e-3
-1.972, 1.011e-3
-1.973, 1.011e-3
-1.974, 1.011e-3
-1.975, 1.011e-3
-1.976, 1.011e-3
-1.977, 1.011e-3
-1.978, 1.011e-3
-1.979, 1.011e-3
-1.980, 1.011e-3
-1.981, 1.011e-3
-1.982, 1.011e-3
-1.983, 1.011e-3
-1.984, 1.011e-3
-1.985, 1.011e-3
-1.986, 1.011e-3
-1.987, 1.011e-3
-1.988, 1.011e-3
-1.989, 1.011e-3
-1.990, 1.011e-3
-1.991, 1.011e-3
-1.992, 1.011e-3
-1.993, 1.011e-3
-1.994, 1.011e-3
-1.995, 1.011e-3
-1.996, 1.011e-3
-1.997, 1.011e-3
-1.998, 1.011e-3
-1.999, 1.011e-3
-2.000, 1.011e-3
-2.001, 1.011e-3
-2.002, 1.011e-3
-2.003, 1.011e-3
-2.004, 1.011e-3
-2.005, 1.011e-3
-2.006, 1.011e-3
-2.007, 1.011e-3
-2.008, 1.011e-3
-2.009, 1.011e-3
-2.010, 1.011e-3
-2.011, 1.011e-3
-2.012, 1.011e-3
-2.013, 1.011e-3
-2.014, 1.011e-3
-2.015, 1.011e-3
-2.016, 1.011e-3
-2.017, 1.011e-3
-2.018, 1.011e-3
-2.019, 1.011e-3
-2.020, 1.011e-3
-2.021, 1.011e-3
-2.022, 1.011e-3
-2.023, 1.011e-3
-2.024, 1.011e-3
-2.025, 1.011e-3
-2.026, 1.011e-3
-2.027, 1.011e-3
-2.028, 1.011e-3
-2.029, 1.011e-3
-2.030, 1.011e-3
-2.031, 1.011e-3
-2.032, 1.011e-3
-2.033, 1.011e-3
-2.034, 1.011e-3
-2.035, 1.011e-3
-2.036, 1.011e-3
-2.037, 1.011e-3
-2.038, 1.011e-3
-2.039, 1.011e-3
-2.040, 1.011e-3
-2.041, 1.011e-3
-2.042, 1.011e-3
-2.043, 1.011e-3
-2.044, 1.011e-3
-2.045, 1.011e-3
-2.046, 1.011e-3
-2.047, 1.011e-3
-2.048, 1.011e-3
-2.049, 1.011e-3
-2.050, 1.011e-3
-2.051, 1.011e-3
-2.052, 1.011e-3
-2.053, 1.011e-3
-2.054, 1.011e-3
-2.055, 1.011e-3
-2.056, 1.011e-3
-2.057, 1.011e-3
-2.058, 1.011e-3
-2.059, 1.011e-3
-2.060, 1.011e-3
-2.061, 1.011e-3
-2.062, 1.011e-3
-2.063, 1.011e-3
-2.064, 1.011e-3
-2.065, 1.011e-3
-2.066, 1.011e-3
-2.067, 1.011e-3
-2.068, 1.011e-3
-2.069, 1.011e-3
-2.070, 1.011e-3
-2.071, 1.011e-3
-2.072, 1.011e-3
-2.073, 1.011e-3
-2.074, 1.011e-3
-2.075, 1.011e-3
-2.076, 1.011e-3
-2.077, 1.011e-3
-2.078, 1.011e-3
-2.079, 1.011e-3
-2.080, 1.011e-3
-2.081, 1.011e-3
-2.082, 1.011e-3
-2.083, 1.011e-3
-2.084, 1.011e-3
-2.085, 1.011e-3
-2.086, 1.011e-3
-2.087, 1.011e-3
-2.088, 1.011e-3
-2.089, 1.011e-3
-2.090, 1.011e-3
-2.091, 1.011e-3
-2.092, 1.011e-3
-2.093, 1.011e-3
-2.094, 1.011e-3
-2.095, 1.011e-3
-2.096, 1.011e-3
-2.097, 1.011e-3
-2.098, 1.011e-3
-2.099, 1.011e-3
-2.100, 1.011e-3
-2.101, 1.011e-3
-2.102, 1.011e-3
-2.103, 1.011e-3
-2.104, 1.011e-3
-2.105, 1.011e-3
-2.106, 1.011e-3
-2.107, 1.011e-3
-2.108, 1.011e-3
-2.109, 1.011e-3
-2.110, 1.011e-3
-2.111, 1.011e-3
-2.112, 1.011e-3
-2.113, 1.011e-3
-2.114, 1.011e-3
-2.115, 1.011e-3
-2.116, 1.011e-3
-2.117, 1.011e-3
-2.118, 1.011e-3
-2.119, 1.011e-3
-2.120, 1.011e-3
-2.121, 1.011e-3
-2.122, 1.011e-3
-2.123, 1.011e-3
-2.124, 1.011e-3
-2.125, 1.011e-3
-2.126, 1.011e-3
-2.127, 1.011e-3
-2.128, 1.011e-3
-2.129, 1.011e-3
-2.130, 1.011e-3
-2.131, 1.011e-3
-2.132, 1.011e-3
-2.133, 1.011e-3
-2.134, 1.011e-3
-2.135, 1.011e-3
-2.136, 1.011e-3
-2.137, 1.011e-3
-2.138, 1.011e-3
-2.139, 1.011e-3
-2.140, 1.011e-3
-2.141, 1.011e-3
-2.142, 1.011e-3
-2.143, 1.011e-3
-2.144, 1.011e-3
-2.145, 1.011e-3
-2.146, 1.011e-3
-2.147, 1.011e-3
-2.148, 1.011e-3
-2.149, 1.011e-3
-2.150, 1.011e-3
-2.151, 1.011e-3
-2.152, 1.011e-3
-2.153, 1.011e-3
-2.154, 1.011e-3
-2.155, 1.011e-3
-2.156, 1.011e-3
-2.157, 1.011e-3
-2.158, 1.011e-3
-2.159, 1.011e-3
-2.160, 1.011e-3
-2.161, 1.011e-3
-2.162, 1.011e-3
-2.163, 1.011e-3
-2.164, 1.011e-3
-2.165, 1.011e-3
-2.166, 1.011e-3
-2.167, 1.011e-3
-2.168, 1.011e-3
-2.169, 1.011e-3
-2.170, 1.011e-3
-2.171, 1.011e-3
-2.172, 1.011e-3
-2.173, 1.011e-3
-2.174, 1.011e-3
-2.175, 1.011e-3
-2.176, 1.011e-3
-2.177, 1.011e-3
-2.178, 1.011e-3
-2.179, 1.011e-3
-2.180, 1.011e-3
-2.181, 1.011e-3
-2.182, 1.011e-3
-2.183, 1.011e-3
-2.184, 1.011e-3
-2.185, 1.011e-3
-2.186, 1.011e-3
-2.187, 1.011e-3
-2.188, 1.011e-3
-2.189, 1.011e-3
-2.190, 1.011e-3
-2.191, 1.011e-3
-2.192, 1.011e-3
-2.193, 1.011e-3
-2.194, 1.011e-3
-2.195, 1.011e-3
-2.196, 1.011e-3
-2.197, 1.011e-3
-2.198, 1.011e-3
-2.199, 1.011e-3
-2.200, 1.011e-3
-2.201, 1.011e-3
-2.202, 1.011e-3
-2.203, 1.011e-3
-2.204, 1.011e-3
-2.205, 1.011e-3
-2.206, 1.011e-3
-2.207, 1.011e-3
-2.208, 1.011e-3
-2.209, 1.011e-3
-2.210, 1.011e-3
-2.211, 1.011e-3
-2.212, 1.011e-3
-2.213, 1.011e-3
-2.214, 1.011e-3
-2.215, 1.011e-3
-2.216, 1.011e-3
-2.217, 1.011e-3
-2.218, 1.011e-3
-2.219, 1.011e-3
-2.220, 1.011e-3
-2.221, 1.011e-3
-2.222, 1.011e-3
-2.223, 1.011e-3
-2.224, 1.011e-3
-2.225, 1.011e-3
-2.226, 1.011e-3
-2.227, 1.011e-3
-2.228, 1.011e-3
-2.229, 1.011e-3
-2.230, 1.011e-3
-2.231, 1.011e-3
-2.232, 1.011e-3
-2.233, 1.011e-3
-2.234, 1.011e-3
-2.235, 1.011e-3
-2.236, 1.011e-3
-2.237, 1.011e-3
-2.238, 1.011e-3
-2.239, 1.011e-3
-2.240, 1.011e-3
-2.241, 1.011e-3
-2.242, 1.011e-3
-2.243, 1.011e-3
-2.244, 1.011e-3
-2.245, 1.011e-3
-2.246, 1.011e-3
-2.247, 1.011e-3
-2.248, 1.011e-3
-2.249, 1.011e-3
-2.250, 1.011e-3
-2.251, 1.011e-3
-2.252, 1.011e-3
-2.253, 1.011e-3
-2.254, 1.011e-3
-2.255, 1.011e-3
-2.256, 1.011e-3
-2.257, 1.011e-3
-2.258, 1.011e-3
-2.259, 1.011e-3
-2.260, 1.011e-3
-2.261, 1.011e-3
-2.262, 1.011e-3
-2.263, 1.011e-3
-2.264, 1.011e-3
-2.265, 1.011e-3
-2.266, 1.011e-3
-2.267, 1.011e-3
-2.268, 1.011e-3
-2.269, 1.011e-3
-2.270, 1.011e-3
-2.271, 1.011e-3
-2.272, 1.011e-3
-2.273, 1.011e-3
-2.274, 1.011e-3
-2.275, 1.011e-3
-2.276, 1.011e-3
-2.277, 1.011e-3
-2.278, 1.011e-3
-2.279, 1.011e-3
-2.280, 1.011e-3
-2.281, 1.011e-3
-2.282, 1.011e-3
-2.283, 1.011e-3
-2.284, 1.011e-3
-2.285, 1.011e-3
-2.286, 1.011e-3
-2.287, 1.011e-3
-2.288, 1.011e-3
-2.289, 1.011e-3
-2.290, 1.011e-3
-2.291, 1.011e-3
-2.292, 1.011e-3
-2.293, 1.011e-3
-2.294, 1.011e-3
-2.295, 1.011e-3
-2.296, 1.011e-3
-2.297, 1.011e-3
-2.298, 1.011e-3
-2.299, 1.011e-3
