Potential V vs RHE, Current mA cm-2
0.013299999999999867,22.027054938898623
0.012299999999999978,20.14548891007812
0.011299999999999866,18.40539401124413
0.010299999999999976,16.70774045140608
0.009299999999999864,15.094969569559943
0.008299999999999974,13.606693282101922
0.007299999999999862,12.080219789547549
0.006299999999999972,10.727755786876573
0.00529999999999986,9.331435733909782
0.0042999999999999705,7.936530392242855
0.0032999999999998586,6.5840663895718805
0.0022999999999999687,5.231602386900906
0.0012999999999998568,3.8366970452339793
0.00029999999999996696,2.4842330425630044
-0.000700000000000145,1.0881959318561862
-0.0017000000000000348,-0.2202705493889862
-0.0027000000000001467,-1.4854468648582886
-0.0037000000000000366,-2.7501987669376318
-0.0047000000000001485,-3.884797229429391
-0.005700000000000038,-5.0618370309171015
-0.00670000000000015,-6.196435493408861
-0.00770000000000004,-7.329619244600755
-0.008700000000000152,-8.508073757388331
-0.009700000000000042,-9.685113558876042
-0.010700000000000154,-10.863568071663616
-0.011700000000000044,-12.084463923447142
-0.012700000000000156,-13.261503724934855
-0.013700000000000045,-14.401761032626075
-0.014700000000000157,-15.491088733522153
-0.015700000000000047,-16.53797509542228
-0.01670000000000016,-17.542420118326454
-0.01770000000000005,-18.53271802823198
-0.01870000000000016,-19.537163051136158
-0.01970000000000005,-20.541608074040333
-0.020700000000000163,-21.54605309694451
-0.021700000000000053,-22.63538079784059
-0.022700000000000164,-23.767149837732617
-0.023700000000000054,-24.814036199632742
-0.024700000000000166,-25.86092256153287
-0.025700000000000056,-26.86536758443705
-0.026700000000000168,-27.827371268345274
-0.027700000000000058,-28.789374952253496
-0.02870000000000017,-29.708937297165768
-0.02970000000000006,-30.571911190083444
-0.03070000000000017,-31.49147353499572
-0.03170000000000006,-32.45347721890394
-0.03270000000000017,-33.45792224180811
-0.03370000000000006,-34.462367264712285
-0.034700000000000175,-35.42437094862052
-0.035700000000000065,-36.4288159715247
-0.03670000000000018,-37.41911388143023
-0.03770000000000007,-38.33867622634249
-0.03870000000000018,-39.258238571254765
-0.03970000000000007,-40.092918238175145
-0.04070000000000018,-40.95589213109281
-0.04170000000000007,-41.79057179801318
-0.04270000000000018,-42.653545690930855
-0.04370000000000007,-43.53066669684718
-0.044700000000000184,-44.45022904175945
-0.045700000000000074,-45.412232725667685
-0.046700000000000186,-46.37423640957591
-0.047700000000000076,-47.32209298048547
-0.04870000000000019,-48.1992139864018
-0.04970000000000008,-49.118776331314066
-0.05070000000000019,-49.939308885235796
-0.05170000000000008,-50.77398855215617
-0.05270000000000019,-51.509638428085985
-0.05370000000000008,-52.34431809500636
-0.05470000000000019,-53.16485064892808
-0.05570000000000008,-54.0419716548444
-0.056700000000000195,-54.961533999756675
-0.057700000000000085,-55.881096344668954
-0.058700000000000196,-56.82895291557852
-0.059700000000000086,-57.70607392149485
-0.0607000000000002,-58.583194927411164
-0.06170000000000009,-59.44616882032884
-0.0627000000000002,-60.28084848724921
-0.06370000000000009,-61.07308681517363
-0.0647000000000002,-61.80873669110345
-0.06570000000000009,-62.58682790602922
-0.0667000000000002,-63.421507572949594
-0.0677000000000001,-64.29862857886593
-0.0687000000000002,-65.16160247178358
-0.0697000000000001,-66.08116481669586
-0.07070000000000021,-67.04316850060408
-0.0717000000000001,-67.9202895065204
-0.07270000000000021,-68.78326339943808
-0.0737000000000001,-69.57550172736251
-0.07470000000000021,-70.39603428128423
-0.0757000000000001,-71.18827260920865
-0.07670000000000021,-71.92392248513846
-0.0777000000000001,-72.71616081306288
-0.07870000000000021,-73.53669336698461
-0.0797000000000001,-74.41381437290093
-0.08070000000000022,-75.33337671781321
-0.0817000000000001,-76.23879194972683
-0.08270000000000022,-77.11591295564315
-0.08370000000000011,-78.03547530055542
-0.08470000000000022,-78.85600785447714
-0.08570000000000011,-79.69068752139752
-0.08670000000000022,-80.46877873632329
-0.08770000000000011,-81.21857572525175
-0.08870000000000022,-81.99666694017753
-0.08970000000000011,-82.78890526810196
-0.09070000000000022,-83.66602627401826
-0.09170000000000011,-84.52900016693594
-0.09270000000000023,-85.40612117285227
-0.09370000000000012,-86.32568351776455
-0.09470000000000023,-87.18865741068221
-0.09570000000000012,-88.06577841659853
-0.09670000000000023,-88.9004580835189
-0.09770000000000012,-89.72099063744062
-0.09870000000000023,-90.51322896536506
-0.09970000000000012,-91.24887884129487
-0.10070000000000023,-92.08355850821525
-0.10170000000000012,-92.86164972314101
-0.10270000000000024,-93.73877072905732
-0.10370000000000013,-94.6583330739696
-0.10470000000000024,-95.56374830588322
-0.10570000000000013,-96.52575198979144
-0.10670000000000024,-97.40287299570777
-0.10770000000000013,-98.3082882276214
-0.10870000000000024,-99.14296789454177
-0.10970000000000013,-99.93520622246619
-0.11070000000000024,-100.75573877638791
-0.11170000000000013,-101.59041844330828
-0.11270000000000002,-102.41095099723
-0.11370000000000013,-103.28807200314633
-0.11470000000000002,-104.16519300906265
-0.11570000000000014,-105.07060824097626
-0.11670000000000003,-105.99017058588855
-0.11770000000000014,-106.86729159180487
-0.11870000000000003,-107.78685393671715
-0.11970000000000014,-108.60738649063886
-0.12070000000000003,-109.44206615755924
-0.12170000000000014,-110.22015737248502
-0.12270000000000003,-110.96995436141347
-0.12370000000000014,-111.74804557633925
-0.12470000000000003,-112.58272524325962
-0.12570000000000014,-113.44569913617728
-0.12670000000000003,-114.3228201420936
-0.12770000000000015,-115.2423824870059
-0.12870000000000004,-116.14779771891952
-0.12970000000000015,-117.02491872483584
-0.13070000000000004,-117.90203973075215
-0.13170000000000015,-118.72257228467387
-0.13270000000000004,-119.55725195159425
-0.13370000000000015,-120.33534316652002
-0.13470000000000004,-121.17002283344038
-0.13570000000000015,-122.00470250036076
-0.13670000000000004,-122.82523505428249
-0.13770000000000016,-123.74479739919475
-0.13870000000000005,-124.70680108310299
-0.13970000000000016,-125.6688047670112
-0.14070000000000005,-126.61666133792076
-0.14170000000000016,-127.57866502182902
-0.14270000000000005,-128.4982273667413
-0.14370000000000016,-129.27631858166706
-0.14470000000000005,-130.1534395875834
-0.14570000000000016,-130.98811925450374
-0.14670000000000005,-131.76621046942952
-0.14770000000000016,-132.64333147534586
-0.14870000000000005,-133.46386402926754
-0.14970000000000017,-134.38342637417986
-0.15070000000000006,-135.34543005808808
-0.15170000000000017,-136.26499240300032
-0.15270000000000006,-137.1845547479126
-0.15370000000000017,-138.08996997982624
-0.15470000000000006,-138.96709098574257
-0.15570000000000017,-139.84421199165885
-0.15670000000000006,-140.66474454558062
-0.15770000000000017,-141.456982873505
-0.15870000000000006,-142.31995676642268
-0.15970000000000018,-143.16878354634173
-0.16070000000000007,-144.01761032626072
-0.16170000000000018,-144.86643710617977
-0.16270000000000007,-145.85673501608528
-0.16370000000000018,-146.7055617960043
-0.16470000000000007,-147.6958597059098
-0.16570000000000018,-148.54468648582886
-0.16670000000000007,-149.53498439573437
-0.16770000000000018,-150.24234004566688
-0.16870000000000007,-151.09116682558593
-0.16970000000000018,-151.7985224755184
-0.17070000000000007,-152.64734925543743
-0.17170000000000019,-153.49617603535648
-0.17270000000000008,-154.3450028152755
-0.1737000000000002,-155.33530072518104
-0.17470000000000008,-156.32559863508658
-0.1757000000000002,-157.17442541500557
-0.17670000000000008,-158.1647233249111
-0.1777000000000002,-159.01355010483013
-0.17870000000000008,-160.00384801473567
-0.1797000000000002,-160.71120366466818
-0.18070000000000008,-161.5600304445872
-0.1817000000000002,-162.40885722450622
-0.18270000000000008,-163.25768400442522
-0.1837000000000002,-164.10651078434424
-0.1847000000000001,-165.09680869424977
-0.1857000000000002,-165.94563547416882
-0.1867000000000001,-166.93593338407433
-0.1877000000000002,-167.92623129397984
-0.1887000000000001,-168.77505807389886
-0.1897000000000002,-169.6238848538179
-0.1907000000000001,-170.47271163373694
-0.1917000000000001,-171.32153841365593
-0.19269999999999998,-172.17036519357498
-0.1937000000000001,-173.01919197349397
-0.19469999999999998,-173.86801875341303
-0.1957000000000001,-174.71684553333202
-0.19669999999999999,-175.70714344323756
-0.1977000000000001,-176.55597022315658
-0.1987,-177.54626813306209
-0.1997000000000001,-178.53656604296762
-0.2007,-179.38539282288664
-0.2017000000000001,-180.23421960280567
-0.2027,-181.08304638272472
-0.2037000000000001,-181.93187316264374
-0.2047,-182.78069994256273
-0.2057000000000001,-183.62952672248176
-0.2067,-184.47835350240078
-0.2077000000000001,-185.3271802823198
-0.2087,-186.31747819222534
-0.2097000000000001,-187.16630497214436
-0.2107,-188.15660288204987
-0.2117000000000001,-189.1469007919554
-0.2127,-189.99572757187443
-0.2137000000000001,-190.84455435179345
-0.2147,-191.83485226169896
-0.2157000000000001,-192.683679041618
-0.2167,-193.532505821537
-0.21770000000000012,-194.2398614714695
-0.2187,-195.23015938137505
-0.21970000000000012,-196.0789861612941
-0.2207,-197.0692840711996
-0.22170000000000012,-197.91811085111863
-0.2227,-198.90840876102413
-0.22370000000000012,-199.75723554094319
-0.2247,-200.7475334508487
-0.22570000000000012,-201.59636023076774
-0.2267,-202.44518701068677
-0.22770000000000012,-203.29401379060576
-0.22870000000000001,-204.14284057052478
-0.22970000000000013,-204.9916673504438
-0.23070000000000002,-205.98196526034934
-0.23170000000000013,-206.97226317025488
-0.23270000000000002,-207.96256108016038
-0.23370000000000013,-208.95285899006592
-0.23470000000000002,-209.8016857699849
-0.23570000000000013,-210.79198367989048
-0.23670000000000002,-211.64081045980947
-0.2376999999999999,-212.48963723972852
-0.23870000000000002,-213.33846401964755
-0.2396999999999999,-214.18729079956654
-0.24070000000000003,-215.03611757948556
-0.24169999999999991,-215.88494435940459
-0.24270000000000003,-216.73377113932364
-0.24369999999999992,-217.44112678925615
-0.24470000000000003,-218.43142469916165
-0.24569999999999992,-219.42172260906716
-0.24670000000000003,-220.41202051897272
-0.24769999999999992,-221.26084729889175
-0.24870000000000003,-222.10967407881074
-0.24969999999999992,-222.9585008587298
-0.25070000000000003,-223.80732763864881
-0.2516999999999999,-224.65615441856778
-0.25270000000000004,-225.50498119848683
-0.2536999999999999,-226.49527910839237
-0.25470000000000004,-227.4855770182979
-0.2556999999999999,-228.33440379821695
-0.25670000000000004,-229.32470170812243
-0.25769999999999993,-230.31499961802797
-0.25870000000000004,-231.3052975279335
-0.25969999999999993,-232.15412430785253
-0.26070000000000004,-233.1444222177581
-0.26169999999999993,-233.99324899767706
-0.26270000000000004,-234.84207577759608
-0.26369999999999993,-235.69090255751513
-0.26470000000000005,-236.6812004674206
-0.26569999999999994,-237.53002724733966
-0.26670000000000005,-238.5203251572452
-0.26769999999999994,-239.5106230671507
-0.26870000000000005,-240.50092097705624
-0.26969999999999994,-241.49121888696175
-0.27070000000000005,-242.48151679686728
-0.27169999999999994,-243.3303435767863
-0.27270000000000005,-244.32064148669184
-0.27369999999999994,-245.16946826661086
-0.27470000000000006,-245.87682391654337
-0.27569999999999995,-246.8671218264489
-0.27670000000000006,-247.71594860636796
-0.27769999999999995,-248.70624651627344
-0.27870000000000006,-249.5550732961925
-0.27969999999999995,-250.545371206098
-0.28070000000000006,-251.53566911600356
-0.28169999999999995,-252.52596702590907
-0.28270000000000006,-253.51626493581452
-0.28369999999999995,-254.36509171573357
-0.28470000000000006,-255.35538962563913
-0.28569999999999995,-256.20421640555816
-0.28670000000000007,-257.0530431854772
-0.28769999999999996,-258.0433410953827
-0.28870000000000007,-258.8921678753017
-0.28969999999999996,-259.8824657852072
-0.29070000000000007,-260.73129256512624
-0.29169999999999996,-261.7215904750318
-0.29270000000000007,-262.7118883849373
-0.29369999999999996,-263.7021862948428
-0.2947000000000001,-264.6924842047484
-0.29569999999999996,-265.5413109846674
-0.2967000000000001,-266.3901377645864
-0.29769999999999996,-267.23896454450545
-0.2987000000000001,-268.22926245441096
-0.29969999999999997,-269.07808923433
-0.3007000000000001,-270.0683871442355
-0.30169999999999997,-271.05868505414105
-0.3027000000000001,-272.04898296404656
-0.30369999999999997,-273.03928087395207
-0.3047000000000001,-274.0295787838576
-0.30569999999999997,-275.0198766937631
-0.3067000000000001,-275.7272323436957
-0.3077,-276.7175302536012
-0.3087000000000001,-277.56635703352015
-0.3097,-278.4151838134392
-0.3107000000000001,-279.26401059335825
-0.3117,-280.11283737327733
-0.3127000000000001,-281.1031352831828
-0.3137,-282.09343319308834
-0.3147000000000001,-283.08373110299385
-0.3157,-284.07402901289936
-0.3167000000000001,-285.2057980527914
-0.3177,-286.196095962697
-0.3187000000000001,-287.04492274261594
-0.3197,-287.893749522535
-0.3207000000000001,-288.742576302454
-0.3217,-289.73287421235955
-0.3227000000000001,-290.5817009922785
-0.3237,-291.4305277721976
-0.3247000000000001,-292.56229681208964
-0.3257,-293.4111235920086
-0.3267000000000001,-294.11847924194115
-0.3277,-295.10877715184665
-0.3287000000000001,-296.2405461917387
-0.3297,-297.23084410164427
-0.3307000000000001,-298.2211420115498
-0.3317,-299.2114399214552
-0.3327000000000001,-300.06026670137425
-0.3337,-301.0505646112798
-0.3347000000000001,-301.8993913911989
-0.3357,-302.88968930110434
-0.3367000000000001,-303.87998721100985
-0.3377,-304.8702851209154
-0.3387000000000001,-306.00205416080746
-0.3397,-307.1338232006995
-0.3407000000000001,-308.124121110605
-0.3417,-309.1144190205105
-0.3427000000000001,-309.9632458004295
-0.3437,-310.81207258034857
-0.3447000000000001,-311.5194282302811
-0.3457,-312.36825501020013
-0.3467000000000001,-313.5000240500921
-0.3477,-314.49032195999763
-0.3487000000000001,-315.4806198699032
-0.3497,-316.6123889097952
-0.3507000000000001,-317.74415794968724
-0.3517,-318.73445585959274
-0.3527000000000001,-319.72475376949825
-0.3537,-320.71505167940376
-0.3547000000000001,-321.7053495893094
-0.3557,-322.5541763692284
-0.35670000000000013,-323.5444742791339
-0.3577,-324.5347721890394
-0.35870000000000013,-325.5250700989449
-0.3597,-326.373896878864
-0.36070000000000013,-327.6471370487425
-0.3617,-328.63743495864804
-0.3626999999999999,-329.76920399854004
-0.3637,-330.7595019084456
-0.3646999999999999,-331.74979981835105
-0.3657,-332.7400977282566
-0.3666999999999999,-333.7303956381621
-0.3677,-334.5792224180812
-0.3686999999999999,-335.5695203279867
-0.36970000000000003,-336.5598182378922
-0.3706999999999999,-337.5501161477977
-0.37170000000000003,-338.6818851876898
-0.3726999999999999,-339.6721830975953
-0.37370000000000003,-340.80395213748733
-0.3746999999999999,-341.9357211773794
-0.37570000000000003,-342.92601908728494
-0.3766999999999999,-343.7748458672039
-0.37770000000000004,-344.90661490709596
-0.3786999999999999,-345.6139705570285
-0.37970000000000004,-346.604268466934
-0.3806999999999999,-347.73603750682605
-0.38170000000000004,-348.72633541673156
-0.38269999999999993,-349.85810445662355
-0.38370000000000004,-350.8484023665291
-0.38469999999999993,-351.9801714064211
-0.38570000000000004,-353.11194044631316
-0.38669999999999993,-352.9704693163266
-0.38570000000000004,-350.2825178465831
-0.38469999999999993,-347.59456637683957
-0.38370000000000004,-345.04808603708244
-0.38269999999999993,-342.5016056973254
-0.38170000000000004,-339.95512535756825
-0.3806999999999999,-337.40864501781124
-0.37970000000000004,-335.00363580804066
-0.3786999999999999,-332.59862659827013
-0.37770000000000004,-330.33508851848603
-0.3766999999999999,-328.071550438702
-0.37570000000000003,-325.80801235891795
-0.3746999999999999,-323.40300314914737
-0.37370000000000003,-321.2809361993498
-0.3726999999999999,-319.01739811956577
-0.37170000000000003,-316.7538600397817
-0.3706999999999999,-314.34885083001114
-0.36970000000000003,-311.94384162024056
-0.3686999999999999,-309.6803035404565
-0.3677,-307.4167654606725
-0.3666999999999999,-305.29469851087487
-0.3657,-303.0311604310908
-0.3646999999999999,-300.9090934812933
-0.3637,-298.6455554015092
-0.3626999999999999,-296.52348845171167
-0.3617,-294.2599503719276
-0.36070000000000013,-291.9964122921436
-0.3597,-289.73287421235955
-0.35870000000000013,-287.46933613257545
-0.3577,-285.3472691827779
-0.35670000000000013,-283.22520223298034
-0.3557,-281.1031352831828
-0.3547000000000001,-279.1225394633717
-0.3537,-276.8590013835877
-0.3527000000000001,-274.87840556377665
-0.3517,-272.8978097439656
-0.3507000000000001,-270.775742794168
-0.3497,-268.65367584437047
-0.3487000000000001,-266.3901377645864
-0.3477,-264.12659968480233
-0.3467000000000001,-262.0045327350048
-0.3457,-259.8824657852072
-0.3447000000000001,-257.76039883540966
-0.3437,-255.77980301559862
-0.3427000000000001,-253.65773606580112
-0.3417,-251.81861137597656
-0.3407000000000001,-249.83801555616546
-0.3397,-247.85741973635444
-0.3387000000000001,-245.87682391654337
-0.3377,-243.75475696674582
-0.3367000000000001,-241.77416114693477
-0.3357,-239.7935653271237
-0.3347000000000001,-237.67149837732615
-0.3337,-235.69090255751513
-0.3327000000000001,-233.71030673770406
-0.3317,-231.729710917893
-0.3307000000000001,-229.89058622806846
-0.3297,-228.0514615382439
-0.3287000000000001,-226.07086571843288
-0.3277,-224.2317410286083
-0.3267000000000001,-222.25114520879725
-0.3257,-220.2705493889862
-0.3247000000000001,-218.28995356917517
-0.3237,-216.3093577493641
-0.3227000000000001,-214.47023305953954
-0.3217,-212.34816610974204
-0.3207000000000001,-210.50904141991748
-0.3197,-208.6699167300929
-0.3187000000000001,-206.83079204026836
-0.3177,-204.9916673504438
-0.3167000000000001,-203.15254266061928
-0.3157,-201.31341797079472
-0.3147000000000001,-199.47429328097016
-0.3137,-197.49369746115914
-0.3127000000000001,-195.65457277133459
-0.3117,-193.6739769515235
-0.3107000000000001,-191.83485226169896
-0.3097,-189.99572757187443
-0.3087000000000001,-188.15660288204987
-0.3077,-186.45894932221185
-0.3067000000000001,-184.6198246323873
-0.30569999999999997,-182.92217107254925
-0.3047000000000001,-181.2245175127112
-0.30369999999999997,-179.38539282288664
-0.3027000000000001,-177.54626813306209
-0.30169999999999997,-175.70714344323756
-0.3007000000000001,-173.86801875341303
-0.29969999999999997,-172.0288940635885
-0.2987000000000001,-170.33124050375042
-0.29769999999999996,-168.49211581392586
-0.2967000000000001,-166.79446225408785
-0.29569999999999996,-165.09680869424977
-0.2947000000000001,-163.39915513441173
-0.29369999999999996,-161.70150157457368
-0.29270000000000007,-160.00384801473567
-0.29169999999999996,-158.1647233249111
-0.29070000000000007,-156.32559863508658
-0.28969999999999996,-154.6279450752485
-0.28870000000000007,-152.78882038542397
-0.28769999999999996,-150.94969569559944
-0.28670000000000007,-149.25204213576137
-0.28569999999999995,-147.55438857592333
-0.28470000000000006,-145.85673501608528
-0.28369999999999995,-144.30055258623375
-0.28270000000000006,-142.7443701563822
-0.28169999999999995,-140.9759810315509
-0.28070000000000006,-139.3207688107088
-0.27969999999999995,-137.6089681378721
-0.27870000000000006,-135.86887323903812
-0.27769999999999995,-134.17121967920008
-0.27670000000000006,-132.41697766736743
-0.27569999999999995,-130.7193241075294
-0.27470000000000006,-129.0641118866873
-0.27369999999999994,-127.4937823438371
-0.27270000000000005,-125.88101146199097
-0.27169999999999994,-124.35312325813672
-0.27070000000000005,-122.74035237629057
-0.26969999999999994,-121.17002283344038
-0.26870000000000005,-119.55725195159425
