Potential V vs RHE, Current mA cm-2
0.013299999999999867,25.90336390052882
0.012299999999999978,24.120827662698876
0.011299999999999866,22.46561544185678
0.010299999999999976,20.89528589900659
0.009299999999999864,19.452280373144255
0.008299999999999974,18.009274847281915
0.007299999999999862,16.56626932141958
0.006299999999999972,15.094969569559943
0.00529999999999986,13.606693282101922
0.0042999999999999705,12.166517178839316
0.0032999999999998586,10.901765276759972
0.0022999999999999687,9.63701337468063
0.0012999999999998568,8.459973573192919
0.00029999999999996696,7.281519060405343
-0.000700000000000145,6.060623208621817
-0.0017000000000000348,4.839727356838291
-0.0027000000000001467,3.5311194044631313
-0.0037000000000000366,2.30880884137974
-0.0047000000000001485,1.1317690398920295
-0.005700000000000038,0.04140859974704963
-0.00670000000000015,-1.0054353208140816
-0.00770000000000004,-2.008890045808352
-0.008700000000000152,-3.055776407708479
-0.009700000000000042,-4.1889601589003735
-0.010700000000000154,-5.323558621392133
-0.011700000000000044,-6.458157083883892
-0.012700000000000156,-7.5474847847799715
-0.013700000000000045,-8.55051509638428
-0.014700000000000157,-9.511104068992642
-0.015700000000000047,-10.382566229709504
-0.01670000000000016,-11.299299152022046
-0.01770000000000005,-12.346185513922174
-0.01870000000000016,-13.3930718758223
-0.01970000000000005,-14.444202371622024
-0.020700000000000163,-15.448647394526201
-0.021700000000000053,-16.396503965435777
-0.022700000000000164,-17.2736249713521
-0.023700000000000054,-18.10830463827247
-0.024700000000000166,-18.97127853119014
-0.025700000000000056,-19.848399537106463
-0.026700000000000168,-20.810403221014692
-0.027700000000000058,-21.857289582914817
-0.02870000000000017,-22.819293266823045
-0.02970000000000006,-23.724708498736668
-0.03070000000000017,-24.559388165657033
-0.03170000000000006,-25.337479380582806
-0.03270000000000017,-26.17215904750318
-0.03370000000000006,-26.9643973754276
-0.034700000000000175,-27.869812607341224
-0.035700000000000065,-28.789374952253496
-0.03670000000000018,-29.751378636161718
-0.03770000000000007,-30.670940981073993
-0.03870000000000018,-31.49147353499572
-0.03970000000000007,-32.24127052392419
-0.04070000000000018,-32.97692039985401
-0.04170000000000007,-33.755011614779775
-0.04270000000000018,-34.58969128170015
-0.04370000000000007,-35.50925362661242
-0.044700000000000184,-36.4288159715247
-0.045700000000000074,-37.291789864442364
-0.046700000000000186,-38.12646953136274
-0.047700000000000076,-38.86211940729255
-0.04870000000000019,-39.61191639622103
-0.04970000000000008,-40.30512493315489
-0.05070000000000019,-41.139804600075266
-0.05170000000000008,-41.96033715399699
-0.05270000000000019,-42.87989949890926
-0.05370000000000008,-43.70043205283099
-0.05470000000000019,-44.577553058747306
-0.05570000000000008,-45.32735004767578
-0.056700000000000195,-46.062999923605595
-0.057700000000000085,-46.75620846053947
-0.058700000000000196,-47.506005449467935
-0.059700000000000086,-48.2840966643937
-0.0607000000000002,-49.16121767031002
-0.06170000000000009,-50.0807800152223
-0.0627000000000002,-50.90131256914402
-0.06370000000000009,-51.69355089706845
-0.0647000000000002,-52.386759434002315
-0.06570000000000009,-53.079967970936174
-0.0667000000000002,-53.7873236208687
-0.0677000000000001,-54.60785617479041
-0.0687000000000002,-55.442535841710786
-0.0697000000000001,-56.30550973462846
-0.07070000000000021,-57.14018940154883
-0.0717000000000001,-57.93242772947325
-0.07270000000000021,-58.66807760540307
-0.0737000000000001,-59.31884480334099
-0.07470000000000021,-60.02620045327351
-0.0757000000000001,-60.80429166819927
-0.07670000000000021,-61.63897133511965
-0.0777000000000001,-62.459503889041365
-0.07870000000000021,-63.29418355596174
-0.0797000000000001,-64.11471610988345
-0.08070000000000022,-64.82207175981598
-0.0817000000000001,-65.51528029674984
-0.08270000000000022,-66.16604749468777
-0.08370000000000011,-66.91584448361623
-0.08470000000000022,-67.693935698542
-0.08570000000000011,-68.57105670445833
-0.08670000000000022,-69.43403059737601
-0.08770000000000011,-70.31115160329232
-0.08870000000000022,-71.10338993121674
-0.08970000000000011,-71.7965984681506
-0.09070000000000022,-72.48980700508447
-0.09170000000000011,-73.197162655017
-0.09270000000000023,-73.97525386994278
-0.09370000000000012,-74.8523748758591
-0.09470000000000023,-75.71534876877676
-0.09570000000000012,-76.55002843569714
-0.09670000000000023,-77.28567831162695
-0.09770000000000012,-78.03547530055542
-0.09870000000000023,-78.72868383748929
-0.09970000000000012,-79.42189237442317
-0.10070000000000023,-80.17168936335163
-0.10170000000000012,-80.99222191727335
-0.10270000000000024,-81.86934292318966
-0.10370000000000013,-82.70402259011003
-0.10470000000000024,-83.52455514403178
-0.10570000000000013,-84.27435213296022
-0.10670000000000024,-84.96756066989411
-0.10770000000000013,-85.66076920682796
-0.10870000000000024,-86.41056619575643
-0.10970000000000013,-87.23109874967815
-0.11070000000000024,-88.06577841659853
-0.11170000000000013,-88.9853407615108
-0.11270000000000002,-89.80587331543254
-0.11370000000000013,-90.59811164335694
-0.11470000000000002,-91.29132018029082
-0.11570000000000014,-91.98452871722468
-0.11670000000000003,-92.73432570615316
-0.11770000000000014,-93.51241692107894
-0.11870000000000003,-94.38953792699526
-0.11970000000000014,-95.26665893291157
-0.12070000000000003,-96.12963282582925
-0.12170000000000014,-96.96431249274961
-0.12270000000000003,-97.69996236867944
-0.12370000000000014,-98.40731801861195
-0.12470000000000003,-99.10052655554581
-0.12570000000000014,-99.87861777047159
-0.12670000000000003,-100.75573877638791
-0.12770000000000015,-101.63285978230424
-0.12870000000000004,-102.5524221272165
-0.12970000000000015,-103.37295468113824
-0.13070000000000004,-104.12275167006669
-0.13170000000000015,-104.81596020700057
-0.13270000000000004,-105.50916874393444
-0.13370000000000015,-106.2589657328629
-0.13470000000000004,-107.07949828678463
-0.13570000000000015,-107.914177953705
-0.13670000000000004,-108.83374029861727
-0.13770000000000016,-109.69671419153494
-0.13870000000000005,-110.48895251945936
-0.13970000000000016,-111.22460239538917
-0.14070000000000005,-111.91781093232305
-0.14170000000000016,-112.71004926024747
-0.14270000000000005,-113.53058181416918
-0.14370000000000016,-114.36526148108955
-0.14470000000000005,-115.32726516499778
-0.14570000000000016,-116.20438617091412
-0.14670000000000005,-117.02491872483584
-0.14770000000000016,-117.77471571376431
-0.14870000000000005,-118.51036558969413
-0.14970000000000017,-119.24601546562396
-0.15070000000000006,-120.08069513254432
-0.15170000000000017,-120.9153747994647
-0.15270000000000006,-121.82079003137831
-0.15370000000000017,-122.69791103729463
-0.15470000000000006,-123.57503204321095
-0.15570000000000017,-124.35312325813672
-0.15670000000000006,-125.04633179507057
-0.15770000000000017,-125.79612878399907
-0.15870000000000006,-126.57421999892482
-0.15970000000000018,-127.45134100484115
-0.16070000000000007,-128.32846201075745
-0.16170000000000018,-129.2338772426711
-0.16270000000000007,-130.11099824858744
-0.16370000000000018,-130.9456779155078
-0.16470000000000007,-131.72376913043357
-0.16570000000000018,-132.47356611936203
-0.16670000000000007,-133.29409867328377
-0.16770000000000018,-134.08633700120816
-0.16870000000000007,-134.9917522331218
-0.16970000000000018,-135.91131457803408
-0.17070000000000007,-136.7884355839504
-0.17170000000000019,-137.56652679887617
-0.17270000000000008,-138.3163237878046
-0.1737000000000002,-139.05197366373446
-0.17470000000000008,-139.80177065266292
-0.1757000000000002,-140.62230320658463
-0.17670000000000008,-141.47112998650366
-0.1777000000000002,-142.4614278964092
-0.17870000000000008,-143.3102546763282
-0.1797000000000002,-144.15908145624724
-0.18070000000000008,-145.00790823616626
-0.1817000000000002,-145.7152638860988
-0.18270000000000008,-146.5640906660178
-0.1837000000000002,-147.27144631595033
-0.1847000000000001,-148.12027309586935
-0.1857000000000002,-149.1105710057749
-0.1867000000000001,-149.95939778569388
-0.1877000000000002,-150.8082245656129
-0.1887000000000001,-151.65705134553193
-0.1897000000000002,-152.36440699546444
-0.1907000000000001,-153.21323377538346
-0.1917000000000001,-153.920589425316
-0.19269999999999998,-154.76941620523502
-0.1937000000000001,-155.61824298515404
-0.19469999999999998,-156.60854089505958
-0.1957000000000001,-157.45736767497857
-0.19669999999999999,-158.3061944548976
-0.1977000000000001,-159.15502123481662
-0.1987,-159.86237688474912
-0.1997000000000001,-160.71120366466818
-0.2007,-161.5600304445872
-0.2017000000000001,-162.40885722450622
-0.2027,-163.39915513441173
-0.2037000000000001,-164.24798191433075
-0.2047,-165.2382798242363
-0.2057000000000001,-165.94563547416882
-0.2067,-166.79446225408785
-0.2077000000000001,-167.50181790402033
-0.2087,-168.20917355395284
-0.2097000000000001,-169.19947146385837
-0.2107,-170.0482982437774
-0.2117000000000001,-171.03859615368293
-0.2127,-171.88742293360195
-0.2137000000000001,-172.73624971352098
-0.2147,-173.44360536345349
-0.2157000000000001,-174.150961013386
-0.2167,-174.99978779330505
-0.21770000000000012,-175.84861457322407
-0.2187,-176.8389124831296
-0.21970000000000012,-177.6877392630486
-0.2207,-178.53656604296762
-0.22170000000000012,-179.38539282288664
-0.2227,-180.23421960280567
-0.22370000000000012,-180.94157525273818
-0.2247,-181.79040203265723
-0.22570000000000012,-182.63922881257625
-0.2267,-183.48805559249527
-0.22770000000000012,-184.47835350240078
-0.22870000000000001,-185.46865141230631
-0.22970000000000013,-186.31747819222534
-0.23070000000000002,-187.16630497214436
-0.23170000000000013,-187.87366062207687
-0.23270000000000002,-188.72248740199586
-0.23370000000000013,-189.57131418191491
-0.23470000000000002,-190.42014096183394
-0.23570000000000013,-191.41043887173947
-0.23670000000000002,-192.2592656516585
-0.2376999999999999,-193.249563561564
-0.23870000000000002,-193.9569192114965
-0.2396999999999999,-194.80574599141553
-0.24070000000000003,-195.51310164134807
-0.24169999999999991,-196.3619284212671
-0.24270000000000003,-197.35222633117263
-0.24369999999999992,-198.20105311109162
-0.24470000000000003,-199.19135102099716
-0.24569999999999992,-200.18164893090267
-0.24670000000000003,-201.03047571082172
-0.24769999999999992,-201.73783136075423
-0.24870000000000003,-202.58665814067325
-0.24969999999999992,-203.29401379060576
-0.25070000000000003,-204.2843117005113
-0.2516999999999999,-205.13313848043032
-0.25270000000000004,-206.12343639033585
-0.2536999999999999,-207.1137343002414
-0.25470000000000004,-207.96256108016038
-0.2556999999999999,-208.95285899006592
-0.25670000000000004,-209.66021463999843
-0.25769999999999993,-210.50904141991748
-0.25870000000000004,-211.21639706985
-0.25969999999999993,-212.2066949797555
-0.26070000000000004,-213.19699288966103
-0.26169999999999993,-214.04581966958003
-0.26270000000000004,-214.89464644949908
-0.26369999999999993,-215.88494435940459
-0.26470000000000005,-216.59230000933712
-0.26569999999999994,-217.44112678925615
-0.26670000000000005,-218.14848243918865
-0.26769999999999994,-219.13878034909416
-0.26870000000000005,-219.98760712901318
-0.26969999999999994,-220.97790503891872
-0.27070000000000005,-221.96820294882426
-0.27169999999999994,-222.81702972874328
-0.27270000000000005,-223.6658565086623
-0.27369999999999994,-224.5146832885813
-0.27470000000000006,-225.22203893851383
-0.27569999999999995,-226.07086571843288
-0.27670000000000006,-226.91969249835188
-0.27769999999999995,-227.9099904082574
-0.27870000000000006,-228.75881718817644
-0.27969999999999995,-229.74911509808197
-0.28070000000000006,-230.59794187800094
-0.28169999999999995,-231.44676865792
-0.28270000000000006,-232.29559543783904
-0.28369999999999995,-233.1444222177581
-0.28470000000000006,-234.13472012766357
-0.28569999999999995,-235.12501803756908
-0.28670000000000007,-236.1153159474746
-0.28769999999999996,-236.96414272739366
-0.28870000000000007,-237.81296950731266
-0.28969999999999996,-238.66179628723168
-0.29070000000000007,-239.5106230671507
-0.29169999999999996,-240.35944984706975
-0.29270000000000007,-241.20827662698875
-0.29369999999999996,-242.05710340690777
-0.2947000000000001,-243.04740131681334
-0.29569999999999996,-243.8962280967323
-0.2967000000000001,-244.74505487665132
-0.29769999999999996,-245.59388165657037
-0.2987000000000001,-246.4427084364894
-0.29969999999999997,-247.2915352164084
-0.3007000000000001,-248.14036199632744
-0.30169999999999997,-249.13065990623298
-0.3027000000000001,-250.1209578161385
-0.30369999999999997,-251.111255726044
-0.3047000000000001,-252.10155363594956
-0.30569999999999997,-252.95038041586852
-0.3067000000000001,-253.79920719578757
-0.3077,-254.64803397570657
-0.3087000000000001,-255.63833188561213
-0.3097,-256.62862979551767
-0.3107000000000001,-257.76039883540966
-0.3117,-258.7506967453152
-0.3127000000000001,-259.7409946552208
-0.3137,-260.73129256512624
-0.3147000000000001,-261.58011934504526
-0.3157,-262.42894612496434
-0.3167000000000001,-263.13630177489676
-0.3177,-263.98512855481584
-0.3187000000000001,-264.9754264647214
-0.3197,-265.82425324464043
-0.3207000000000001,-266.6730800245594
-0.3217,-267.6633779344649
-0.3227000000000001,-268.37073358439744
-0.3237,-269.2195603643164
-0.3247000000000001,-270.0683871442355
-0.3257,-271.05868505414105
-0.3267000000000001,-272.04898296404656
-0.3277,-273.03928087395207
-0.3287000000000001,-274.0295787838576
-0.3297,-274.87840556377665
-0.3307000000000001,-275.7272323436957
-0.3317,-276.5760591236147
-0.3327000000000001,-277.4248859035337
-0.3337,-278.2737126834527
-0.3347000000000001,-279.40548172334474
-0.3357,-280.3957796332503
-0.3367000000000001,-281.52754867314235
-0.3377,-282.51784658304786
-0.3387000000000001,-283.3666733629668
-0.3397,-284.2155001428859
-0.3407000000000001,-285.0643269228049
-0.3417,-285.7716825727374
-0.3427000000000001,-286.76198048264297
-0.3437,-287.7522783925485
-0.3447000000000001,-288.742576302454
-0.3457,-289.73287421235955
-0.3467000000000001,-290.44022986229203
-0.3477,-291.4305277721976
-0.3487000000000001,-292.1378834221301
-0.3497,-292.9867102020491
-0.3507000000000001,-293.8355369819681
-0.3517,-294.8258348918736
-0.3527000000000001,-295.8161328017792
-0.3537,-296.6649595816982
-0.3547000000000001,-297.6552574916037
-0.3557,-298.50408427152274
-0.35670000000000013,-299.49438218142825
-0.3577,-300.2017378313608
-0.35870000000000013,-301.1920357412663
-0.3597,-302.18233365117186
-0.36070000000000013,-303.0311604310908
-0.3617,-304.0214583409964
-0.3626999999999999,-305.0117562509019
-0.3637,-305.8605830308209
-0.3646999999999999,-306.70940981073994
-0.3657,-307.55823659065896
-0.3666999999999999,-308.2655922405915
-0.3677,-309.1144190205105
-0.3686999999999999,-310.2461880604026
-0.36970000000000003,-311.2364859703081
-0.3706999999999999,-312.2267838802136
-0.37170000000000003,-313.21708179011915
-0.3726999999999999,-313.9244374400517
-0.37370000000000003,-314.77326421997066
-0.3746999999999999,-315.6220909998897
-0.37570000000000003,-316.47091777980876
-0.3766999999999999,-317.60268681970075
-0.37770000000000004,-318.59298472960626
-0.3786999999999999,-319.72475376949825
-0.37970000000000004,-320.71505167940376
-0.3806999999999999,-321.7053495893094
-0.38170000000000004,-322.5541763692284
-0.38269999999999993,-323.40300314914737
-0.38370000000000004,-324.25182992906645
-0.38469999999999993,-325.1006567089854
-0.38570000000000004,-326.090954618891
-0.38669999999999993,-325.6665412289314
-0.38570000000000004,-322.83711862920137
-0.38469999999999993,-320.1491671594578
-0.38370000000000004,-317.46121568971427
-0.38269999999999993,-314.6317930899841
-0.38170000000000004,-311.94384162024056
-0.3806999999999999,-309.53883241047004
-0.37970000000000004,-307.1338232006995
-0.3786999999999999,-304.8702851209154
-0.37770000000000004,-302.6067470411313
-0.3766999999999999,-300.2017378313608
-0.37570000000000003,-297.79672862159026
-0.3746999999999999,-295.25024828183314
-0.37370000000000003,-292.8452390720626
-0.3726999999999999,-290.44022986229203
-0.37170000000000003,-288.176691782508
-0.3706999999999999,-286.0546248327104
-0.36970000000000003,-283.79108675292633
-0.3686999999999999,-281.52754867314235
-0.3677,-279.1225394633717
-0.3666999999999999,-276.8590013835877
-0.3657,-274.5954633038036
-0.3646999999999999,-272.1904540940331
-0.3637,-270.0683871442355
-0.3626999999999999,-267.94632019443793
-0.3617,-265.82425324464043
-0.36070000000000013,-263.84365742482936
-0.3597,-261.58011934504526
-0.35870000000000013,-259.4580523952477
-0.3577,-257.1945143154637
-0.35670000000000013,-254.93097623567962
-0.3557,-252.80890928588207
-0.3547000000000001,-250.6868423360845
-0.3537,-248.70624651627344
-0.3527000000000001,-246.7256506964624
-0.3517,-244.60358374666484
-0.3507000000000001,-242.48151679686728
-0.3497,-240.35944984706975
-0.3487000000000001,-238.0959117672857
-0.3477,-236.1153159474746
-0.3467000000000001,-233.99324899767706
-0.3457,-232.01265317786604
-0.3447000000000001,-230.03205735805497
-0.3437,-228.0514615382439
-0.3427000000000001,-225.92939458844637
-0.3417,-223.80732763864881
-0.3407000000000001,-221.68526068885126
-0.3397,-219.7046648690402
-0.3387000000000001,-217.58259791924263
-0.3377,-215.7434732294181
-0.3367000000000001,-213.90434853959354
-0.3357,-211.9237527197825
-0.3347000000000001,-209.94315689997146
-0.3337,-207.8210899501739
-0.3327000000000001,-205.84049413036286
-0.3317,-203.85989831055176
-0.3307000000000001,-201.87930249074074
-0.3297,-200.04017780091618
-0.3287000000000001,-198.20105311109162
-0.3277,-196.50339955125358
-0.3267000000000001,-194.52280373144254
-0.3257,-192.54220791163152
-0.3247000000000001,-190.56161209182042
-0.3237,-188.58101627200938
-0.3227000000000001,-186.74189158218485
-0.3217,-184.9027668923603
-0.3207000000000001,-183.20511333252225
-0.3197,-181.5074597726842
-0.3187000000000001,-179.66833508285964
-0.3177,-177.82921039303508
-0.3167000000000001,-175.84861457322407
-0.3157,-174.0094898833995
-0.3147000000000001,-172.17036519357498
-0.3137,-170.47271163373694
-0.3127000000000001,-168.77505807389886
-0.3117,-167.21887564404733
-0.3107000000000001,-165.3797509542228
-0.3097,-163.54062626439824
-0.3087000000000001,-161.70150157457368
-0.3077,-159.86237688474912
-0.3067000000000001,-158.02325219492457
-0.30569999999999997,-156.32559863508658
-0.3047000000000001,-154.6279450752485
-0.30369999999999997,-153.07176264539694
-0.3027000000000001,-151.37410908555893
-0.30169999999999997,-149.6764555257209
-0.3007000000000001,-147.83733083589632
-0.29969999999999997,-146.1396772760583
-0.2987000000000001,-144.15908145624724
-0.29769999999999996,-142.4614278964092
-0.2967000000000001,-140.79206856256846
-0.29569999999999996,-139.13685634172634
-0.2947000000000001,-137.48164412088425
-0.29369999999999996,-135.78399056104624
-0.29270000000000007,-134.04389566221224
-0.29169999999999996,-132.16232963339172
-0.29070000000000007,-130.37979339556176
-0.28969999999999996,-128.62555138372915
-0.28870000000000007,-127.012780501883
-0.28769999999999996,-125.40000962003687
-0.28670000000000007,-123.78723873819072
-0.28569999999999995,-122.17446785634456
-0.28470000000000006,-120.47681429650652
-0.28369999999999995,-118.68013094567793
-0.28270000000000006,-116.89759470784797
-0.28169999999999995,-115.19994114800993
-0.28070000000000006,-113.58717026616378
-0.27969999999999995,-112.01684072331359
-0.27870000000000006,-110.4465111804634
-0.27769999999999995,-108.91862297660917
-0.27670000000000006,-107.30585209476303
-0.27569999999999995,-105.63649276092228
-0.27470000000000006,-104.02372187907615
-0.27369999999999994,-102.36850965823406
-0.27270000000000005,-100.79818011538387
-0.27169999999999994,-99.31273325052557
-0.27070000000000005,-97.84143349866595
-0.26969999999999994,-96.35598663380765
-0.26870000000000005,-94.8280984299534
-0.26769999999999994,-93.21532754810727
