Potential V vs RHE, Current mA cm-2
0.013299999999999867,30.62849964207804
0.012299999999999978,29.001581647233255
0.011299999999999866,27.303928087395207
0.010299999999999976,25.94580523952477
0.009299999999999864,24.71500640864219
0.008299999999999974,23.286147995778503
0.007299999999999862,21.99876071290132
0.006299999999999972,20.980168576998494
0.00529999999999986,19.749369746115914
0.0042999999999999705,18.504423802234676
0.0032999999999998586,17.570714344323754
0.0022999999999999687,16.53797509542228
0.0012999999999998568,15.335470490536997
0.00029999999999996696,14.401761032626075
-0.000700000000000145,13.547275407507591
-0.0017000000000000348,12.422579924114888
-0.0027000000000001467,11.449258549807741
-0.0037000000000000366,10.683899736580756
-0.0047000000000001485,9.695016537975096
-0.005700000000000038,8.663692000373485
-0.00670000000000015,7.929456835743531
-0.00770000000000004,7.104680147922214
-0.008700000000000152,6.070526187720873
-0.009700000000000042,5.315070353592943
-0.010700000000000154,4.613373548859885
-0.011700000000000044,3.641466885852605
-0.012700000000000156,2.8166901980312877
-0.013700000000000045,2.202705493889862
-0.014700000000000157,1.3472295708614743
-0.015700000000000047,0.4627520661858534
-0.01670000000000016,-0.1465640906660178
-0.01770000000000005,-0.8708962761969166
-0.01870000000000016,-1.7839509491298113
-0.01970000000000005,-2.4417917035670533
-0.020700000000000163,-3.031726315610774
-0.021700000000000053,-3.8989443424280408
-0.022700000000000164,-4.647326620056646
-0.023700000000000054,-5.163696244507384
-0.024700000000000166,-5.933299191633965
-0.025700000000000056,-6.762320013354876
-0.026700000000000168,-7.28293377170521
-0.027700000000000058,-7.929456835743531
-0.02870000000000017,-8.765551213963766
-0.02970000000000006,-9.355485826007486
-0.03070000000000017,-9.895905542555932
-0.03170000000000006,-10.700876272179137
-0.03270000000000017,-11.399743654312466
-0.03370000000000006,-11.876501362366984
-0.034700000000000175,-12.603662970497613
-0.035700000000000065,-13.377510051523787
-0.03670000000000018,-13.878317851676012
-0.03770000000000007,-14.472496597619326
-0.03870000000000018,-15.278882038542395
-0.03970000000000007,-15.830619445489761
-0.04070000000000018,-16.325768400442524
-0.04170000000000007,-17.089712502369647
-0.04270000000000018,-17.72633258730891
-0.04370000000000007,-18.164893090267068
-0.044700000000000184,-18.858101627200938
-0.045700000000000074,-19.579604390132108
-0.046700000000000186,-20.03231200608892
-0.047700000000000076,-20.584049413036283
-0.04870000000000019,-21.362140627962056
-0.04970000000000008,-21.885583808912116
-0.05070000000000019,-22.352438537867577
-0.05170000000000008,-23.1163826397947
-0.05270000000000019,-23.738855611735314
-0.05370000000000008,-24.149121888696175
-0.05470000000000019,-24.814036199632742
-0.05570000000000008,-25.535538962563912
-0.056700000000000195,-25.974099465522073
-0.057700000000000085,-26.525836872469437
-0.058700000000000196,-27.289780974396557
-0.059700000000000086,-27.799077042347974
-0.0607000000000002,-28.265931771303435
-0.06170000000000009,-29.001581647233255
-0.0627000000000002,-29.63820173217252
-0.06370000000000009,-30.04846800913338
-0.0647000000000002,-30.727529433068593
-0.06570000000000009,-31.449032195999767
-0.0667000000000002,-31.873445585959274
-0.0677000000000001,-32.439330105905285
-0.0687000000000002,-33.203274207832415
-0.0697000000000001,-33.698423162785176
-0.07070000000000021,-34.16527789174064
-0.0717000000000001,-34.8867806546718
-0.07270000000000021,-35.49510651361377
-0.0737000000000001,-35.90537279057463
-0.07470000000000021,-36.55613998851254
-0.0757000000000001,-37.27764275144372
-0.07670000000000021,-37.687909028404576
-0.0777000000000001,-38.253793548350586
-0.07870000000000021,-39.01773765027771
-0.0797000000000001,-39.52703371822913
-0.08070000000000022,-39.97974133418594
-0.0817000000000001,-40.729538323114404
-0.08270000000000022,-41.33786418205637
-0.08370000000000011,-41.76227757201589
-0.08470000000000022,-42.42719188295245
-0.08570000000000011,-43.134547532884966
-0.08670000000000022,-43.57310803584313
-0.08770000000000011,-44.124845442790495
-0.08870000000000022,-44.88878954471762
-0.08970000000000011,-45.38393849967037
-0.09070000000000022,-45.83664611562718
-0.09170000000000011,-46.586443104555656
-0.09270000000000023,-47.22306318949492
-0.09370000000000012,-47.619182353457134
-0.09470000000000023,-48.26994955139505
-0.09570000000000012,-48.96315808832892
-0.09670000000000023,-49.40171859128708
-0.09770000000000012,-49.95345599823444
-0.09870000000000023,-50.70325298716291
-0.09970000000000012,-51.19840194211567
-0.10070000000000023,-51.65110955807249
-0.10170000000000012,-52.386759434002315
-0.10270000000000024,-53.023379518941574
-0.10370000000000013,-53.419498682903786
-0.10470000000000024,-54.09856010683901
-0.10570000000000013,-54.82006286977017
-0.10670000000000024,-55.25862337272834
-0.10770000000000013,-55.838655005673
-0.10870000000000024,-56.61674622059877
-0.10970000000000013,-57.12604228855018
-0.11070000000000024,-57.6070441305043
-0.11170000000000013,-58.38513534543006
-0.11270000000000002,-59.02175543036933
-0.11370000000000013,-59.44616882032884
-0.11470000000000002,-60.12523024426406
-0.11570000000000014,-60.84673300719523
-0.11670000000000003,-61.28529351015339
-0.11770000000000014,-61.83703091710075
-0.11870000000000003,-62.60097501902788
-0.11970000000000014,-63.09612397398064
-0.12070000000000003,-63.57712581593475
-0.12170000000000014,-64.35521703086052
-0.12270000000000003,-64.99183711579978
-0.12370000000000014,-65.4162505057593
-0.12470000000000003,-66.10945904269316
-0.12570000000000014,-66.84510891862298
-0.12670000000000003,-67.2978165345798
-0.12770000000000015,-67.87784816752446
-0.12870000000000004,-68.65593938245023
-0.12970000000000015,-69.19352967639895
-0.13070000000000004,-69.67453151835305
-0.13170000000000015,-70.43847562028017
-0.13270000000000004,-71.06094859222078
-0.13370000000000015,-71.48536198218031
-0.13470000000000004,-72.17857051911416
-0.13570000000000015,-72.90007328204534
-0.13670000000000004,-73.33863378500351
-0.13770000000000016,-73.91866541794816
-0.13870000000000005,-74.68260951987529
-0.13970000000000016,-75.220199813824
-0.14070000000000005,-75.71534876877676
-0.14170000000000016,-76.49343998370253
-0.14270000000000005,-77.14420718164045
-0.14370000000000016,-77.55447345860131
-0.14470000000000005,-78.23353488253653
-0.14570000000000016,-78.99747898446365
-0.14670000000000005,-79.45018660042047
-0.14770000000000016,-80.05851245936242
-0.14870000000000005,-80.8931921262828
-0.14970000000000017,-81.44492953323017
-0.15070000000000006,-81.94007848818292
-0.15170000000000017,-82.70402259011003
-0.15270000000000006,-83.34064267504931
-0.15370000000000017,-83.75090895201016
-0.15470000000000006,-84.44411748894404
-0.15570000000000017,-85.23635581686847
-0.15670000000000006,-85.67491631982661
-0.15770000000000017,-86.26909506576993
-0.15870000000000006,-87.06133339369435
-0.15970000000000018,-87.61307080064172
-0.16070000000000007,-88.12236686859313
-0.16170000000000018,-88.95704653551351
-0.16270000000000007,-89.62196084645008
-0.16370000000000018,-90.06052134940825
-0.16470000000000007,-90.76787699934074
-0.16570000000000018,-91.51767398826922
-0.16670000000000007,-91.98452871722468
-0.16770000000000018,-92.53626612417206
-0.16870000000000007,-93.32850445209648
-0.16970000000000018,-93.89438897204248
-0.17070000000000007,-94.38953792699526
-0.17170000000000019,-95.19592336791831
-0.17270000000000008,-95.88913190485218
-0.1737000000000002,-96.38428085980493
-0.17470000000000008,-97.21896052672531
-0.1757000000000002,-97.96875751565379
-0.17670000000000008,-98.4214651316106
-0.1777000000000002,-98.97320253855796
-0.17870000000000008,-99.69470530148914
-0.1797000000000002,-100.17570714344325
-0.18070000000000008,-100.61426764640142
-0.1817000000000002,-101.34991752233122
-0.18270000000000008,-102.05727317226375
-0.1837000000000002,-102.5807163532138
-0.1847000000000001,-103.31636622914363
-0.1857000000000002,-104.05201610507345
-0.1867000000000001,-104.49057660803162
-0.1877000000000002,-105.04231401497897
-0.1887000000000001,-105.76381677791014
-0.1897000000000002,-106.24481861986426
-0.1907000000000001,-106.78240891381296
-0.1917000000000001,-107.61708858073334
-0.19269999999999998,-108.29615000466856
-0.1937000000000001,-108.76300473362402
-0.19469999999999998,-109.47036038355654
-0.1957000000000001,-110.2767458244796
-0.19669999999999999,-110.82848323142699
-0.1977000000000001,-111.52169176836084
-0.1987,-112.41295988727582
-0.1997000000000001,-113.09202131121103
-0.2007,-113.71449428315165
-0.2017000000000001,-114.57746817606933
-0.2027,-115.19994114800993
-0.2037000000000001,-115.63850165096811
-0.2047,-116.36000441389926
-0.2057000000000001,-117.13809562882503
-0.2067,-117.64739169677647
-0.2077000000000001,-118.3406002337103
-0.2087,-119.16113278763203
-0.2097000000000001,-119.64213462958614
-0.2107,-120.10898935854159
-0.2117000000000001,-120.9153747994647
-0.2127,-121.59443622339991
-0.2137000000000001,-122.075438065354
-0.2147,-122.83938216728113
-0.2157000000000001,-123.68820894720017
-0.2167,-124.19750501515158
-0.21770000000000012,-124.86241932608814
-0.2187,-125.73954033200447
-0.21970000000000012,-126.33371907794778
-0.2207,-126.89960359789379
-0.22170000000000012,-127.72013615181551
-0.2227,-128.4416389147467
-0.22370000000000012,-128.9226407567008
-0.2247,-129.70073197162657
-0.22570000000000012,-130.50711741254963
-0.2267,-131.04470770649834
-0.22770000000000012,-131.69547490443625
-0.22870000000000001,-132.53015457135663
-0.22970000000000013,-133.11018620430133
-0.23070000000000002,-133.60533515925405
-0.23170000000000013,-134.44001482617443
-0.23270000000000002,-135.3029887190921
-0.23370000000000013,-135.86887323903812
-0.23470000000000002,-136.70355290595847
-0.23570000000000013,-137.52408545988024
-0.23670000000000002,-138.07582286682756
-0.2376999999999999,-138.76903140376146
-0.23870000000000002,-139.68859374867372
-0.2396999999999999,-140.28277249461703
-0.24070000000000003,-140.83450990156442
-0.24169999999999991,-141.61260111649017
-0.24270000000000003,-142.31995676642268
-0.24369999999999992,-142.8858412863687
-0.24470000000000003,-143.5931969363012
-0.24569999999999992,-144.44202371622026
-0.24670000000000003,-145.00790823616626
-0.24769999999999992,-145.57379275611228
-0.24870000000000003,-146.5640906660178
-0.24969999999999992,-147.1299751859638
-0.25070000000000003,-147.6958597059098
-0.2516999999999999,-148.54468648582886
-0.25270000000000004,-149.25204213576137
-0.2536999999999999,-149.8179266557074
-0.25470000000000004,-150.5252823056399
-0.2556999999999999,-151.37410908555893
-0.25670000000000004,-152.22293586547795
-0.25769999999999993,-152.93029151541046
-0.25870000000000004,-153.77911829532948
-0.25969999999999993,-154.3450028152755
-0.26070000000000004,-154.9108873352215
-0.26169999999999993,-155.61824298515404
-0.26270000000000004,-156.18412750510007
-0.26369999999999993,-156.60854089505958
-0.26470000000000005,-157.31589654499206
-0.26569999999999994,-158.02325219492457
-0.26670000000000005,-158.5891367148706
-0.26769999999999994,-159.43796349478964
-0.26870000000000005,-160.42826140469515
-0.26969999999999994,-160.99414592464117
-0.27070000000000005,-161.5600304445872
-0.27169999999999994,-162.40885722450622
-0.27270000000000005,-163.11621287443873
-0.27369999999999994,-163.68209739438475
-0.27470000000000006,-164.53092417430375
-0.27569999999999995,-165.3797509542228
-0.27670000000000006,-166.0871066041553
-0.27769999999999995,-166.79446225408785
-0.27870000000000006,-167.92623129397984
-0.27969999999999995,-168.63358694391238
-0.28070000000000006,-169.3409425938449
-0.28169999999999995,-170.33124050375042
-0.28270000000000006,-171.03859615368293
-0.28369999999999995,-171.60448067362896
-0.28470000000000006,-172.31183632356147
-0.28569999999999995,-173.16066310348046
-0.28670000000000007,-173.72654762342648
-0.28769999999999996,-174.43390327335902
-0.28870000000000007,-175.28273005327804
-0.28969999999999996,-175.84861457322407
-0.29070000000000007,-176.55597022315658
-0.29169999999999996,-177.4047970030756
-0.29270000000000007,-178.1121526530081
-0.29369999999999996,-178.67803717295413
-0.2947000000000001,-179.38539282288664
-0.29569999999999996,-180.23421960280567
-0.2967000000000001,-180.8001041227517
-0.29769999999999996,-181.5074597726842
-0.2987000000000001,-182.35628655260325
-0.29969999999999997,-183.06364220253573
-0.3007000000000001,-183.62952672248176
-0.30169999999999997,-184.47835350240078
-0.3027000000000001,-185.1857091523333
-0.30369999999999997,-185.7515936722793
-0.3047000000000001,-186.60042045219836
-0.30569999999999997,-187.44924723211736
-0.3067000000000001,-187.87366062207687
-0.3077,-188.58101627200938
-0.3087000000000001,-189.57131418191491
-0.3097,-190.27866983184742
-0.3107000000000001,-190.98602548177996
-0.3117,-191.9763233916855
-0.3127000000000001,-192.683679041618
-0.3137,-193.249563561564
-0.3147000000000001,-194.09839034148303
-0.3157,-194.94721712140205
-0.3167000000000001,-195.51310164134807
-0.3177,-196.2204572912806
-0.3187000000000001,-197.0692840711996
-0.3197,-197.63516859114563
-0.3207000000000001,-198.05958198110514
-0.3217,-198.90840876102413
-0.3227000000000001,-199.61576441095667
-0.3237,-200.18164893090267
-0.3247000000000001,-201.03047571082172
-0.3257,-201.87930249074074
-0.3267000000000001,-202.44518701068677
-0.3277,-203.15254266061928
-0.3287000000000001,-204.0013694405383
-0.3297,-204.5672539604843
-0.3307000000000001,-205.13313848043032
-0.3317,-205.98196526034934
-0.3327000000000001,-206.68932091028185
-0.3337,-206.97226317025488
-0.3347000000000001,-207.67961882018741
-0.3357,-208.52844560010638
-0.3367000000000001,-209.0943301200524
-0.3377,-209.8016857699849
-0.3387000000000001,-210.65051254990397
-0.3397,-211.21639706985
-0.3407000000000001,-211.782281589796
-0.3417,-212.631108369715
-0.3427000000000001,-213.33846401964755
-0.3437,-213.90434853959354
-0.3447000000000001,-214.61170418952605
-0.3457,-215.31905983945856
-0.3467000000000001,-215.7434732294181
-0.3477,-216.3093577493641
-0.3487000000000001,-217.15818452928315
-0.3497,-217.58259791924263
-0.3507000000000001,-218.14848243918865
-0.3517,-218.99730921910768
-0.3527000000000001,-219.5631937390537
-0.3537,-220.1290782589997
-0.3547000000000001,-220.83643390893224
-0.3557,-221.54378955886475
-0.35670000000000013,-222.10967407881074
-0.3577,-222.81702972874328
-0.35870000000000013,-223.6658565086623
-0.3597,-224.2317410286083
-0.36070000000000013,-224.79762554855435
-0.3617,-225.50498119848683
-0.3626999999999999,-226.07086571843288
-0.3637,-226.49527910839237
-0.3646999999999999,-227.2026347583249
-0.3657,-227.9099904082574
-0.3666999999999999,-228.47587492820347
-0.3677,-229.32470170812243
-0.3686999999999999,-230.31499961802797
-0.36970000000000003,-230.880884137974
-0.3706999999999999,-231.44676865792
-0.37170000000000003,-232.29559543783904
-0.3726999999999999,-232.86147995778504
-0.37370000000000003,-233.28589334774458
-0.3746999999999999,-233.99324899767706
-0.37570000000000003,-234.84207577759608
-0.3766999999999999,-235.26648916755556
-0.37770000000000004,-235.69090255751513
-0.3786999999999999,-236.3982582074476
-0.37970000000000004,-236.6812004674206
-0.3806999999999999,-236.96414272739366
-0.38170000000000004,-237.38855611735315
-0.38269999999999993,-237.9544406372992
-0.38370000000000004,-238.2373828972722
-0.38469999999999993,-238.94473854720468
-0.38570000000000004,-239.5106230671507
-0.38669999999999993,-238.2373828972722
-0.38570000000000004,-235.12501803756908
-0.38469999999999993,-232.29559543783904
-0.38370000000000004,-229.32470170812243
-0.38269999999999993,-226.49527910839237
-0.38170000000000004,-223.9487987686353
-0.3806999999999999,-221.26084729889175
-0.37970000000000004,-218.57289582914817
-0.3786999999999999,-216.0264154893911
-0.37770000000000004,-213.47993514963403
-0.3766999999999999,-210.79198367989048
-0.37570000000000003,-208.24550334013338
-0.3746999999999999,-205.69902300037634
-0.37370000000000003,-203.01107153063276
-0.3726999999999999,-200.3231200608892
-0.37170000000000003,-197.91811085111863
-0.3706999999999999,-195.51310164134807
-0.36970000000000003,-192.966621301591
-0.3686999999999999,-190.70308322180696
-0.3677,-188.4395451420229
-0.3666999999999999,-185.89306480226583
-0.3657,-183.62952672248176
-0.3646999999999999,-181.36598864269772
-0.3637,-178.81950830294062
-0.3626999999999999,-176.55597022315658
-0.3617,-174.2924321433725
-0.36070000000000013,-172.0288940635885
-0.3597,-169.6238848538179
-0.35870000000000013,-167.6432890340068
-0.3577,-165.6626932141958
-0.35670000000000013,-163.25768400442522
-0.3557,-160.99414592464117
-0.3547000000000001,-159.15502123481662
-0.3537,-156.89148315503257
-0.3527000000000001,-154.76941620523502
-0.3517,-152.78882038542397
-0.3507000000000001,-150.8082245656129
-0.3497,-148.54468648582886
-0.3487000000000001,-146.4226195360313
-0.3477,-144.44202371622026
-0.3467000000000001,-142.31995676642268
-0.3457,-140.2403311556211
-0.3447000000000001,-138.3587651268006
-0.3437,-136.32158085499492
-0.3427000000000001,-134.28439658318928
-0.3417,-132.5443016843553
-0.3407000000000001,-130.6061472035402
-0.3397,-128.35675623675476
-0.3387000000000001,-126.61666133792076
-0.3377,-124.89071355208544
-0.3367000000000001,-122.91011773227437
-0.3357,-121.15587572044174
-0.3347000000000001,-119.5996932905902
-0.3337,-117.78886282676295
-0.3327000000000001,-115.90729679794246
-0.3317,-114.23793746410173
-0.3307000000000001,-112.41295988727582
-0.3297,-110.43236406746476
-0.3287000000000001,-108.79129895962132
-0.3277,-107.17852807777518
-0.3267000000000001,-105.26866782295738
-0.3257,-103.57101426311934
-0.3247000000000001,-102.04312605926509
-0.3237,-100.23229559543785
-0.3227000000000001,-98.4214651316106
-0.3217,-96.92187115375367
-0.3207000000000001,-95.25251181991293
-0.3197,-93.34265156509512
-0.3187000000000001,-91.84305758723818
-0.3177,-90.37175783537855
-0.3167000000000001,-88.57507448454994
-0.3157,-86.97645071570246
-0.3147000000000001,-85.59003364183472
-0.3137,-83.92067430799398
-0.3127000000000001,-82.25131497415322
-0.3117,-80.82245656128954
-0.3107000000000001,-79.28042124443665
-0.3097,-77.54032634560265
-0.3087000000000001,-76.11146793273898
-0.3077,-74.72505085887124
-0.3067000000000001,-73.09813286402644
-0.30569999999999997,-71.61268599916815
-0.3047000000000001,-70.29700449029367
-0.30369999999999997,-68.76911628643943
-0.3027000000000001,-67.19878674358924
-0.30169999999999997,-65.93969368670936
-0.3007000000000001,-64.53912949984297
-0.29969999999999997,-62.95465284399414
-0.2987000000000001,-61.6814126741156
-0.29769999999999996,-60.43646673023436
-0.2967000000000001,-58.894431413381476
-0.29569999999999996,-57.53630856551105
-0.2947000000000001,-56.36209818662306
-0.29369999999999996,-54.904945547762075
-0.29270000000000007,-53.433645795902436
-0.29169999999999996,-52.28772964301176
-0.29070000000000007,-51.000342360134574
-0.28969999999999996,-49.543189721273585
-0.28870000000000007,-48.35483222938696
-0.28769999999999996,-47.16647473750032
-0.28670000000000007,-45.75176343763528
-0.28569999999999995,-44.4643761547581
-0.28470000000000006,-43.34675422786472
-0.28369999999999995,-41.98863137999429
-0.28270000000000006,-40.630508532123855
-0.28169999999999995,-39.58362217022373
-0.28070000000000006,-38.39526467833709
-0.27969999999999995,-37.00884760446935
-0.27870000000000006,-35.90537279057463
-0.27769999999999995,-34.81604508967855
-0.27670000000000006,-33.41548090281216
-0.27569999999999995,-32.19882918492823
-0.27470000000000006,-31.20853127502271
-0.27369999999999994,-29.906996879146874
-0.27270000000000005,-28.619609596269694
-0.27169999999999994,-27.64345879936282
-0.27070000000000005,-26.483395533473487
-0.26969999999999994,-25.196008250596304
-0.26870000000000005,-24.16326900169483
-0.26769999999999994,-23.144676865792
