Potential V vs RHE, Current mA cm-2
0.013299999999999867,0.12787575439480064
0.012299999999999978,-0.14599820614607179
0.011299999999999866,-0.28619609596269696
0.010299999999999976,-0.3835282333934114
0.009299999999999864,-0.46289353731584
0.008299999999999974,-0.5064666453516832
0.007299999999999862,-0.5425417834982416
0.006299999999999972,-0.5750801433951374
0.00529999999999986,-0.6083258589419658
0.0042999999999999705,-0.6400153920589425
0.0032999999999998586,-0.6591139946071205
0.0022999999999999687,-0.672978165345798
0.0012999999999998568,-0.6883985185143269
0.00029999999999996696,-0.7074971210625048
-0.000700000000000145,-0.7254639545707907
-0.0017000000000000348,-0.7390451830494952
-0.0027000000000001467,-0.7414501922592658
-0.0037000000000000366,-0.7513531713583209
-0.0047000000000001485,-0.7674808801767823
-0.005700000000000038,-0.7783741571857431
-0.00670000000000015,-0.791530972274488
-0.00770000000000004,-0.7877112517648525
-0.008700000000000152,-0.7925212701843936
-0.009700000000000042,-0.807517209962963
-0.010700000000000154,-0.8209569673116808
-0.011700000000000044,-0.824352274431357
-0.012700000000000156,-0.8250596300812894
-0.013700000000000045,-0.8215228518316268
-0.014700000000000157,-0.8360943782202367
-0.015700000000000047,-0.8431679347195619
-0.01670000000000016,-0.8455729439293325
-0.01770000000000005,-0.845148530539373
-0.01870000000000016,-0.8431679347195619
-0.01970000000000005,-0.8605688837079019
-0.020700000000000163,-0.8632568351776454
-0.021700000000000053,-0.8617006527477938
-0.022700000000000164,-0.865944786647389
-0.023700000000000054,-0.8588712301480638
-0.024700000000000166,-0.8655203732574294
-0.025700000000000056,-0.8807992552959719
-0.026700000000000168,-0.8765551213963767
-0.027700000000000058,-0.8751404100965116
-0.02870000000000017,-0.8762721791364039
-0.02970000000000006,-0.8765551213963767
-0.03070000000000017,-0.8897119364851216
-0.03170000000000006,-0.8874483984053376
-0.03270000000000017,-0.8815066109459044
-0.03370000000000006,-0.8834872067657155
-0.034700000000000175,-0.894380483774676
-0.035700000000000065,-0.90272728044388
-0.03670000000000018,-0.889853407615108
-0.03770000000000007,-0.885609273715513
-0.03870000000000018,-0.88532633145554
-0.03970000000000007,-0.8914095900449596
-0.04070000000000018,-0.9073958277334346
-0.04170000000000007,-0.906971414343475
-0.04270000000000018,-0.8935316569947571
-0.04370000000000007,-0.8928243013448246
-0.044700000000000184,-0.8986246176742713
-0.045700000000000074,-0.9034346360938125
-0.046700000000000186,-0.9124887884129486
-0.047700000000000076,-0.9007466846240689
-0.04870000000000019,-0.9000393289741364
-0.04970000000000008,-0.904424934003718
-0.05070000000000019,-0.9081031833833669
-0.05170000000000008,-0.9110740771130835
-0.05270000000000019,-0.9038590494837719
-0.05370000000000008,-0.9013125691440148
-0.05470000000000019,-0.9096593658132186
-0.05570000000000008,-0.9157426244026382
-0.056700000000000195,-0.9119229038930027
-0.057700000000000085,-0.9100837792031781
-0.058700000000000196,-0.9056981741735964
-0.059700000000000086,-0.9093764235532455
-0.0607000000000002,-0.9174402779624763
-0.06170000000000009,-0.9280506127114639
-0.0627000000000002,-0.9109326059830971
-0.06370000000000009,-0.9081031833833669
-0.0647000000000002,-0.9199867583022334
-0.06570000000000009,-0.9338509290409107
-0.0667000000000002,-0.9413488989301954
-0.0677000000000001,-0.90838612564334
-0.0687000000000002,-0.9136205574528405
-0.0697000000000001,-0.9164499800525707
-0.07070000000000021,-0.927201785931545
-0.0717000000000001,-0.9273432570615314
-0.07270000000000021,-0.9256456035016934
-0.0737000000000001,-0.925221190111734
-0.07470000000000021,-0.9304556219212347
-0.0757000000000001,-0.9369632939006136
-0.07670000000000021,-0.9410659566702223
-0.0777000000000001,-0.9308800353111941
-0.07870000000000021,-0.92578707463168
-0.0797000000000001,-0.9403586010202899
-0.08070000000000022,-0.9472906863896284
-0.0817000000000001,-0.9441783215299254
-0.08270000000000022,-0.9376706495505462
-0.08370000000000011,-0.9407830144102494
-0.08470000000000022,-0.9463003884797231
-0.08570000000000011,-0.9474321575196151
-0.08670000000000022,-0.9526665893291157
-0.08770000000000011,-0.9516762914192101
-0.08870000000000022,-0.945734503959777
-0.08970000000000011,-0.9530910027190752
-0.09070000000000022,-0.96341839520809
-0.09170000000000011,-0.9669551734577525
-0.09270000000000023,-0.96341839520809
-0.09370000000000012,-0.9646916353779685
-0.09470000000000023,-0.9641257508580224
-0.09570000000000012,-0.967662529107685
-0.09670000000000023,-0.9771410948167809
-0.09770000000000012,-0.9738872588270913
-0.09870000000000023,-0.9678040002376715
-0.09970000000000012,-0.9761507969068753
-0.10070000000000023,-0.9911467366854447
-0.10170000000000012,-0.9914296789454178
-0.10270000000000024,-0.9929858613752693
-0.10370000000000013,-0.9854878914859844
-0.10470000000000024,-0.983082882276214
-0.10570000000000013,-1.0002008890045808
-0.10670000000000024,-1.0028888404743244
-0.10770000000000013,-1.007274445503906
-0.10870000000000024,-1.0034547249942705
-0.10970000000000013,-1.008689156803771
-0.11070000000000024,-1.0207142028526242
-0.11170000000000013,-1.0214215585025566
-0.11270000000000002,-1.014772415393191
-0.11370000000000013,-1.0177433091229073
-0.11470000000000002,-1.0248168656222325
-0.11570000000000014,-1.0368419116710854
-0.11670000000000003,-1.0382566229709504
-0.11770000000000014,-1.035568671501207
-0.11870000000000003,-1.0385395652309235
-0.11970000000000014,-1.0521207937096277
-0.12070000000000003,-1.0539599183994524
-0.12170000000000014,-1.062023772808683
-0.12270000000000003,-1.051837851449655
-0.12370000000000014,-1.0541013895294389
-0.12470000000000003,-1.06457025314844
-0.12570000000000014,-1.072492636427684
-0.12670000000000003,-1.0822541443967533
-0.12770000000000015,-1.0829615000466857
-0.12870000000000004,-1.0866397494263347
-0.12970000000000015,-1.0840932690865777
-0.13070000000000004,-1.0959768440054438
-0.13170000000000015,-1.0964012573954034
-0.13270000000000004,-1.0995136222551065
-0.13370000000000015,-1.1017771603348907
-0.13470000000000004,-1.112811908473838
-0.13570000000000015,-1.1292225595522725
-0.13670000000000004,-1.1368620005715435
-0.13770000000000016,-1.1224319453129201
-0.13870000000000005,-1.1251198967826637
-0.13970000000000016,-1.1347399336217459
-0.14070000000000005,-1.152706767130032
-0.14170000000000016,-1.1535555939099509
-0.14270000000000005,-1.1585070834594786
-0.14370000000000016,-1.1510091135701939
-0.14470000000000005,-1.1570923721596134
-0.14570000000000016,-1.175766561317832
-0.14670000000000005,-1.180010695217427
-0.14770000000000016,-1.181142464257319
-0.14870000000000005,-1.1904795588364285
-0.14970000000000017,-1.206324325394917
-0.15070000000000006,-1.1954310483859558
-0.15170000000000017,-1.2037778450551597
-0.15270000000000006,-1.207739036694782
-0.15370000000000017,-1.21226611285435
-0.15470000000000006,-1.2191981982236886
-0.15570000000000017,-1.2302329463626358
-0.15670000000000006,-1.242682405801448
-0.15770000000000017,-1.2457947706611512
-0.15870000000000006,-1.256122163150166
-0.15970000000000018,-1.2491900777808274
-0.16070000000000007,-1.2626298351295453
-0.16170000000000018,-1.2606492393097344
-0.16270000000000007,-1.2678642669390459
-0.16370000000000018,-1.2747963523083847
-0.16470000000000007,-1.2889434653070349
-0.16570000000000018,-1.2988464444060903
-0.16670000000000007,-1.3052126452554829
-0.16770000000000018,-1.3114373749748889
-0.16870000000000007,-1.3107300193249565
-0.16970000000000018,-1.3190768159941602
-0.17070000000000007,-1.329687150743148
-0.17170000000000019,-1.3422780813119468
-0.17270000000000008,-1.3302530352630941
-0.1737000000000002,-1.3377510051523789
-0.17470000000000008,-1.3555763675306782
-0.1757000000000002,-1.3629328662899765
-0.17670000000000008,-1.3739676144289237
-0.1777000000000002,-1.378353219458505
-0.17870000000000008,-1.3787776328484649
-0.1797000000000002,-1.3917929768072232
-0.18070000000000008,-1.4053742052859275
-0.1817000000000002,-1.4107501082254146
-0.18270000000000008,-1.4141454153450908
-0.1837000000000002,-1.4147112998650369
-0.1847000000000001,-1.427443701563822
-0.1857000000000002,-1.4458349484620676
-0.1867000000000001,-1.462811484060448
-0.1877000000000002,-1.459982061460718
-0.1887000000000001,-1.4585673501608527
-0.1897000000000002,-1.461396772760583
-0.1907000000000001,-1.4797880196588282
-0.1917000000000001,-1.4953498439573436
-0.19269999999999998,-1.505252823056399
-0.1937000000000001,-1.510911668255859
-0.19469999999999998,-1.5165705134553193
-0.1957000000000001,-1.5307176264539697
-0.19669999999999999,-1.53920589425316
-0.1977000000000001,-1.54769416205235
-0.1987,-1.546279450752485
-0.1997000000000001,-1.5646706976507305
-0.2007,-1.585891367148706
-0.2017000000000001,-1.6042826140469515
-0.2027,-1.5943796349478963
-0.2037000000000001,-1.6085267479465466
-0.2047,-1.614185593146007
-0.2057000000000001,-1.6283327061446573
-0.2067,-1.6495533756426328
-0.2077000000000001,-1.6495533756426328
-0.2087,-1.6679446225408785
-0.2097000000000001,-1.6863358694391237
-0.2107,-1.6891652920388538
-0.2117000000000001,-1.7075565389370995
-0.2127,-1.7174595180361545
-0.2137000000000001,-1.7499978779330503
-0.2147,-1.7400948988339953
-0.2157000000000001,-1.766974413531431
-0.2167,-1.779706815230216
-0.21770000000000012,-1.7910245056291363
-0.2187,-1.8065863299276517
-0.21970000000000012,-1.8278069994256272
-0.2207,-1.8278069994256272
-0.22170000000000012,-1.850442380223468
-0.2227,-1.8702483384215782
-0.22370000000000012,-1.8858101627200938
-0.2247,-1.9056161209182045
-0.22570000000000012,-1.922592656516585
-0.2267,-1.9438133260145605
-0.22770000000000012,-1.9508868825138854
-0.22870000000000001,-1.967863418112266
-0.22970000000000013,-1.9890840876102414
-0.23070000000000002,-2.0244518701068674
-0.23170000000000013,-2.054160807404033
-0.23270000000000002,-2.0569902300037635
-0.23370000000000013,-2.0584049413036287
-0.23470000000000002,-2.0881138786007942
-0.23570000000000013,-2.124896372397285
-0.23670000000000002,-2.148946464494991
-0.2376999999999999,-2.1659230000933714
-0.23870000000000002,-2.197046648690402
-0.2396999999999999,-2.2111937616890525
-0.24070000000000003,-2.249390966785408
-0.24169999999999991,-2.2706116362833835
-0.24270000000000003,-2.284758749282034
-0.24369999999999992,-2.3116382639794697
-0.24470000000000003,-2.351250180375691
-0.24569999999999992,-2.388032674172182
-0.24670000000000003,-2.417741611469348
-0.24769999999999992,-2.4531093939659736
-0.24870000000000003,-2.4700859295643536
-0.24969999999999992,-2.49413602166206
-0.25070000000000003,-2.539406783257741
-0.2516999999999999,-2.5677010092550416
-0.25270000000000004,-2.6044835030515325
-0.2536999999999999,-2.631363017748968
-0.25470000000000004,-2.6808779132442444
-0.2556999999999999,-2.7233192522401954
-0.25670000000000004,-2.768590013835877
-0.25769999999999993,-2.8039577963325026
-0.25870000000000004,-2.8478138466283185
-0.25969999999999993,-2.89025518562427
-0.26070000000000004,-2.956746616717927
-0.26169999999999993,-2.9935291105144173
-0.26270000000000004,-3.031726315610774
-0.26369999999999993,-3.08124121110605
-0.26470000000000005,-3.135000240500921
-0.26569999999999994,-3.201491671594578
-0.26670000000000005,-3.265153680088505
-0.26769999999999994,-3.3344745337818917
-0.26870000000000005,-3.389648274476628
-0.26969999999999994,-3.4617985507697444
-0.27070000000000005,-3.5381929609624567
-0.27169999999999994,-3.6075138146558436
-0.27270000000000005,-3.6895670700480157
-0.27369999999999994,-3.7419113881430217
-0.27470000000000006,-3.833867622634249
-0.27569999999999995,-3.945629815323587
-0.27670000000000006,-4.05314787411333
-0.27769999999999995,-4.140859974704963
-0.27870000000000006,-4.26393985779322
-0.27969999999999995,-4.396922719980535
-0.28070000000000006,-4.512929046569467
-0.28169999999999995,-4.6487413313565105
-0.28270000000000006,-4.767577080545174
-0.28369999999999995,-4.9175364783308675
-0.28470000000000006,-5.104278369913052
-0.28569999999999995,-5.309411508393483
-0.28670000000000007,-5.466444462678503
-0.28769999999999996,-5.647527509061226
-0.28870000000000007,-5.871051894439902
-0.28969999999999996,-6.115796949316553
-0.29070000000000007,-6.339321334695229
-0.29169999999999996,-6.630751862467427
-0.29270000000000007,-6.910864699840705
-0.29369999999999996,-7.31688684290197
-0.2947000000000001,-7.589926123775921
-0.29569999999999996,-7.9025773210460954
-0.2967000000000001,-8.281719949409926
-0.29769999999999996,-8.71037747326903
-0.2987000000000001,-9.172988068324898
-0.29969999999999997,-9.724725475272262
-0.3007000000000001,-10.293439417818007
-0.30169999999999997,-10.97674497565282
-0.3027000000000001,-11.715224274182368
-0.30369999999999997,-12.51878029250571
-0.3047000000000001,-13.455319173016363
-0.30569999999999997,-14.500790823616628
-0.3067000000000001,-15.604265637511356
-0.3077,-16.835064468393938
-0.3087000000000001,-18.19318731626437
-0.3097,-19.678634181122664
-0.3107000000000001,-21.1782281589796
-0.3117,-22.819293266823045
-0.3127000000000001,-24.27644590568403
-0.3137,-25.832628335535567
-0.3147000000000001,-27.473693443379013
-0.3157,-29.14305277721976
-0.3167000000000001,-30.79826499806185
-0.3177,-32.32615320191609
-0.3187000000000001,-33.88233563176763
-0.3197,-35.297046931632664
-0.3207000000000001,-36.725905344496354
-0.3217,-38.06988107936814
-0.3227000000000001,-39.34312124924667
-0.3237,-40.51733162813464
-0.3247000000000001,-41.52177665103883
-0.3257,-42.540368786941656
-0.3267000000000001,-43.48822535785123
-0.3277,-44.4643761547581
-0.3287000000000001,-45.31320293467712
-0.3297,-46.38838352257455
-0.3307000000000001,-47.54844678846388
-0.3317,-47.93041883942744
-0.3327000000000001,-48.609480263362656
-0.3337,-50.109074241219595
-0.3347000000000001,-50.26469248420475
-0.3357,-50.84472411714942
-0.3367000000000001,-51.75013934906303
-0.3377,-52.49993633799151
-0.3387000000000001,-53.12240930993213
-0.3397,-53.91464763785655
-0.3407000000000001,-54.73518019177827
-0.3417,-55.527418519702685
-0.3427000000000001,-56.26306839563251
-0.3437,-56.98457115856368
-0.3447000000000001,-57.76266237348945
-0.3457,-58.72466605739767
-0.3467000000000001,-59.64422840230995
-0.3477,-60.30914271324652
-0.3487000000000001,-60.66282053821277
-0.3497,-61.29944062315204
-0.3507000000000001,-62.26144430706027
-0.3517,-63.08197686098199
-0.3527000000000001,-63.930803640901004
-0.3537,-64.85036598581328
-0.3547000000000001,-65.7557812177269
-0.3557,-66.36410707666887
-0.35670000000000013,-67.17049251759194
-0.3577,-67.55246456855551
-0.35870000000000013,-68.21737887949207
-0.3597,-69.02376432041514
-0.36070000000000013,-69.78770842234226
-0.3617,-70.57994675026669
-0.3626999999999999,-71.4004793041884
-0.3637,-72.37663010109527
-0.3646999999999999,-72.95666173403994
-0.3657,-73.60742893197786
-0.3666999999999999,-74.34307880790767
-0.3677,-74.96555177984828
-0.3686999999999999,-75.74364299477406
-0.36970000000000003,-76.42270441870929
-0.3706999999999999,-77.08761872964584
-0.37170000000000003,-77.79497437957838
-0.3726999999999999,-78.72868383748929
-0.37370000000000003,-79.43603948742181
-0.3746999999999999,-80.44048451032599
-0.37570000000000003,-81.43078242023151
-0.3766999999999999,-82.19472652215863
-0.37770000000000004,-82.9162292850898
-0.3786999999999999,-83.63773204802096
-0.37970000000000004,-83.96311564698992
-0.3806999999999999,-84.769501087913
-0.38170000000000004,-85.75979899781852
-0.38269999999999993,-86.4813017607497
-0.38370000000000004,-87.27354008867411
-0.38469999999999993,-88.60336871054724
-0.38570000000000004,-88.99948787450946
-0.38669999999999993,-88.63166293654454
-0.38570000000000004,-87.42915833165927
-0.38469999999999993,-86.29738929176723
-0.38370000000000004,-85.23635581686847
-0.38269999999999993,-84.42997037594539
-0.38170000000000004,-83.60943782202366
-0.3806999999999999,-82.59084568612084
-0.37970000000000004,-82.37863899114109
-0.3786999999999999,-81.58640066321666
-0.37770000000000004,-80.27071915434219
-0.3766999999999999,-79.45018660042047
-0.37570000000000003,-78.45988869051493
-0.3746999999999999,-77.8940041705689
-0.37370000000000003,-77.11591295564315
-0.3726999999999999,-76.26708617572413
-0.37170000000000003,-75.82852567276596
-0.3706999999999999,-74.04598943493602
-0.36970000000000003,-72.97080884703858
-0.3686999999999999,-72.06539361512496
-0.3677,-70.99021302722754
-0.3666999999999999,-70.50921118527343
-0.3657,-69.84429687433686
-0.3646999999999999,-69.06620565941108
-0.3637,-68.25982021848802
-0.3626999999999999,-66.94413870961354
-0.3617,-66.09531192969452
-0.36070000000000013,-65.5577216357458
-0.3597,-64.66645351683083
-0.35870000000000013,-63.421507572949594
-0.3577,-62.006796273084554
-0.35670000000000013,-60.761850329203334
-0.3557,-60.01205334027486
-0.3547000000000001,-59.09249099536258
-0.3537,-58.47001802342197
-0.3527000000000001,-57.8051037124854
-0.3517,-57.33824898352994
-0.3507000000000001,-56.546010655605514
-0.3497,-55.7820665536784
-0.3487000000000001,-54.933239773759375
-0.3477,-54.1551485588336
-0.3467000000000001,-53.348763117910536
-0.3457,-52.528230563988814
-0.3447000000000001,-51.509638428085985
-0.3437,-50.75984143915752
-0.3427000000000001,-49.995897337230396
-0.3417,-49.20365900930597
-0.3407000000000001,-48.4255677943802
-0.3397,-47.70406503144903
-0.3387000000000001,-47.03915072051247
-0.3377,-46.289353731584
-0.3367000000000001,-45.596145194650134
-0.3357,-44.97367222270952
-0.3347000000000001,-44.181433894785094
-0.3337,-43.36090134086337
-0.3327000000000001,-42.540368786941656
-0.3317,-41.77642468501453
-0.3307000000000001,-41.23883439106582
-0.3297,-40.729538323114404
-0.3287000000000001,-40.05047689917919
-0.3277,-39.39970970124127
-0.3267000000000001,-38.692354051308754
-0.3257,-38.04158685337084
-0.3247000000000001,-37.39081965543292
-0.3237,-36.754199570493654
-0.3227000000000001,-36.16002082455034
-0.3217,-35.56584207860703
-0.3207000000000001,-34.94336910666641
-0.3197,-34.25016056973254
-0.3187000000000001,-33.55695203279867
-0.3177,-33.00521462585131
-0.3167000000000001,-32.38274165391069
-0.3157,-31.717827342974125
-0.3147000000000001,-31.19438416202406
-0.3137,-30.62849964207804
-0.3127000000000001,-30.06261512213203
-0.3117,-29.39770081119546
-0.3107000000000001,-28.80352206525215
-0.3097,-28.209343319308836
-0.3087000000000001,-27.62931168636417
-0.3077,-27.14830984441005
-0.3067000000000001,-26.568278211465387
-0.30569999999999997,-25.90336390052882
-0.3047000000000001,-25.37992071957876
-0.30369999999999997,-24.799889086634096
-0.3027000000000001,-24.304740131681328
-0.30169999999999997,-23.724708498736668
-0.3007000000000001,-23.13052975279335
-0.29969999999999997,-22.67782213683654
-0.2987000000000001,-22.239261633878378
-0.29769999999999996,-21.786554017921564
-0.2967000000000001,-21.2631108369715
-0.29569999999999996,-20.838697447011988
-0.2947000000000001,-20.34354849205923
-0.29369999999999996,-19.820105311109163
-0.29270000000000007,-19.367397695152352
-0.29169999999999996,-19.027866983184744
-0.29070000000000007,-18.546865141230633
-0.28969999999999996,-18.03756907327922
-0.28870000000000007,-17.570714344323754
-0.28769999999999996,-17.174595180361546
-0.28670000000000007,-16.693593338407435
-0.28569999999999995,-16.28332706144657
-0.28470000000000006,-15.87306078448571
-0.28369999999999995,-15.505235846520803
-0.28270000000000006,-15.094969569559943
-0.28169999999999995,-14.769585970590983
-0.28070000000000006,-14.359319693630123
-0.27969999999999995,-13.997153600864674
-0.27870000000000006,-13.630743374199627
-0.27769999999999995,-13.185109314742142
-0.27670000000000006,-12.844163891474668
-0.27569999999999995,-12.477753664809624
-0.27470000000000006,-12.141052375441745
-0.27369999999999994,-11.801521663474135
-0.27270000000000005,-11.473308641905447
-0.27169999999999994,-11.149339754236355
-0.27070000000000005,-10.856494515164291
-0.26969999999999994,-10.485840154599652
-0.26870000000000005,-10.168944823429884
-0.26769999999999994,-9.866196605258766
