Potential V vs RHE, Current mA cm-2
0.013299999999999867,-0.2202705493889862
0.012299999999999978,-1.3107300193249565
0.011299999999999866,-2.052746096104168
0.010299999999999976,-2.576189277054232
0.009299999999999864,-3.0119203574126634
0.008299999999999974,-3.403795387475278
0.007299999999999862,-3.7532290785419424
0.006299999999999972,-4.0588067193127895
0.00529999999999986,-4.3205283097878215
0.0042999999999999705,-4.582249900262854
0.0032999999999998586,-4.887827541033701
0.0022999999999999687,-5.105693081212917
0.0012999999999998568,-5.279702571096316
0.00029999999999996696,-5.497568111275533
-0.000700000000000145,-5.629136262162981
-0.0017000000000000348,-5.80314575204638
-0.0027000000000001467,-5.9347139029338285
-0.0037000000000000366,-6.064867342521412
-0.0047000000000001485,-6.238876832404812
-0.005700000000000038,-6.37044498329226
-0.00670000000000015,-6.54445447317566
-0.00770000000000004,-6.632166573767292
-0.008700000000000152,-6.762320013354876
-0.009700000000000042,-6.850032113946507
-0.010700000000000154,-6.93774421453814
-0.011700000000000044,-7.024041603829907
-0.012700000000000156,-7.111753704421539
-0.013700000000000045,-7.199465805013171
-0.014700000000000157,-7.28576319430494
-0.015700000000000047,-7.37347529489657
-0.01670000000000016,-7.461187395488204
-0.01770000000000005,-7.5474847847799715
-0.01870000000000016,-7.591340835075788
-0.01970000000000005,-7.635196885371603
-0.020700000000000163,-7.679052935667419
-0.021700000000000053,-7.722908985963235
-0.022700000000000164,-7.7653503249591855
-0.023700000000000054,-7.809206375255003
-0.024700000000000166,-7.896918475846635
-0.025700000000000056,-7.940774526142452
-0.026700000000000168,-7.984630576438266
-0.027700000000000058,-8.027071915434218
-0.02870000000000017,-8.070927965730034
-0.02970000000000006,-8.11478401602585
-0.03070000000000017,-8.11478401602585
-0.03170000000000006,-8.11478401602585
-0.03270000000000017,-8.158640066321666
-0.03370000000000006,-8.202496116617484
-0.034700000000000175,-8.246352166913299
-0.035700000000000065,-8.288793505909249
-0.03670000000000018,-8.332649556205066
-0.03770000000000007,-8.376505606500881
-0.03870000000000018,-8.376505606500881
-0.03970000000000007,-8.376505606500881
-0.04070000000000018,-8.376505606500881
-0.04170000000000007,-8.376505606500881
-0.04270000000000018,-8.376505606500881
-0.04370000000000007,-8.4203616567967
-0.044700000000000184,-8.4203616567967
-0.045700000000000074,-8.464217707092514
-0.046700000000000186,-8.508073757388331
-0.047700000000000076,-8.508073757388331
-0.04870000000000019,-8.55051509638428
-0.04970000000000008,-8.508073757388331
-0.05070000000000019,-8.508073757388331
-0.05170000000000008,-8.508073757388331
-0.05270000000000019,-8.508073757388331
-0.05370000000000008,-8.508073757388331
-0.05470000000000019,-8.508073757388331
-0.05570000000000008,-8.55051509638428
-0.056700000000000195,-8.594371146680096
-0.057700000000000085,-8.594371146680096
-0.058700000000000196,-8.594371146680096
-0.059700000000000086,-8.594371146680096
-0.0607000000000002,-8.594371146680096
-0.06170000000000009,-8.594371146680096
-0.0627000000000002,-8.638227196975913
-0.06370000000000009,-8.594371146680096
-0.0647000000000002,-8.638227196975913
-0.06570000000000009,-8.638227196975913
-0.0667000000000002,-8.68208324727173
-0.0677000000000001,-8.68208324727173
-0.0687000000000002,-8.725939297567548
-0.0697000000000001,-8.68208324727173
-0.07070000000000021,-8.68208324727173
-0.0717000000000001,-8.638227196975913
-0.07270000000000021,-8.638227196975913
-0.0737000000000001,-8.638227196975913
-0.07470000000000021,-8.638227196975913
-0.0757000000000001,-8.68208324727173
-0.07670000000000021,-8.725939297567548
-0.0777000000000001,-8.725939297567548
-0.07870000000000021,-8.725939297567548
-0.0797000000000001,-8.68208324727173
-0.08070000000000022,-8.68208324727173
-0.0817000000000001,-8.638227196975913
-0.08270000000000022,-8.638227196975913
-0.08370000000000011,-8.68208324727173
-0.08470000000000022,-8.68208324727173
-0.08570000000000011,-8.68208324727173
-0.08670000000000022,-8.725939297567548
-0.08770000000000011,-8.725939297567548
-0.08870000000000022,-8.68208324727173
-0.08970000000000011,-8.68208324727173
-0.09070000000000022,-8.638227196975913
-0.09170000000000011,-8.638227196975913
-0.09270000000000023,-8.638227196975913
-0.09370000000000012,-8.638227196975913
-0.09470000000000023,-8.68208324727173
-0.09570000000000012,-8.68208324727173
-0.09670000000000023,-8.725939297567548
-0.09770000000000012,-8.725939297567548
-0.09870000000000023,-8.725939297567548
-0.09970000000000012,-8.725939297567548
-0.10070000000000023,-8.68208324727173
-0.10170000000000012,-8.68208324727173
-0.10270000000000024,-8.68208324727173
-0.10370000000000013,-8.68208324727173
-0.10470000000000024,-8.68208324727173
-0.10570000000000013,-8.725939297567548
-0.10670000000000024,-8.769795347863363
-0.10770000000000013,-8.769795347863363
-0.10870000000000024,-8.769795347863363
-0.10970000000000013,-8.769795347863363
-0.11070000000000024,-8.725939297567548
-0.11170000000000013,-8.725939297567548
-0.11270000000000002,-8.725939297567548
-0.11370000000000013,-8.725939297567548
-0.11470000000000002,-8.769795347863363
-0.11570000000000014,-8.769795347863363
-0.11670000000000003,-8.812236686859313
-0.11770000000000014,-8.812236686859313
-0.11870000000000003,-8.812236686859313
-0.11970000000000014,-8.812236686859313
-0.12070000000000003,-8.812236686859313
-0.12170000000000014,-8.769795347863363
-0.12270000000000003,-8.769795347863363
-0.12370000000000014,-8.769795347863363
-0.12470000000000003,-8.812236686859313
-0.12570000000000014,-8.85609273715513
-0.12670000000000003,-8.85609273715513
-0.12770000000000015,-8.85609273715513
-0.12870000000000004,-8.899948787450944
-0.12970000000000015,-8.85609273715513
-0.13070000000000004,-8.85609273715513
-0.13170000000000015,-8.85609273715513
-0.13270000000000004,-8.85609273715513
-0.13370000000000015,-8.85609273715513
-0.13470000000000004,-8.85609273715513
-0.13570000000000015,-8.899948787450944
-0.13670000000000004,-8.943804837746763
-0.13770000000000016,-8.943804837746763
-0.13870000000000005,-8.943804837746763
-0.13970000000000016,-8.943804837746763
-0.14070000000000005,-8.943804837746763
-0.14170000000000016,-8.943804837746763
-0.14270000000000005,-8.943804837746763
-0.14370000000000016,-8.943804837746763
-0.14470000000000005,-8.987660888042578
-0.14570000000000016,-8.987660888042578
-0.14670000000000005,-9.031516938338395
-0.14770000000000016,-9.031516938338395
-0.14870000000000005,-9.031516938338395
-0.14970000000000017,-9.073958277334345
-0.15070000000000006,-9.073958277334345
-0.15170000000000017,-9.073958277334345
-0.15270000000000006,-9.073958277334345
-0.15370000000000017,-9.073958277334345
-0.15470000000000006,-9.073958277334345
-0.15570000000000017,-9.11781432763016
-0.15670000000000006,-9.161670377925978
-0.15770000000000017,-9.205526428221793
-0.15870000000000006,-9.205526428221793
-0.15970000000000018,-9.205526428221793
-0.16070000000000007,-9.205526428221793
-0.16170000000000018,-9.161670377925978
-0.16270000000000007,-9.205526428221793
-0.16370000000000018,-9.205526428221793
-0.16470000000000007,-9.24938247851761
-0.16570000000000018,-9.24938247851761
-0.16670000000000007,-9.293238528813426
-0.16770000000000018,-9.335679867809377
-0.16870000000000007,-9.335679867809377
-0.16970000000000018,-9.335679867809377
-0.17070000000000007,-9.293238528813426
-0.17170000000000019,-9.24938247851761
-0.17270000000000008,-9.24938247851761
-0.1737000000000002,-9.24938247851761
-0.17470000000000008,-9.293238528813426
-0.1757000000000002,-9.335679867809377
-0.17670000000000008,-9.423391968401008
-0.1777000000000002,-9.423391968401008
-0.17870000000000008,-9.511104068992642
-0.1797000000000002,-9.511104068992642
-0.18070000000000008,-9.55496011928846
-0.1817000000000002,-9.55496011928846
-0.18270000000000008,-9.59740145828441
-0.1837000000000002,-9.59740145828441
-0.1847000000000001,-9.641257508580225
-0.1857000000000002,-9.685113558876042
-0.1867000000000001,-9.728969609171857
-0.1877000000000002,-9.772825659467674
-0.1887000000000001,-9.772825659467674
-0.1897000000000002,-9.772825659467674
-0.1907000000000001,-9.772825659467674
-0.1917000000000001,-9.772825659467674
-0.19269999999999998,-9.772825659467674
-0.1937000000000001,-9.772825659467674
-0.19469999999999998,-9.85912304875944
-0.1957000000000001,-9.902979099055257
-0.19669999999999999,-9.946835149351072
-0.1977000000000001,-9.946835149351072
-0.1987,-9.99069119964689
-0.1997000000000001,-9.946835149351072
-0.2007,-9.946835149351072
-0.2017000000000001,-9.946835149351072
-0.2027,-9.946835149351072
-0.2037000000000001,-9.99069119964689
-0.2047,-10.034547249942705
-0.2057000000000001,-10.078403300238522
-0.2067,-10.164700689530287
-0.2077000000000001,-10.164700689530287
-0.2087,-10.208556739826104
-0.2097000000000001,-10.208556739826104
-0.2107,-10.25241279012192
-0.2117000000000001,-10.296268840417738
-0.2127,-10.340124890713554
-0.2137000000000001,-10.382566229709504
-0.2147,-10.42642228000532
-0.2157000000000001,-10.470278330301136
-0.2167,-10.470278330301136
-0.21770000000000012,-10.514134380596953
-0.2187,-10.514134380596953
-0.21970000000000012,-10.514134380596953
-0.2207,-10.557990430892769
-0.22170000000000012,-10.557990430892769
-0.2227,-10.601846481188586
-0.22370000000000012,-10.644287820184536
-0.2247,-10.644287820184536
-0.22570000000000012,-10.688143870480351
-0.2267,-10.731999920776168
-0.22770000000000012,-10.775855971071984
-0.22870000000000001,-10.731999920776168
-0.22970000000000013,-10.731999920776168
-0.23070000000000002,-10.775855971071984
-0.23170000000000013,-10.819712021367803
-0.23270000000000002,-10.819712021367803
-0.23370000000000013,-10.863568071663616
-0.23470000000000002,-10.906009410659568
-0.23570000000000013,-10.949865460955383
-0.23670000000000002,-10.993721511251199
-0.2376999999999999,-11.037577561547016
-0.23870000000000002,-11.081433611842833
-0.2396999999999999,-11.123874950838783
-0.24070000000000003,-11.123874950838783
-0.24169999999999991,-11.1677310011346
-0.24270000000000003,-11.123874950838783
-0.24369999999999992,-11.1677310011346
-0.24470000000000003,-11.211587051430415
-0.24569999999999992,-11.255443101726232
-0.24670000000000003,-11.343155202317865
-0.24769999999999992,-11.385596541313816
-0.24870000000000003,-11.385596541313816
-0.24969999999999992,-11.42945259160963
-0.25070000000000003,-11.42945259160963
-0.2516999999999999,-11.42945259160963
-0.25270000000000004,-11.42945259160963
-0.2536999999999999,-11.473308641905447
-0.25470000000000004,-11.517164692201263
-0.2556999999999999,-11.56102074249708
-0.25670000000000004,-11.604876792792895
-0.25769999999999993,-11.604876792792895
-0.25870000000000004,-11.647318131788847
-0.25969999999999993,-11.647318131788847
-0.26070000000000004,-11.647318131788847
-0.26169999999999993,-11.647318131788847
-0.26270000000000004,-11.691174182084664
-0.26369999999999993,-11.691174182084664
-0.26470000000000005,-11.73503023238048
-0.26569999999999994,-11.82274233297211
-0.26670000000000005,-11.86659838326793
-0.26769999999999994,-11.909039722263879
-0.26870000000000005,-11.909039722263879
-0.26969999999999994,-11.909039722263879
-0.27070000000000005,-11.909039722263879
-0.27169999999999994,-11.909039722263879
-0.27270000000000005,-11.952895772559694
-0.27369999999999994,-11.952895772559694
-0.27470000000000006,-11.996751822855511
-0.27569999999999995,-12.040607873151327
-0.27670000000000006,-12.12831997374296
-0.27769999999999995,-12.12831997374296
-0.27870000000000006,-12.170761312738911
-0.27969999999999995,-12.170761312738911
-0.28070000000000006,-12.170761312738911
-0.28169999999999995,-12.170761312738911
-0.28270000000000006,-12.214617363034726
-0.28369999999999995,-12.258473413330542
-0.28470000000000006,-12.302329463626359
-0.28569999999999995,-12.346185513922174
-0.28670000000000007,-12.432482903213943
-0.28769999999999996,-12.432482903213943
-0.28870000000000007,-12.476338953509758
-0.28969999999999996,-12.476338953509758
-0.29070000000000007,-12.476338953509758
-0.29169999999999996,-12.476338953509758
-0.29270000000000007,-12.476338953509758
-0.29369999999999996,-12.520195003805576
-0.2947000000000001,-12.56405105410139
-0.29569999999999996,-12.651763154693022
-0.2967000000000001,-12.694204493688973
-0.29769999999999996,-12.694204493688973
-0.2987000000000001,-12.781916594280606
-0.29969999999999997,-12.781916594280606
-0.3007000000000001,-12.781916594280606
-0.30169999999999997,-12.781916594280606
-0.3027000000000001,-12.825772644576423
-0.30369999999999997,-12.825772644576423
-0.3047000000000001,-12.913484745168056
-0.30569999999999997,-12.99978213445982
-0.3067000000000001,-13.043638184755638
-0.3077,-13.087494235051453
-0.3087000000000001,-13.13135028534727
-0.3097,-13.175206335643086
-0.3107000000000001,-13.217647674639037
-0.3117,-13.217647674639037
-0.3127000000000001,-13.261503724934855
-0.3137,-13.349215825526485
-0.3147000000000001,-13.3930718758223
-0.3157,-13.47936926511407
-0.3167000000000001,-13.567081365705702
-0.3177,-13.654793466297335
-0.3187000000000001,-13.698649516593148
-0.3197,-13.698649516593148
-0.3207000000000001,-13.698649516593148
-0.3217,-13.741090855589102
-0.3227000000000001,-13.784946905884919
-0.3237,-13.872659006476551
-0.3247000000000001,-14.002812446064135
-0.3257,-14.090524546655764
-0.3267000000000001,-14.217848563643619
-0.3277,-14.26028990263957
-0.3287000000000001,-14.345172580631472
-0.3297,-14.401761032626075
-0.3307000000000001,-14.486643710617974
-0.3317,-14.529085049613924
-0.3327000000000001,-14.57152638860988
-0.3337,-14.65640906660178
-0.3347000000000001,-14.741291744593681
-0.3357,-14.868615761581536
-0.3367000000000001,-14.967645552572087
-0.3377,-15.01008689156804
-0.3387000000000001,-15.137410908555893
-0.3397,-15.179852247551842
-0.3407000000000001,-15.264734925543747
-0.3417,-15.349617603535648
-0.3427000000000001,-15.491088733522153
-0.3437,-15.575971411514052
-0.3447000000000001,-15.70329542850191
-0.3457,-15.830619445489761
-0.3467000000000001,-15.972090575476265
-0.3477,-16.099414592464115
-0.3487000000000001,-16.184297270456018
-0.3497,-16.269179948447924
-0.3507000000000001,-16.396503965435777
-0.3517,-16.495533756426326
-0.3527000000000001,-16.622857773414182
-0.3537,-16.70774045140608
-0.3547000000000001,-16.877505807389888
-0.3557,-17.061418276372343
-0.35670000000000013,-17.231183632356142
-0.3577,-17.358507649344002
-0.35870000000000013,-17.48583166633185
-0.3597,-17.627302796318357
-0.36070000000000013,-17.797068152302163
-0.3617,-17.924392169290012
-0.3626999999999999,-18.06586329927652
-0.3637,-18.23562865526032
-0.3646999999999999,-18.40539401124413
-0.3657,-18.631747819222536
-0.3666999999999999,-18.843954514202288
-0.3677,-19.01371987018609
-0.3686999999999999,-19.2400736781645
-0.36970000000000003,-19.409839034148305
-0.3706999999999999,-19.579604390132108
-0.37170000000000003,-19.763516859114564
-0.3726999999999999,-19.97572355409432
-0.37370000000000003,-20.202077362072725
-0.3746999999999999,-20.456725396048434
-0.37570000000000003,-20.683079204026836
-0.3766999999999999,-20.93772723800254
-0.37770000000000004,-21.2065223849769
-0.3786999999999999,-21.461170418952605
-0.37970000000000004,-21.67337711393236
-0.3806999999999999,-21.94217226090672
-0.38170000000000004,-22.196820294882425
-0.38269999999999993,-22.46561544185678
-0.38370000000000004,-22.776851927827092
-0.38469999999999993,-23.1163826397947
-0.38570000000000004,-23.427619125765005
-0.38669999999999993,-22.776851927827092
-0.38570000000000004,-20.980168576998494
-0.38469999999999993,-19.848399537106463
-0.38370000000000004,-19.01371987018609
-0.38269999999999993,-18.362952672248177
-0.38170000000000004,-17.797068152302163
-0.3806999999999999,-17.316066310348052
-0.37970000000000004,-16.877505807389888
-0.3786999999999999,-16.53797509542228
-0.37770000000000004,-16.141855931460068
-0.3766999999999999,-15.830619445489761
-0.37570000000000003,-15.533530072518102
-0.3746999999999999,-15.222293586547794
-0.37370000000000003,-14.925204213576137
-0.3726999999999999,-14.61396772760583
-0.37170000000000003,-14.345172580631472
-0.3706999999999999,-14.090524546655764
-0.36970000000000003,-13.784946905884919
-0.3686999999999999,-13.567081365705702
-0.3677,-13.3930718758223
-0.3666999999999999,-13.175206335643086
-0.3657,-12.955926084164007
-0.3646999999999999,-12.73806054398479
-0.3637,-12.520195003805576
-0.3626999999999999,-12.258473413330542
-0.3617,-12.040607873151327
-0.36070000000000013,-11.82274233297211
-0.3597,-11.604876792792895
-0.35870000000000013,-11.42945259160963
-0.3577,-11.255443101726232
-0.35670000000000013,-11.123874950838783
-0.3557,-10.949865460955383
-0.3547000000000001,-10.731999920776168
-0.3537,-10.557990430892769
-0.3527000000000001,-10.340124890713554
-0.3517,-10.164700689530287
-0.3507000000000001,-9.946835149351072
-0.3497,-9.772825659467674
-0.3487000000000001,-9.59740145828441
-0.3477,-9.467248018696827
-0.3467000000000001,-9.335679867809377
-0.3457,-9.161670377925978
-0.3447000000000001,-9.031516938338395
-0.3437,-8.812236686859313
-0.3427000000000001,-8.638227196975913
-0.3417,-8.464217707092514
-0.3407000000000001,-8.288793505909249
-0.3397,-8.11478401602585
-0.3387000000000001,-7.984630576438266
-0.3377,-7.853062425550818
-0.3367000000000001,-7.722908985963235
-0.3357,-7.5474847847799715
-0.3347000000000001,-7.37347529489657
-0.3337,-7.243321855308987
-0.3327000000000001,-7.024041603829907
-0.3317,-6.850032113946507
-0.3307000000000001,-6.6760226240631075
-0.3297,-6.54445447317566
-0.3287000000000001,-6.37044498329226
-0.3277,-6.282732882700628
-0.3267000000000001,-6.108723392817228
-0.3257,-5.977155241929781
-0.3247000000000001,-5.847001802342197
-0.3237,-5.672992312458796
-0.3227000000000001,-5.497568111275533
-0.3217,-5.323558621392133
-0.3207000000000001,-5.191990470504685
-0.3197,-5.017980980621284
-0.3187000000000001,-4.887827541033701
-0.3177,-4.756259390146253
-0.3167000000000001,-4.626105950558669
-0.3157,-4.494537799671222
-0.3147000000000001,-4.364384360083638
-0.3137,-4.146518819904423
-0.3127000000000001,-4.014950669016974
-0.3117,-3.840941179133574
-0.3107000000000001,-3.6655169779503103
-0.3097,-3.5353635383627267
-0.3087000000000001,-3.447651437771094
-0.3077,-3.273641947887695
-0.3067000000000001,-3.1859298472960624
-0.30569999999999997,-3.055776407708479
-0.3047000000000001,-2.924208256821031
-0.30369999999999997,-2.7501987669376318
-0.3027000000000001,-2.576189277054232
-0.30169999999999997,-2.4446211261667834
-0.3007000000000001,-2.2706116362833835
-0.29969999999999997,-2.095187435100119
-0.2987000000000001,-2.008890045808352
-0.29769999999999996,-1.8773218949209036
-0.2967000000000001,-1.7910245056291363
-0.29569999999999996,-1.6594563547416883
-0.2947000000000001,-1.5293029151541047
-0.29369999999999996,-1.3543031273607997
-0.29270000000000007,-1.2234423321232837
-0.29169999999999996,-1.0490084288499246
-0.29070000000000007,-0.9181476336124089
-0.28969999999999996,-0.7872868383748929
-0.28870000000000007,-0.7001406223032067
-0.28769999999999996,-0.5692798270656908
-0.28670000000000007,-0.48199213986401795
-0.28569999999999995,-0.3511313446265021
-0.28470000000000006,-0.2202705493889862
-0.28369999999999995,-0.08943804837746762
-0.28270000000000006,0.04140859974704963
-0.28169999999999995,0.21588494435940458
-0.28070000000000006,0.3467457395969205
-0.27969999999999995,0.43403342679859325
-0.27870000000000006,0.5211796428702795
-0.27769999999999995,0.6520404381077953
-0.27670000000000006,0.7393281253094681
-0.27569999999999995,0.8264743413811545
-0.27470000000000006,0.9573351366186703
-0.27369999999999994,1.0881959318561862
-0.27270000000000005,1.219056727093702
-0.27169999999999994,1.349917522331218
-0.27070000000000005,1.4373466806628774
-0.26969999999999994,1.5250587812545096
-0.26870000000000005,1.655212220842093
-0.26769999999999994,1.6990682711379093
-0.26670000000000005,1.8292217107254924
-0.26569999999999994,1.9169338113171246
