Sept. 13, 2024   08:47:29
Cyclic Voltammetry
File: c:/users/guazh/data/20240903_batch_252_500/2024-09-03-exp341\exp341-2024-09-13t08_34_41-h2koh\exp341_cv_50mvs_efin_-1700mv.bin
Data Source:  Experiment
Instrument Model:  CHI760E
Header: CV ran at 50 mVs
Note: 

Init E (V) = -1
High E (V) = -1
Low E (V) = -1.7
Final E (V) = -1
Init P/N = N
Scan Rate (V/s) = 0.05
Segment = 7
Sample Interval (V) = 0.001
Quiet Time (sec) = 60
Sensitivity (A/V) = 0.001
Comp R (ohm) = 2.5

Results:

Channel 1:
Segment 1:

Segment 2:

Segment 3:

Segment 4:

Segment 5:

Segment 6:

Segment 7:

Potential/V, Current/A

-1.000, 2.060e-7
-1.001, 3.145e-7
-1.002, 3.757e-7
-1.003, 4.191e-7
-1.004, 4.369e-7
-1.005, 4.655e-7
-1.006, 4.941e-7
-1.007, 5.207e-7
-1.008, 5.503e-7
-1.009, 5.661e-7
-1.010, 5.819e-7
-1.011, 6.421e-7
-1.012, 6.362e-7
-1.013, 6.954e-7
-1.014, 6.756e-7
-1.015, 6.914e-7
-1.016, 6.697e-7
-1.017, 7.250e-7
-1.018, 7.536e-7
-1.019, 7.644e-7
-1.020, 7.792e-7
-1.021, 8.009e-7
-1.022, 8.118e-7
-1.023, 8.394e-7
-1.024, 8.769e-7
-1.025, 8.798e-7
-1.026, 9.016e-7
-1.027, 8.966e-7
-1.028, 9.568e-7
-1.029, 8.996e-7
-1.030, 9.420e-7
-1.031, 9.272e-7
-1.032, 9.667e-7
-1.033, 9.903e-7
-1.034, 1.022e-6
-1.035, 1.006e-6
-1.036, 1.038e-6
-1.037, 1.052e-6
-1.038, 1.088e-6
-1.039, 1.095e-6
-1.040, 1.092e-6
-1.041, 1.102e-6
-1.042, 1.117e-6
-1.043, 1.198e-6
-1.044, 1.135e-6
-1.045, 1.186e-6
-1.046, 1.172e-6
-1.047, 1.194e-6
-1.048, 1.201e-6
-1.049, 1.262e-6
-1.050, 1.253e-6
-1.051, 1.265e-6
-1.052, 1.262e-6
-1.053, 1.292e-6
-1.054, 1.302e-6
-1.055, 1.328e-6
-1.056, 1.304e-6
-1.057, 1.387e-6
-1.058, 1.402e-6
-1.059, 1.380e-6
-1.060, 1.412e-6
-1.061, 1.400e-6
-1.062, 1.448e-6
-1.063, 1.489e-6
-1.064, 1.496e-6
-1.065, 1.474e-6
-1.066, 1.525e-6
-1.067, 1.502e-6
-1.068, 1.601e-6
-1.069, 1.564e-6
-1.070, 1.610e-6
-1.071, 1.600e-6
-1.072, 1.653e-6
-1.073, 1.644e-6
-1.074, 1.698e-6
-1.075, 1.699e-6
-1.076, 1.726e-6
-1.077, 1.775e-6
-1.078, 1.765e-6
-1.079, 1.787e-6
-1.080, 1.812e-6
-1.081, 1.807e-6
-1.082, 1.854e-6
-1.083, 1.891e-6
-1.084, 1.916e-6
-1.085, 1.931e-6
-1.086, 1.930e-6
-1.087, 1.975e-6
-1.088, 2.027e-6
-1.089, 2.021e-6
-1.090, 2.042e-6
-1.091, 2.112e-6
-1.092, 2.059e-6
-1.093, 2.142e-6
-1.094, 2.145e-6
-1.095, 2.209e-6
-1.096, 2.205e-6
-1.097, 2.266e-6
-1.098, 2.284e-6
-1.099, 2.311e-6
-1.100, 2.328e-6
-1.101, 2.389e-6
-1.102, 2.388e-6
-1.103, 2.455e-6
-1.104, 2.448e-6
-1.105, 2.506e-6
-1.106, 2.533e-6
-1.107, 2.568e-6
-1.108, 2.621e-6
-1.109, 2.629e-6
-1.110, 2.681e-6
-1.111, 2.693e-6
-1.112, 2.736e-6
-1.113, 2.777e-6
-1.114, 2.829e-6
-1.115, 2.828e-6
-1.116, 2.878e-6
-1.117, 2.911e-6
-1.118, 2.968e-6
-1.119, 2.965e-6
-1.120, 3.023e-6
-1.121, 3.036e-6
-1.122, 3.119e-6
-1.123, 3.121e-6
-1.124, 3.155e-6
-1.125, 3.197e-6
-1.126, 3.229e-6
-1.127, 3.280e-6
-1.128, 3.312e-6
-1.129, 3.384e-6
-1.130, 3.379e-6
-1.131, 3.421e-6
-1.132, 3.457e-6
-1.133, 3.506e-6
-1.134, 3.520e-6
-1.135, 3.594e-6
-1.136, 3.590e-6
-1.137, 3.656e-6
-1.138, 3.729e-6
-1.139, 3.756e-6
-1.140, 3.790e-6
-1.141, 3.831e-6
-1.142, 3.845e-6
-1.143, 3.892e-6
-1.144, 3.936e-6
-1.145, 3.948e-6
-1.146, 4.018e-6
-1.147, 4.049e-6
-1.148, 4.102e-6
-1.149, 4.076e-6
-1.150, 4.162e-6
-1.151, 4.157e-6
-1.152, 4.246e-6
-1.153, 4.264e-6
-1.154, 4.289e-6
-1.155, 4.340e-6
-1.156, 4.363e-6
-1.157, 4.399e-6
-1.158, 4.433e-6
-1.159, 4.497e-6
-1.160, 4.490e-6
-1.161, 4.578e-6
-1.162, 4.557e-6
-1.163, 4.650e-6
-1.164, 4.642e-6
-1.165, 4.700e-6
-1.166, 4.692e-6
-1.167, 4.737e-6
-1.168, 4.792e-6
-1.169, 4.802e-6
-1.170, 4.837e-6
-1.171, 4.871e-6
-1.172, 4.890e-6
-1.173, 4.913e-6
-1.174, 4.951e-6
-1.175, 4.964e-6
-1.176, 5.034e-6
-1.177, 5.023e-6
-1.178, 5.108e-6
-1.179, 5.100e-6
-1.180, 5.134e-6
-1.181, 5.120e-6
-1.182, 5.201e-6
-1.183, 5.218e-6
-1.184, 5.230e-6
-1.185, 5.283e-6
-1.186, 5.287e-6
-1.187, 5.274e-6
-1.188, 5.347e-6
-1.189, 5.339e-6
-1.190, 5.349e-6
-1.191, 5.396e-6
-1.192, 5.412e-6
-1.193, 5.476e-6
-1.194, 5.472e-6
-1.195, 5.536e-6
-1.196, 5.490e-6
-1.197, 5.535e-6
-1.198, 5.556e-6
-1.199, 5.567e-6
-1.200, 5.579e-6
-1.201, 5.605e-6
-1.202, 5.615e-6
-1.203, 5.666e-6
-1.204, 5.614e-6
-1.205, 5.657e-6
-1.206, 5.690e-6
-1.207, 5.689e-6
-1.208, 5.682e-6
-1.209, 5.725e-6
-1.210, 5.761e-6
-1.211, 5.758e-6
-1.212, 5.788e-6
-1.213, 5.815e-6
-1.214, 5.771e-6
-1.215, 5.783e-6
-1.216, 5.849e-6
-1.217, 5.843e-6
-1.218, 5.903e-6
-1.219, 5.862e-6
-1.220, 5.906e-6
-1.221, 5.905e-6
-1.222, 5.889e-6
-1.223, 5.937e-6
-1.224, 5.910e-6
-1.225, 5.946e-6
-1.226, 5.961e-6
-1.227, 5.972e-6
-1.228, 5.984e-6
-1.229, 6.044e-6
-1.230, 6.018e-6
-1.231, 6.066e-6
-1.232, 6.031e-6
-1.233, 6.081e-6
-1.234, 6.046e-6
-1.235, 6.086e-6
-1.236, 6.054e-6
-1.237, 6.065e-6
-1.238, 6.100e-6
-1.239, 6.111e-6
-1.240, 6.078e-6
-1.241, 6.112e-6
-1.242, 6.106e-6
-1.243, 6.121e-6
-1.244, 6.100e-6
-1.245, 6.139e-6
-1.246, 6.088e-6
-1.247, 6.113e-6
-1.248, 6.153e-6
-1.249, 6.095e-6
-1.250, 6.153e-6
-1.251, 6.115e-6
-1.252, 6.133e-6
-1.253, 6.108e-6
-1.254, 6.119e-6
-1.255, 6.131e-6
-1.256, 6.118e-6
-1.257, 6.082e-6
-1.258, 6.107e-6
-1.259, 6.029e-6
-1.260, 6.078e-6
-1.261, 6.052e-6
-1.262, 6.028e-6
-1.263, 6.027e-6
-1.264, 6.029e-6
-1.265, 5.993e-6
-1.266, 5.994e-6
-1.267, 5.952e-6
-1.268, 5.976e-6
-1.269, 5.908e-6
-1.270, 5.938e-6
-1.271, 5.907e-6
-1.272, 5.896e-6
-1.273, 5.836e-6
-1.274, 5.849e-6
-1.275, 5.813e-6
-1.276, 5.800e-6
-1.277, 5.743e-6
-1.278, 5.800e-6
-1.279, 5.723e-6
-1.280, 5.740e-6
-1.281, 5.696e-6
-1.282, 5.687e-6
-1.283, 5.639e-6
-1.284, 5.599e-6
-1.285, 5.581e-6
-1.286, 5.579e-6
-1.287, 5.561e-6
-1.288, 5.564e-6
-1.289, 5.517e-6
-1.290, 5.542e-6
-1.291, 5.432e-6
-1.292, 5.441e-6
-1.293, 5.387e-6
-1.294, 5.352e-6
-1.295, 5.368e-6
-1.296, 5.296e-6
-1.297, 5.305e-6
-1.298, 5.324e-6
-1.299, 5.267e-6
-1.300, 5.252e-6
-1.301, 5.185e-6
-1.302, 5.176e-6
-1.303, 5.155e-6
-1.304, 5.149e-6
-1.305, 5.127e-6
-1.306, 5.113e-6
-1.307, 5.093e-6
-1.308, 5.102e-6
-1.309, 5.039e-6
-1.310, 5.071e-6
-1.311, 5.059e-6
-1.312, 5.019e-6
-1.313, 5.047e-6
-1.314, 5.029e-6
-1.315, 5.035e-6
-1.316, 4.980e-6
-1.317, 5.028e-6
-1.318, 4.987e-6
-1.319, 5.004e-6
-1.320, 5.002e-6
-1.321, 5.054e-6
-1.322, 5.001e-6
-1.323, 5.064e-6
-1.324, 4.998e-6
-1.325, 5.097e-6
-1.326, 5.011e-6
-1.327, 5.053e-6
-1.328, 5.053e-6
-1.329, 5.070e-6
-1.330, 5.096e-6
-1.331, 5.103e-6
-1.332, 5.100e-6
-1.333, 5.147e-6
-1.334, 5.132e-6
-1.335, 5.188e-6
-1.336, 5.165e-6
-1.337, 5.222e-6
-1.338, 5.237e-6
-1.339, 5.246e-6
-1.340, 5.316e-6
-1.341, 5.332e-6
-1.342, 5.316e-6
-1.343, 5.363e-6
-1.344, 5.397e-6
-1.345, 5.398e-6
-1.346, 5.444e-6
-1.347, 5.422e-6
-1.348, 5.515e-6
-1.349, 5.482e-6
-1.350, 5.583e-6
-1.351, 5.562e-6
-1.352, 5.595e-6
-1.353, 5.604e-6
-1.354, 5.669e-6
-1.355, 5.689e-6
-1.356, 5.715e-6
-1.357, 5.741e-6
-1.358, 5.803e-6
-1.359, 5.830e-6
-1.360, 5.891e-6
-1.361, 5.853e-6
-1.362, 5.952e-6
-1.363, 5.964e-6
-1.364, 5.997e-6
-1.365, 6.059e-6
-1.366, 6.074e-6
-1.367, 6.117e-6
-1.368, 6.149e-6
-1.369, 6.220e-6
-1.370, 6.252e-6
-1.371, 6.282e-6
-1.372, 6.309e-6
-1.373, 6.378e-6
-1.374, 6.405e-6
-1.375, 6.460e-6
-1.376, 6.485e-6
-1.377, 6.535e-6
-1.378, 6.583e-6
-1.379, 6.625e-6
-1.380, 6.658e-6
-1.381, 6.751e-6
-1.382, 6.750e-6
-1.383, 6.841e-6
-1.384, 6.850e-6
-1.385, 6.952e-6
-1.386, 6.958e-6
-1.387, 7.015e-6
-1.388, 7.057e-6
-1.389, 7.130e-6
-1.390, 7.147e-6
-1.391, 7.226e-6
-1.392, 7.299e-6
-1.393, 7.357e-6
-1.394, 7.369e-6
-1.395, 7.462e-6
-1.396, 7.486e-6
-1.397, 7.594e-6
-1.398, 7.664e-6
-1.399, 7.693e-6
-1.400, 7.732e-6
-1.401, 7.810e-6
-1.402, 7.839e-6
-1.403, 7.966e-6
-1.404, 7.962e-6
-1.405, 8.066e-6
-1.406, 8.080e-6
-1.407, 8.162e-6
-1.408, 8.224e-6
-1.409, 8.307e-6
-1.410, 8.359e-6
-1.411, 8.421e-6
-1.412, 8.481e-6
-1.413, 8.584e-6
-1.414, 8.603e-6
-1.415, 8.738e-6
-1.416, 8.736e-6
-1.417, 8.859e-6
-1.418, 8.931e-6
-1.419, 8.995e-6
-1.420, 9.053e-6
-1.421, 9.129e-6
-1.422, 9.163e-6
-1.423, 9.318e-6
-1.424, 9.369e-6
-1.425, 9.483e-6
-1.426, 9.491e-6
-1.427, 9.583e-6
-1.428, 9.647e-6
-1.429, 9.768e-6
-1.430, 9.829e-6
-1.431, 9.942e-6
-1.432, 9.993e-6
-1.433, 1.011e-5
-1.434, 1.018e-5
-1.435, 1.026e-5
-1.436, 1.034e-5
-1.437, 1.044e-5
-1.438, 1.054e-5
-1.439, 1.065e-5
-1.440, 1.068e-5
-1.441, 1.084e-5
-1.442, 1.091e-5
-1.443, 1.102e-5
-1.444, 1.107e-5
-1.445, 1.119e-5
-1.446, 1.127e-5
-1.447, 1.140e-5
-1.448, 1.149e-5
-1.449, 1.163e-5
-1.450, 1.172e-5
-1.451, 1.178e-5
-1.452, 1.188e-5
-1.453, 1.203e-5
-1.454, 1.211e-5
-1.455, 1.223e-5
-1.456, 1.233e-5
-1.457, 1.241e-5
-1.458, 1.259e-5
-1.459, 1.269e-5
-1.460, 1.278e-5
-1.461, 1.290e-5
-1.462, 1.302e-5
-1.463, 1.313e-5
-1.464, 1.327e-5
-1.465, 1.337e-5
-1.466, 1.352e-5
-1.467, 1.365e-5
-1.468, 1.380e-5
-1.469, 1.389e-5
-1.470, 1.404e-5
-1.471, 1.415e-5
-1.472, 1.432e-5
-1.473, 1.441e-5
-1.474, 1.459e-5
-1.475, 1.472e-5
-1.476, 1.491e-5
-1.477, 1.501e-5
-1.478, 1.516e-5
-1.479, 1.532e-5
-1.480, 1.548e-5
-1.481, 1.565e-5
-1.482, 1.578e-5
-1.483, 1.594e-5
-1.484, 1.612e-5
-1.485, 1.626e-5
-1.486, 1.643e-5
-1.487, 1.664e-5
-1.488, 1.672e-5
-1.489, 1.698e-5
-1.490, 1.706e-5
-1.491, 1.732e-5
-1.492, 1.752e-5
-1.493, 1.768e-5
-1.494, 1.789e-5
-1.495, 1.808e-5
-1.496, 1.826e-5
-1.497, 1.848e-5
-1.498, 1.862e-5
-1.499, 1.887e-5
-1.500, 1.902e-5
-1.501, 1.928e-5
-1.502, 1.949e-5
-1.503, 1.972e-5
-1.504, 1.992e-5
-1.505, 2.016e-5
-1.506, 2.039e-5
-1.507, 2.062e-5
-1.508, 2.086e-5
-1.509, 2.109e-5
-1.510, 2.137e-5
-1.511, 2.159e-5
-1.512, 2.183e-5
-1.513, 2.208e-5
-1.514, 2.239e-5
-1.515, 2.265e-5
-1.516, 2.293e-5
-1.517, 2.318e-5
-1.518, 2.343e-5
-1.519, 2.378e-5
-1.520, 2.404e-5
-1.521, 2.434e-5
-1.522, 2.467e-5
-1.523, 2.496e-5
-1.524, 2.534e-5
-1.525, 2.560e-5
-1.526, 2.593e-5
-1.527, 2.629e-5
-1.528, 2.662e-5
-1.529, 2.699e-5
-1.530, 2.739e-5
-1.531, 2.767e-5
-1.532, 2.811e-5
-1.533, 2.840e-5
-1.534, 2.886e-5
-1.535, 2.917e-5
-1.536, 2.963e-5
-1.537, 3.004e-5
-1.538, 3.047e-5
-1.539, 3.092e-5
-1.540, 3.137e-5
-1.541, 3.174e-5
-1.542, 3.223e-5
-1.543, 3.267e-5
-1.544, 3.322e-5
-1.545, 3.366e-5
-1.546, 3.413e-5
-1.547, 3.470e-5
-1.548, 3.520e-5
-1.549, 3.580e-5
-1.550, 3.629e-5
-1.551, 3.690e-5
-1.552, 3.745e-5
-1.553, 3.805e-5
-1.554, 3.864e-5
-1.555, 3.925e-5
-1.556, 3.981e-5
-1.557, 4.053e-5
-1.558, 4.117e-5
-1.559, 4.191e-5
-1.560, 4.254e-5
-1.561, 4.323e-5
-1.562, 4.399e-5
-1.563, 4.474e-5
-1.564, 4.548e-5
-1.565, 4.630e-5
-1.566, 4.707e-5
-1.567, 4.791e-5
-1.568, 4.868e-5
-1.569, 4.957e-5
-1.570, 5.044e-5
-1.571, 5.133e-5
-1.572, 5.227e-5
-1.573, 5.322e-5
-1.574, 5.418e-5
-1.575, 5.519e-5
-1.576, 5.615e-5
-1.577, 5.726e-5
-1.578, 5.834e-5
-1.579, 5.945e-5
-1.580, 6.054e-5
-1.581, 6.181e-5
-1.582, 6.293e-5
-1.583, 6.424e-5
-1.584, 6.542e-5
-1.585, 6.673e-5
-1.586, 6.802e-5
-1.587, 6.938e-5
-1.588, 7.080e-5
-1.589, 7.225e-5
-1.590, 7.369e-5
-1.591, 7.521e-5
-1.592, 7.671e-5
-1.593, 7.835e-5
-1.594, 7.992e-5
-1.595, 8.164e-5
-1.596, 8.331e-5
-1.597, 8.503e-5
-1.598, 8.681e-5
-1.599, 8.871e-5
-1.600, 9.057e-5
-1.601, 9.255e-5
-1.602, 9.450e-5
-1.603, 9.659e-5
-1.604, 9.863e-5
-1.605, 1.008e-4
-1.606, 1.029e-4
-1.607, 1.053e-4
-1.608, 1.076e-4
-1.609, 1.100e-4
-1.610, 1.125e-4
-1.611, 1.151e-4
-1.612, 1.176e-4
-1.613, 1.203e-4
-1.614, 1.230e-4
-1.615, 1.258e-4
-1.616, 1.286e-4
-1.617, 1.316e-4
-1.618, 1.346e-4
-1.619, 1.378e-4
-1.620, 1.409e-4
-1.621, 1.442e-4
-1.622, 1.476e-4
-1.623, 1.510e-4
-1.624, 1.545e-4
-1.625, 1.581e-4
-1.626, 1.618e-4
-1.627, 1.657e-4
-1.628, 1.696e-4
-1.629, 1.739e-4
-1.630, 1.781e-4
-1.631, 1.824e-4
-1.632, 1.869e-4
-1.633, 1.913e-4
-1.634, 1.958e-4
-1.635, 2.004e-4
-1.636, 2.052e-4
-1.637, 2.101e-4
-1.638, 2.153e-4
-1.639, 2.207e-4
-1.640, 2.260e-4
-1.641, 2.298e-4
-1.642, 2.353e-4
-1.643, 2.410e-4
-1.644, 2.470e-4
-1.645, 2.530e-4
-1.646, 2.591e-4
-1.647, 2.653e-4
-1.648, 2.719e-4
-1.649, 2.785e-4
-1.650, 2.853e-4
-1.651, 2.922e-4
-1.652, 2.993e-4
-1.653, 3.066e-4
-1.654, 3.141e-4
-1.655, 3.218e-4
-1.656, 3.296e-4
-1.657, 3.376e-4
-1.658, 3.457e-4
-1.659, 3.543e-4
-1.660, 3.628e-4
-1.661, 3.714e-4
-1.662, 3.804e-4
-1.663, 3.895e-4
-1.664, 3.989e-4
-1.665, 4.084e-4
-1.666, 4.176e-4
-1.667, 4.277e-4
-1.668, 4.380e-4
-1.669, 4.485e-4
-1.670, 4.593e-4
-1.671, 4.699e-4
-1.672, 4.804e-4
-1.673, 4.919e-4
-1.674, 5.035e-4
-1.675, 5.155e-4
-1.676, 5.276e-4
-1.677, 5.402e-4
-1.678, 5.529e-4
-1.679, 5.663e-4
-1.680, 5.797e-4
-1.681, 5.930e-4
-1.682, 6.066e-4
-1.683, 6.209e-4
-1.684, 6.354e-4
-1.685, 6.504e-4
-1.686, 6.651e-4
-1.687, 6.805e-4
-1.688, 6.961e-4
-1.689, 7.124e-4
-1.690, 7.282e-4
-1.691, 7.439e-4
-1.692, 7.613e-4
-1.693, 7.787e-4
-1.694, 7.961e-4
-1.695, 8.132e-4
-1.696, 8.313e-4
-1.697, 8.499e-4
-1.698, 8.686e-4
-1.699, 8.874e-4
-1.700, 8.958e-4
-1.699, 8.901e-4
-1.698, 8.839e-4
-1.697, 8.770e-4
-1.696, 8.697e-4
-1.695, 8.611e-4
-1.694, 8.531e-4
-1.693, 8.445e-4
-1.692, 8.357e-4
-1.691, 8.262e-4
-1.690, 8.168e-4
-1.689, 8.071e-4
-1.688, 7.981e-4
-1.687, 7.883e-4
-1.686, 7.789e-4
-1.685, 7.696e-4
-1.684, 7.602e-4
-1.683, 7.505e-4
-1.682, 7.408e-4
-1.681, 7.305e-4
-1.680, 7.211e-4
-1.679, 7.114e-4
-1.678, 7.012e-4
-1.677, 6.917e-4
-1.676, 6.824e-4
-1.675, 6.729e-4
-1.674, 6.635e-4
-1.673, 6.541e-4
-1.672, 6.443e-4
-1.671, 6.348e-4
-1.670, 6.252e-4
-1.669, 6.164e-4
-1.668, 6.075e-4
-1.667, 5.980e-4
-1.666, 5.892e-4
-1.665, 5.803e-4
-1.664, 5.714e-4
-1.663, 5.627e-4
-1.662, 5.539e-4
-1.661, 5.452e-4
-1.660, 5.367e-4
-1.659, 5.281e-4
-1.658, 5.198e-4
-1.657, 5.113e-4
-1.656, 5.030e-4
-1.655, 4.946e-4
-1.654, 4.869e-4
-1.653, 4.790e-4
-1.652, 4.709e-4
-1.651, 4.633e-4
-1.650, 4.556e-4
-1.649, 4.485e-4
-1.648, 4.407e-4
-1.647, 4.334e-4
-1.646, 4.263e-4
-1.645, 4.189e-4
-1.644, 4.119e-4
-1.643, 4.050e-4
-1.642, 3.983e-4
-1.641, 3.914e-4
-1.640, 3.847e-4
-1.639, 3.780e-4
-1.638, 3.708e-4
-1.637, 3.647e-4
-1.636, 3.584e-4
-1.635, 3.519e-4
-1.634, 3.459e-4
-1.633, 3.398e-4
-1.632, 3.339e-4
-1.631, 3.281e-4
-1.630, 3.220e-4
-1.629, 3.165e-4
-1.628, 3.108e-4
-1.627, 3.053e-4
-1.626, 2.998e-4
-1.625, 2.945e-4
-1.624, 2.890e-4
-1.623, 2.837e-4
-1.622, 2.784e-4
-1.621, 2.734e-4
-1.620, 2.683e-4
-1.619, 2.634e-4
-1.618, 2.589e-4
-1.617, 2.541e-4
-1.616, 2.497e-4
-1.615, 2.452e-4
-1.614, 2.406e-4
-1.613, 2.363e-4
-1.612, 2.319e-4
-1.611, 2.272e-4
-1.610, 2.232e-4
-1.609, 2.191e-4
-1.608, 2.149e-4
-1.607, 2.110e-4
-1.606, 2.072e-4
-1.605, 2.032e-4
-1.604, 1.996e-4
-1.603, 1.956e-4
-1.602, 1.920e-4
-1.601, 1.886e-4
-1.600, 1.850e-4
-1.599, 1.816e-4
-1.598, 1.783e-4
-1.597, 1.749e-4
-1.596, 1.718e-4
-1.595, 1.684e-4
-1.594, 1.652e-4
-1.593, 1.622e-4
-1.592, 1.593e-4
-1.591, 1.561e-4
-1.590, 1.532e-4
-1.589, 1.503e-4
-1.588, 1.476e-4
-1.587, 1.447e-4
-1.586, 1.420e-4
-1.585, 1.393e-4
-1.584, 1.366e-4
-1.583, 1.340e-4
-1.582, 1.316e-4
-1.581, 1.290e-4
-1.580, 1.265e-4
-1.579, 1.242e-4
-1.578, 1.219e-4
-1.577, 1.199e-4
-1.576, 1.177e-4
-1.575, 1.154e-4
-1.574, 1.130e-4
-1.573, 1.110e-4
-1.572, 1.088e-4
-1.571, 1.069e-4
-1.570, 1.048e-4
-1.569, 1.028e-4
-1.568, 1.009e-4
-1.567, 9.882e-5
-1.566, 9.681e-5
-1.565, 9.514e-5
-1.564, 9.336e-5
-1.563, 9.137e-5
-1.562, 8.973e-5
-1.561, 8.796e-5
-1.560, 8.627e-5
-1.559, 8.465e-5
-1.558, 8.308e-5
-1.557, 8.156e-5
-1.556, 7.993e-5
-1.555, 7.837e-5
-1.554, 7.683e-5
-1.553, 7.528e-5
-1.552, 7.406e-5
-1.551, 7.255e-5
-1.550, 7.125e-5
-1.549, 6.970e-5
-1.548, 6.841e-5
-1.547, 6.710e-5
-1.546, 6.582e-5
-1.545, 6.461e-5
-1.544, 6.319e-5
-1.543, 6.221e-5
-1.542, 6.072e-5
-1.541, 5.984e-5
-1.540, 5.859e-5
-1.539, 5.751e-5
-1.538, 5.632e-5
-1.537, 5.521e-5
-1.536, 5.409e-5
-1.535, 5.319e-5
-1.534, 5.201e-5
-1.533, 5.117e-5
-1.532, 5.001e-5
-1.531, 4.923e-5
-1.530, 4.814e-5
-1.529, 4.728e-5
-1.528, 4.637e-5
-1.527, 4.541e-5
-1.526, 4.451e-5
-1.525, 4.367e-5
-1.524, 4.283e-5
-1.523, 4.196e-5
-1.522, 4.122e-5
-1.521, 4.037e-5
-1.520, 3.955e-5
-1.519, 3.882e-5
-1.518, 3.792e-5
-1.517, 3.740e-5
-1.516, 3.664e-5
-1.515, 3.587e-5
-1.514, 3.523e-5
-1.513, 3.441e-5
-1.512, 3.383e-5
-1.511, 3.319e-5
-1.510, 3.241e-5
-1.509, 3.190e-5
-1.508, 3.125e-5
-1.507, 3.058e-5
-1.506, 3.004e-5
-1.505, 2.951e-5
-1.504, 2.883e-5
-1.503, 2.831e-5
-1.502, 2.784e-5
-1.501, 2.721e-5
-1.500, 2.666e-5
-1.499, 2.612e-5
-1.498, 2.565e-5
-1.497, 2.502e-5
-1.496, 2.463e-5
-1.495, 2.407e-5
-1.494, 2.364e-5
-1.493, 2.314e-5
-1.492, 2.267e-5
-1.491, 2.229e-5
-1.490, 2.182e-5
-1.489, 2.131e-5
-1.488, 2.092e-5
-1.487, 2.057e-5
-1.486, 2.014e-5
-1.485, 1.964e-5
-1.484, 1.925e-5
-1.483, 1.888e-5
-1.482, 1.852e-5
-1.481, 1.811e-5
-1.480, 1.771e-5
-1.479, 1.740e-5
-1.478, 1.707e-5
-1.477, 1.671e-5
-1.476, 1.636e-5
-1.475, 1.599e-5
-1.474, 1.571e-5
-1.473, 1.541e-5
-1.472, 1.509e-5
-1.471, 1.468e-5
-1.470, 1.438e-5
-1.469, 1.408e-5
-1.468, 1.388e-5
-1.467, 1.362e-5
-1.466, 1.334e-5
-1.465, 1.300e-5
-1.464, 1.272e-5
-1.463, 1.246e-5
-1.462, 1.222e-5
-1.461, 1.201e-5
-1.460, 1.173e-5
-1.459, 1.145e-5
-1.458, 1.127e-5
-1.457, 1.101e-5
-1.456, 1.078e-5
-1.455, 1.052e-5
-1.454, 1.028e-5
-1.453, 1.007e-5
-1.452, 9.885e-6
-1.451, 9.686e-6
-1.450, 9.456e-6
-1.449, 9.281e-6
-1.448, 9.019e-6
-1.447, 8.819e-6
-1.446, 8.616e-6
-1.445, 8.449e-6
-1.444, 8.256e-6
-1.443, 8.128e-6
-1.442, 7.916e-6
-1.441, 7.763e-6
-1.440, 7.543e-6
-1.439, 7.401e-6
-1.438, 7.256e-6
-1.437, 7.076e-6
-1.436, 6.960e-6
-1.435, 6.768e-6
-1.434, 6.627e-6
-1.433, 6.453e-6
-1.432, 6.326e-6
-1.431, 6.194e-6
-1.430, 6.058e-6
-1.429, 5.884e-6
-1.428, 5.792e-6
-1.427, 5.630e-6
-1.426, 5.538e-6
-1.425, 5.382e-6
-1.424, 5.275e-6
-1.423, 5.176e-6
-1.422, 5.012e-6
-1.421, 4.934e-6
-1.420, 4.796e-6
-1.419, 4.689e-6
-1.418, 4.599e-6
-1.417, 4.480e-6
-1.416, 4.369e-6
-1.415, 4.292e-6
-1.414, 4.147e-6
-1.413, 4.077e-6
-1.412, 3.955e-6
-1.411, 3.895e-6
-1.410, 3.758e-6
-1.409, 3.704e-6
-1.408, 3.568e-6
-1.407, 3.490e-6
-1.406, 3.420e-6
-1.405, 3.352e-6
-1.404, 3.240e-6
-1.403, 3.199e-6
-1.402, 3.076e-6
-1.401, 3.037e-6
-1.400, 2.940e-6
-1.399, 2.852e-6
-1.398, 2.802e-6
-1.397, 2.715e-6
-1.396, 2.640e-6
-1.395, 2.559e-6
-1.394, 2.527e-6
-1.393, 2.448e-6
-1.392, 2.392e-6
-1.391, 2.302e-6
-1.390, 2.241e-6
-1.389, 2.230e-6
-1.388, 2.116e-6
-1.387, 2.065e-6
-1.386, 2.040e-6
-1.385, 1.947e-6
-1.384, 1.919e-6
-1.383, 1.862e-6
-1.382, 1.817e-6
-1.381, 1.724e-6
-1.380, 1.700e-6
-1.379, 1.629e-6
-1.378, 1.621e-6
-1.377, 1.501e-6
-1.376, 1.470e-6
-1.375, 1.421e-6
-1.374, 1.387e-6
-1.373, 1.347e-6
-1.372, 1.298e-6
-1.371, 1.229e-6
-1.370, 1.182e-6
-1.369, 1.160e-6
-1.368, 1.132e-6
-1.367, 1.052e-6
-1.366, 1.038e-6
-1.365, 1.034e-6
-1.364, 9.469e-7
-1.363, 9.252e-7
-1.362, 8.976e-7
-1.361, 8.453e-7
-1.360, 8.088e-7
-1.359, 7.930e-7
-1.358, 7.171e-7
-1.357, 7.309e-7
-1.356, 6.243e-7
-1.355, 6.480e-7
-1.354, 6.056e-7
-1.353, 5.612e-7
-1.352, 5.483e-7
-1.351, 5.128e-7
-1.350, 4.635e-7
-1.349, 4.546e-7
-1.348, 4.102e-7
-1.347, 3.905e-7
-1.346, 3.629e-7
-1.345, 3.471e-7
-1.344, 3.007e-7
-1.343, 2.534e-7
-1.342, 2.386e-7
-1.341, 1.991e-7
-1.340, 1.685e-7
-1.339, 1.596e-7
-1.338, 1.409e-7
-1.337, 1.468e-7
-1.336, 6.886e-8
-1.335, 6.097e-8
-1.334, 5.604e-8
-1.333, -2.171e-9
-1.332, 4.519e-8
-1.331, -5.742e-8
-1.330, -7.123e-8
-1.329, -9.590e-8
-1.328, -1.176e-7
-1.327, -9.886e-8
-1.326, -1.383e-7
-1.325, -1.502e-7
-1.324, -1.719e-7
-1.323, -2.202e-7
-1.322, -1.827e-7
-1.321, -2.774e-7
-1.320, -3.001e-7
-1.319, -2.676e-7
-1.318, -3.248e-7
-1.317, -2.922e-7
-1.316, -3.534e-7
-1.315, -3.988e-7
-1.314, -3.544e-7
-1.313, -3.751e-7
-1.312, -4.442e-7
-1.311, -4.126e-7
-1.310, -4.747e-7
-1.309, -4.422e-7
-1.308, -4.757e-7
-1.307, -5.024e-7
-1.306, -5.142e-7
-1.305, -5.201e-7
-1.304, -5.458e-7
-1.303, -5.113e-7
-1.302, -6.208e-7
-1.301, -5.783e-7
-1.300, -5.922e-7
-1.299, -6.395e-7
-1.298, -6.494e-7
-1.297, -6.681e-7
-1.296, -6.326e-7
-1.295, -6.859e-7
-1.294, -6.800e-7
-1.293, -6.879e-7
-1.292, -7.007e-7
-1.291, -7.401e-7
-1.290, -7.165e-7
-1.289, -7.609e-7
-1.288, -7.411e-7
-1.287, -7.924e-7
-1.286, -8.122e-7
-1.285, -7.816e-7
-1.284, -8.349e-7
-1.283, -8.161e-7
-1.282, -8.566e-7
-1.281, -8.092e-7
-1.280, -8.871e-7
-1.279, -9.029e-7
-1.278, -8.941e-7
-1.277, -8.842e-7
-1.276, -9.345e-7
-1.275, -9.434e-7
-1.274, -9.661e-7
-1.273, -9.602e-7
-1.272, -9.473e-7
-1.271, -9.868e-7
-1.270, -9.671e-7
-1.269, -1.052e-6
-1.268, -9.947e-7
-1.267, -1.026e-6
-1.266, -1.040e-6
-1.265, -1.039e-6
-1.264, -1.044e-6
-1.263, -1.059e-6
-1.262, -1.089e-6
-1.261, -1.077e-6
-1.260, -1.109e-6
-1.259, -1.098e-6
-1.258, -1.135e-6
-1.257, -1.104e-6
-1.256, -1.151e-6
-1.255, -1.149e-6
-1.254, -1.153e-6
-1.253, -1.171e-6
-1.252, -1.200e-6
-1.251, -1.217e-6
-1.250, -1.239e-6
-1.249, -1.225e-6
-1.248, -1.224e-6
-1.247, -1.242e-6
-1.246, -1.232e-6
-1.245, -1.299e-6
-1.244, -1.263e-6
-1.243, -1.305e-6
-1.242, -1.298e-6
-1.241, -1.305e-6
-1.240, -1.349e-6
-1.239, -1.329e-6
-1.238, -1.321e-6
-1.237, -1.340e-6
-1.236, -1.367e-6
-1.235, -1.336e-6
-1.234, -1.369e-6
-1.233, -1.358e-6
-1.232, -1.373e-6
-1.231, -1.377e-6
-1.230, -1.427e-6
-1.229, -1.421e-6
-1.228, -1.409e-6
-1.227, -1.471e-6
-1.226, -1.427e-6
-1.225, -1.452e-6
-1.224, -1.455e-6
-1.223, -1.459e-6
-1.222, -1.451e-6
-1.221, -1.463e-6
-1.220, -1.471e-6
-1.219, -1.473e-6
-1.218, -1.529e-6
-1.217, -1.481e-6
-1.216, -1.517e-6
-1.215, -1.516e-6
-1.214, -1.539e-6
-1.213, -1.495e-6
-1.212, -1.509e-6
-1.211, -1.552e-6
-1.210, -1.548e-6
-1.209, -1.564e-6
-1.208, -1.549e-6
-1.207, -1.549e-6
-1.206, -1.579e-6
-1.205, -1.592e-6
-1.204, -1.577e-6
-1.203, -1.584e-6
-1.202, -1.584e-6
-1.201, -1.642e-6
-1.200, -1.591e-6
-1.199, -1.639e-6
-1.198, -1.587e-6
-1.197, -1.625e-6
-1.196, -1.652e-6
-1.195, -1.646e-6
-1.194, -1.645e-6
-1.193, -1.626e-6
-1.192, -1.636e-6
-1.191, -1.672e-6
-1.190, -1.659e-6
-1.189, -1.641e-6
-1.188, -1.671e-6
-1.187, -1.649e-6
-1.186, -1.725e-6
-1.185, -1.657e-6
-1.184, -1.691e-6
-1.183, -1.694e-6
-1.182, -1.699e-6
-1.181, -1.718e-6
-1.180, -1.731e-6
-1.179, -1.702e-6
-1.178, -1.727e-6
-1.177, -1.732e-6
-1.176, -1.751e-6
-1.175, -1.757e-6
-1.174, -1.715e-6
-1.173, -1.773e-6
-1.172, -1.716e-6
-1.171, -1.763e-6
-1.170, -1.724e-6
-1.169, -1.797e-6
-1.168, -1.754e-6
-1.167, -1.759e-6
-1.166, -1.792e-6
-1.165, -1.790e-6
-1.164, -1.811e-6
-1.163, -1.796e-6
-1.162, -1.762e-6
-1.161, -1.825e-6
-1.160, -1.827e-6
-1.159, -1.811e-6
-1.158, -1.818e-6
-1.157, -1.834e-6
-1.156, -1.862e-6
-1.155, -1.825e-6
-1.154, -1.873e-6
-1.153, -1.818e-6
-1.152, -1.845e-6
-1.151, -1.856e-6
-1.150, -1.866e-6
-1.149, -1.848e-6
-1.148, -1.850e-6
-1.147, -1.880e-6
-1.146, -1.879e-6
-1.145, -1.890e-6
-1.144, -1.863e-6
-1.143, -1.908e-6
-1.142, -1.892e-6
-1.141, -1.924e-6
-1.140, -1.911e-6
-1.139, -1.928e-6
-1.138, -1.899e-6
-1.137, -1.927e-6
-1.136, -1.899e-6
-1.135, -1.930e-6
-1.134, -1.908e-6
-1.133, -1.943e-6
-1.132, -1.918e-6
-1.131, -1.946e-6
-1.130, -1.930e-6
-1.129, -1.913e-6
-1.128, -1.962e-6
-1.127, -1.963e-6
-1.126, -1.943e-6
-1.125, -1.947e-6
-1.124, -1.972e-6
-1.123, -1.984e-6
-1.122, -1.970e-6
-1.121, -1.972e-6
-1.120, -1.993e-6
-1.119, -1.965e-6
-1.118, -1.988e-6
-1.117, -1.977e-6
-1.116, -1.993e-6
-1.115, -2.001e-6
-1.114, -2.005e-6
-1.113, -2.023e-6
-1.112, -2.037e-6
-1.111, -2.014e-6
-1.110, -2.004e-6
-1.109, -2.020e-6
-1.108, -2.007e-6
-1.107, -2.019e-6
-1.106, -2.005e-6
-1.105, -2.046e-6
-1.104, -2.004e-6
-1.103, -2.031e-6
-1.102, -2.030e-6
-1.101, -2.045e-6
-1.100, -2.082e-6
-1.099, -2.038e-6
-1.098, -2.070e-6
-1.097, -2.062e-6
-1.096, -2.066e-6
-1.095, -2.090e-6
-1.094, -2.057e-6
-1.093, -2.070e-6
-1.092, -2.099e-6
-1.091, -2.063e-6
-1.090, -2.115e-6
-1.089, -2.066e-6
-1.088, -2.101e-6
-1.087, -2.108e-6
-1.086, -2.137e-6
-1.085, -2.127e-6
-1.084, -2.146e-6
-1.083, -2.108e-6
-1.082, -2.134e-6
-1.081, -2.132e-6
-1.080, -2.150e-6
-1.079, -2.172e-6
-1.078, -2.133e-6
-1.077, -2.159e-6
-1.076, -2.159e-6
-1.075, -2.176e-6
-1.074, -2.174e-6
-1.073, -2.182e-6
-1.072, -2.178e-6
-1.071, -2.206e-6
-1.070, -2.184e-6
-1.069, -2.247e-6
-1.068, -2.190e-6
-1.067, -2.224e-6
-1.066, -2.231e-6
-1.065, -2.248e-6
-1.064, -2.237e-6
-1.063, -2.232e-6
-1.062, -2.227e-6
-1.061, -2.271e-6
-1.060, -2.246e-6
-1.059, -2.275e-6
-1.058, -2.283e-6
-1.057, -2.247e-6
-1.056, -2.308e-6
-1.055, -2.268e-6
-1.054, -2.299e-6
-1.053, -2.284e-6
-1.052, -2.254e-6
-1.051, -2.297e-6
-1.050, -2.334e-6
-1.049, -2.313e-6
-1.048, -2.311e-6
-1.047, -2.320e-6
-1.046, -2.332e-6
-1.045, -2.313e-6
-1.044, -2.316e-6
-1.043, -2.336e-6
-1.042, -2.318e-6
-1.041, -2.365e-6
-1.040, -2.338e-6
-1.039, -2.345e-6
-1.038, -2.332e-6
-1.037, -2.350e-6
-1.036, -2.334e-6
-1.035, -2.354e-6
-1.034, -2.323e-6
-1.033, -2.335e-6
-1.032, -2.372e-6
-1.031, -2.340e-6
-1.030, -2.391e-6
-1.029, -2.324e-6
-1.028, -2.373e-6
-1.027, -2.334e-6
-1.026, -2.390e-6
-1.025, -2.356e-6
-1.024, -2.392e-6
-1.023, -2.361e-6
-1.022, -2.407e-6
-1.021, -2.412e-6
-1.020, -2.384e-6
-1.019, -2.408e-6
-1.018, -2.392e-6
-1.017, -2.392e-6
-1.016, -2.405e-6
-1.015, -2.393e-6
-1.014, -2.396e-6
-1.013, -2.418e-6
-1.012, -2.407e-6
-1.011, -2.449e-6
-1.010, -2.429e-6
-1.009, -2.452e-6
-1.008, -2.418e-6
-1.007, -2.442e-6
-1.006, -2.444e-6
-1.005, -2.430e-6
-1.004, -2.469e-6
-1.003, -2.438e-6
-1.002, -2.476e-6
-1.001, -2.445e-6
-1.000, -1.950e-6
-1.001, -1.557e-6
-1.002, -1.389e-6
-1.003, -1.246e-6
-1.004, -1.187e-6
-1.005, -1.069e-6
-1.006, -9.759e-7
-1.007, -9.029e-7
-1.008, -8.043e-7
-1.009, -7.905e-7
-1.010, -7.155e-7
-1.011, -6.425e-7
-1.012, -6.020e-7
-1.013, -5.793e-7
-1.014, -5.113e-7
-1.015, -4.856e-7
-1.016, -4.037e-7
-1.017, -4.195e-7
-1.018, -3.564e-7
-1.019, -3.347e-7
-1.020, -3.120e-7
-1.021, -2.419e-7
-1.022, -2.626e-7
-1.023, -2.182e-7
-1.024, -2.113e-7
-1.025, -1.393e-7
-1.026, -1.285e-7
-1.027, -9.984e-8
-1.028, -7.617e-8
-1.029, -5.841e-8
-1.030, -4.755e-8
-1.031, -2.388e-8
-1.032, -5.130e-9
-1.033, -1.894e-8
-1.034, 5.900e-8
-1.035, 3.927e-8
-1.036, 9.156e-8
-1.037, 6.886e-8
-1.038, 1.251e-7
-1.039, 1.202e-7
-1.040, 1.596e-7
-1.041, 1.557e-7
-1.042, 1.488e-7
-1.043, 2.149e-7
-1.044, 1.971e-7
-1.045, 2.149e-7
-1.046, 2.386e-7
-1.047, 2.376e-7
-1.048, 2.474e-7
-1.049, 2.958e-7
-1.050, 2.830e-7
-1.051, 3.402e-7
-1.052, 3.096e-7
-1.053, 3.530e-7
-1.054, 3.283e-7
-1.055, 3.619e-7
-1.056, 3.865e-7
-1.057, 3.392e-7
-1.058, 4.092e-7
-1.059, 3.836e-7
-1.060, 4.359e-7
-1.061, 4.290e-7
-1.062, 4.438e-7
-1.063, 4.921e-7
-1.064, 4.379e-7
-1.065, 4.615e-7
-1.066, 4.901e-7
-1.067, 5.020e-7
-1.068, 4.813e-7
-1.069, 5.158e-7
-1.070, 4.990e-7
-1.071, 5.286e-7
-1.072, 5.454e-7
-1.073, 5.345e-7
-1.074, 5.553e-7
-1.075, 5.503e-7
-1.076, 5.858e-7
-1.077, 5.553e-7
-1.078, 6.095e-7
-1.079, 5.740e-7
-1.080, 6.085e-7
-1.081, 6.115e-7
-1.082, 6.608e-7
-1.083, 6.381e-7
-1.084, 6.293e-7
-1.085, 6.539e-7
-1.086, 6.480e-7
-1.087, 6.658e-7
-1.088, 6.638e-7
-1.089, 6.638e-7
-1.090, 6.924e-7
-1.091, 6.963e-7
-1.092, 7.072e-7
-1.093, 6.963e-7
-1.094, 7.279e-7
-1.095, 7.279e-7
-1.096, 7.082e-7
-1.097, 7.358e-7
-1.098, 7.457e-7
-1.099, 7.210e-7
-1.100, 7.723e-7
-1.101, 7.407e-7
-1.102, 7.970e-7
-1.103, 7.713e-7
-1.104, 8.157e-7
-1.105, 8.147e-7
-1.106, 7.980e-7
-1.107, 8.236e-7
-1.108, 8.394e-7
-1.109, 7.930e-7
-1.110, 8.335e-7
-1.111, 8.266e-7
-1.112, 8.266e-7
-1.113, 8.493e-7
-1.114, 8.335e-7
-1.115, 8.483e-7
-1.116, 8.483e-7
-1.117, 9.183e-7
-1.118, 8.483e-7
-1.119, 8.986e-7
-1.120, 8.779e-7
-1.121, 8.897e-7
-1.122, 9.272e-7
-1.123, 9.282e-7
-1.124, 8.966e-7
-1.125, 9.075e-7
-1.126, 9.163e-7
-1.127, 9.252e-7
-1.128, 9.489e-7
-1.129, 8.986e-7
-1.130, 9.598e-7
-1.131, 9.450e-7
-1.132, 9.726e-7
-1.133, 9.657e-7
-1.134, 9.558e-7
-1.135, 9.923e-7
-1.136, 9.854e-7
-1.137, 1.007e-6
-1.138, 9.953e-7
-1.139, 9.933e-7
-1.140, 1.007e-6
-1.141, 1.042e-6
-1.142, 1.054e-6
-1.143, 1.066e-6
-1.144, 1.026e-6
-1.145, 1.064e-6
-1.146, 1.048e-6
-1.147, 1.081e-6
-1.148, 1.078e-6
-1.149, 1.062e-6
-1.150, 1.126e-6
-1.151, 1.100e-6
-1.152, 1.144e-6
-1.153, 1.102e-6
-1.154, 1.146e-6
-1.155, 1.112e-6
-1.156, 1.152e-6
-1.157, 1.142e-6
-1.158, 1.167e-6
-1.159, 1.163e-6
-1.160, 1.151e-6
-1.161, 1.174e-6
-1.162, 1.169e-6
-1.163, 1.228e-6
-1.164, 1.178e-6
-1.165, 1.211e-6
-1.166, 1.194e-6
-1.167, 1.215e-6
-1.168, 1.218e-6
-1.169, 1.223e-6
-1.170, 1.244e-6
-1.171, 1.273e-6
-1.172, 1.270e-6
-1.173, 1.279e-6
-1.174, 1.277e-6
-1.175, 1.273e-6
-1.176, 1.319e-6
-1.177, 1.268e-6
-1.178, 1.321e-6
-1.179, 1.319e-6
-1.180, 1.353e-6
-1.181, 1.337e-6
-1.182, 1.332e-6
-1.183, 1.387e-6
-1.184, 1.338e-6
-1.185, 1.353e-6
-1.186, 1.364e-6
-1.187, 1.402e-6
-1.188, 1.412e-6
-1.189, 1.399e-6
-1.190, 1.400e-6
-1.191, 1.444e-6
-1.192, 1.434e-6
-1.193, 1.433e-6
-1.194, 1.461e-6
-1.195, 1.426e-6
-1.196, 1.472e-6
-1.197, 1.429e-6
-1.198, 1.478e-6
-1.199, 1.471e-6
-1.200, 1.493e-6
-1.201, 1.518e-6
-1.202, 1.493e-6
-1.203, 1.531e-6
-1.204, 1.510e-6
-1.205, 1.547e-6
-1.206, 1.547e-6
-1.207, 1.577e-6
-1.208, 1.565e-6
-1.209, 1.551e-6
-1.210, 1.595e-6
-1.211, 1.578e-6
-1.212, 1.603e-6
-1.213, 1.595e-6
-1.214, 1.601e-6
-1.215, 1.591e-6
-1.216, 1.652e-6
-1.217, 1.641e-6
-1.218, 1.645e-6
-1.219, 1.662e-6
-1.220, 1.657e-6
-1.221, 1.679e-6
-1.222, 1.665e-6
-1.223, 1.727e-6
-1.224, 1.680e-6
-1.225, 1.715e-6
-1.226, 1.709e-6
-1.227, 1.734e-6
-1.228, 1.717e-6
-1.229, 1.755e-6
-1.230, 1.788e-6
-1.231, 1.758e-6
-1.232, 1.802e-6
-1.233, 1.798e-6
-1.234, 1.796e-6
-1.235, 1.807e-6
-1.236, 1.825e-6
-1.237, 1.820e-6
-1.238, 1.853e-6
-1.239, 1.850e-6
-1.240, 1.823e-6
-1.241, 1.863e-6
-1.242, 1.855e-6
-1.243, 1.894e-6
-1.244, 1.879e-6
-1.245, 1.905e-6
-1.246, 1.939e-6
-1.247, 1.921e-6
-1.248, 1.961e-6
-1.249, 1.932e-6
-1.250, 1.937e-6
-1.251, 1.960e-6
-1.252, 1.997e-6
-1.253, 1.944e-6
-1.254, 1.992e-6
-1.255, 2.009e-6
-1.256, 2.006e-6
-1.257, 2.042e-6
-1.258, 2.028e-6
-1.259, 2.079e-6
-1.260, 2.033e-6
-1.261, 2.125e-6
-1.262, 2.060e-6
-1.263, 2.108e-6
-1.264, 2.092e-6
-1.265, 2.108e-6
-1.266, 2.119e-6
-1.267, 2.144e-6
-1.268, 2.148e-6
-1.269, 2.101e-6
-1.270, 2.193e-6
-1.271, 2.163e-6
-1.272, 2.223e-6
-1.273, 2.169e-6
-1.274, 2.207e-6
-1.275, 2.236e-6
-1.276, 2.229e-6
-1.277, 2.257e-6
-1.278, 2.236e-6
-1.279, 2.270e-6
-1.280, 2.264e-6
-1.281, 2.314e-6
-1.282, 2.304e-6
-1.283, 2.305e-6
-1.284, 2.323e-6
-1.285, 2.343e-6
-1.286, 2.387e-6
-1.287, 2.388e-6
-1.288, 2.365e-6
-1.289, 2.393e-6
-1.290, 2.431e-6
-1.291, 2.411e-6
-1.292, 2.476e-6
-1.293, 2.410e-6
-1.294, 2.481e-6
-1.295, 2.480e-6
-1.296, 2.522e-6
-1.297, 2.519e-6
-1.298, 2.508e-6
-1.299, 2.535e-6
-1.300, 2.546e-6
-1.301, 2.595e-6
-1.302, 2.570e-6
-1.303, 2.576e-6
-1.304, 2.597e-6
-1.305, 2.617e-6
-1.306, 2.638e-6
-1.307, 2.683e-6
-1.308, 2.649e-6
-1.309, 2.703e-6
-1.310, 2.710e-6
-1.311, 2.730e-6
-1.312, 2.789e-6
-1.313, 2.762e-6
-1.314, 2.833e-6
-1.315, 2.801e-6
-1.316, 2.877e-6
-1.317, 2.859e-6
-1.318, 2.891e-6
-1.319, 2.911e-6
-1.320, 2.908e-6
-1.321, 2.966e-6
-1.322, 2.972e-6
-1.323, 2.972e-6
-1.324, 2.977e-6
-1.325, 3.060e-6
-1.326, 3.035e-6
-1.327, 3.086e-6
-1.328, 3.074e-6
-1.329, 3.132e-6
-1.330, 3.148e-6
-1.331, 3.149e-6
-1.332, 3.232e-6
-1.333, 3.187e-6
-1.334, 3.260e-6
-1.335, 3.254e-6
-1.336, 3.302e-6
-1.337, 3.329e-6
-1.338, 3.348e-6
-1.339, 3.367e-6
-1.340, 3.378e-6
-1.341, 3.460e-6
-1.342, 3.460e-6
-1.343, 3.483e-6
-1.344, 3.503e-6
-1.345, 3.541e-6
-1.346, 3.581e-6
-1.347, 3.633e-6
-1.348, 3.636e-6
-1.349, 3.672e-6
-1.350, 3.708e-6
-1.351, 3.730e-6
-1.352, 3.809e-6
-1.353, 3.807e-6
-1.354, 3.886e-6
-1.355, 3.851e-6
-1.356, 3.947e-6
-1.357, 3.977e-6
-1.358, 3.963e-6
-1.359, 4.035e-6
-1.360, 4.022e-6
-1.361, 4.151e-6
-1.362, 4.141e-6
-1.363, 4.230e-6
-1.364, 4.182e-6
-1.365, 4.286e-6
-1.366, 4.302e-6
-1.367, 4.344e-6
-1.368, 4.395e-6
-1.369, 4.445e-6
-1.370, 4.495e-6
-1.371, 4.509e-6
-1.372, 4.581e-6
-1.373, 4.591e-6
-1.374, 4.635e-6
-1.375, 4.671e-6
-1.376, 4.729e-6
-1.377, 4.827e-6
-1.378, 4.802e-6
-1.379, 4.880e-6
-1.380, 4.915e-6
-1.381, 4.992e-6
-1.382, 5.046e-6
-1.383, 5.103e-6
-1.384, 5.140e-6
-1.385, 5.218e-6
-1.386, 5.266e-6
-1.387, 5.308e-6
-1.388, 5.349e-6
-1.389, 5.418e-6
-1.390, 5.503e-6
-1.391, 5.532e-6
-1.392, 5.601e-6
-1.393, 5.643e-6
-1.394, 5.707e-6
-1.395, 5.797e-6
-1.396, 5.833e-6
-1.397, 5.910e-6
-1.398, 5.940e-6
-1.399, 6.057e-6
-1.400, 6.087e-6
-1.401, 6.161e-6
-1.402, 6.260e-6
-1.403, 6.298e-6
-1.404, 6.338e-6
-1.405, 6.451e-6
-1.406, 6.512e-6
-1.407, 6.566e-6
-1.408, 6.646e-6
-1.409, 6.738e-6
-1.410, 6.793e-6
-1.411, 6.863e-6
-1.412, 6.941e-6
-1.413, 7.034e-6
-1.414, 7.078e-6
-1.415, 7.182e-6
-1.416, 7.233e-6
-1.417, 7.352e-6
-1.418, 7.437e-6
-1.419, 7.492e-6
-1.420, 7.607e-6
-1.421, 7.648e-6
-1.422, 7.758e-6
-1.423, 7.817e-6
-1.424, 7.947e-6
-1.425, 8.015e-6
-1.426, 8.112e-6
-1.427, 8.197e-6
-1.428, 8.306e-6
-1.429, 8.406e-6
-1.430, 8.501e-6
-1.431, 8.569e-6
-1.432, 8.652e-6
-1.433, 8.766e-6
-1.434, 8.895e-6
-1.435, 8.967e-6
-1.436, 9.104e-6
-1.437, 9.178e-6
-1.438, 9.321e-6
-1.439, 9.388e-6
-1.440, 9.537e-6
-1.441, 9.616e-6
-1.442, 9.756e-6
-1.443, 9.861e-6
-1.444, 9.922e-6
-1.445, 1.007e-5
-1.446, 1.017e-5
-1.447, 1.032e-5
-1.448, 1.041e-5
-1.449, 1.054e-5
-1.450, 1.067e-5
-1.451, 1.081e-5
-1.452, 1.090e-5
-1.453, 1.101e-5
-1.454, 1.118e-5
-1.455, 1.130e-5
-1.456, 1.143e-5
-1.457, 1.155e-5
-1.458, 1.170e-5
-1.459, 1.180e-5
-1.460, 1.200e-5
-1.461, 1.209e-5
-1.462, 1.225e-5
-1.463, 1.238e-5
-1.464, 1.251e-5
-1.465, 1.270e-5
-1.466, 1.282e-5
-1.467, 1.303e-5
-1.468, 1.315e-5
-1.469, 1.328e-5
-1.470, 1.347e-5
-1.471, 1.362e-5
-1.472, 1.381e-5
-1.473, 1.398e-5
-1.474, 1.412e-5
-1.475, 1.431e-5
-1.476, 1.451e-5
-1.477, 1.463e-5
-1.478, 1.484e-5
-1.479, 1.501e-5
-1.480, 1.519e-5
-1.481, 1.544e-5
-1.482, 1.560e-5
-1.483, 1.581e-5
-1.484, 1.596e-5
-1.485, 1.623e-5
-1.486, 1.641e-5
-1.487, 1.658e-5
-1.488, 1.680e-5
-1.489, 1.698e-5
-1.490, 1.724e-5
-1.491, 1.745e-5
-1.492, 1.770e-5
-1.493, 1.786e-5
-1.494, 1.812e-5
-1.495, 1.836e-5
-1.496, 1.859e-5
-1.497, 1.885e-5
-1.498, 1.909e-5
-1.499, 1.930e-5
-1.500, 1.953e-5
-1.501, 1.985e-5
-1.502, 2.011e-5
-1.503, 2.041e-5
-1.504, 2.063e-5
-1.505, 2.091e-5
-1.506, 2.120e-5
-1.507, 2.141e-5
-1.508, 2.174e-5
-1.509, 2.200e-5
-1.510, 2.239e-5
-1.511, 2.268e-5
-1.512, 2.290e-5
-1.513, 2.322e-5
-1.514, 2.355e-5
-1.515, 2.393e-5
-1.516, 2.427e-5
-1.517, 2.455e-5
-1.518, 2.486e-5
-1.519, 2.530e-5
-1.520, 2.566e-5
-1.521, 2.602e-5
-1.522, 2.635e-5
-1.523, 2.674e-5
-1.524, 2.719e-5
-1.525, 2.756e-5
-1.526, 2.796e-5
-1.527, 2.836e-5
-1.528, 2.877e-5
-1.529, 2.920e-5
-1.530, 2.965e-5
-1.531, 3.013e-5
-1.532, 3.059e-5
-1.533, 3.101e-5
-1.534, 3.149e-5
-1.535, 3.200e-5
-1.536, 3.239e-5
-1.537, 3.292e-5
-1.538, 3.346e-5
-1.539, 3.397e-5
-1.540, 3.448e-5
-1.541, 3.500e-5
-1.542, 3.559e-5
-1.543, 3.614e-5
-1.544, 3.671e-5
-1.545, 3.722e-5
-1.546, 3.787e-5
-1.547, 3.854e-5
-1.548, 3.914e-5
-1.549, 3.976e-5
-1.550, 4.041e-5
-1.551, 4.114e-5
-1.552, 4.182e-5
-1.553, 4.236e-5
-1.554, 4.312e-5
-1.555, 4.391e-5
-1.556, 4.458e-5
-1.557, 4.540e-5
-1.558, 4.614e-5
-1.559, 4.687e-5
-1.560, 4.779e-5
-1.561, 4.851e-5
-1.562, 4.948e-5
-1.563, 5.031e-5
-1.564, 5.115e-5
-1.565, 5.212e-5
-1.566, 5.294e-5
-1.567, 5.401e-5
-1.568, 5.478e-5
-1.569, 5.588e-5
-1.570, 5.681e-5
-1.571, 5.788e-5
-1.572, 5.891e-5
-1.573, 6.003e-5
-1.574, 6.121e-5
-1.575, 6.239e-5
-1.576, 6.347e-5
-1.577, 6.458e-5
-1.578, 6.587e-5
-1.579, 6.703e-5
-1.580, 6.841e-5
-1.581, 6.967e-5
-1.582, 7.113e-5
-1.583, 7.249e-5
-1.584, 7.381e-5
-1.585, 7.535e-5
-1.586, 7.683e-5
-1.587, 7.822e-5
-1.588, 7.994e-5
-1.589, 8.154e-5
-1.590, 8.324e-5
-1.591, 8.494e-5
-1.592, 8.647e-5
-1.593, 8.837e-5
-1.594, 9.021e-5
-1.595, 9.200e-5
-1.596, 9.390e-5
-1.597, 9.598e-5
-1.598, 9.790e-5
-1.599, 9.994e-5
-1.600, 1.019e-4
-1.601, 1.041e-4
-1.602, 1.063e-4
-1.603, 1.085e-4
-1.604, 1.104e-4
-1.605, 1.129e-4
-1.606, 1.152e-4
-1.607, 1.177e-4
-1.608, 1.202e-4
-1.609, 1.229e-4
-1.610, 1.254e-4
-1.611, 1.281e-4
-1.612, 1.309e-4
-1.613, 1.338e-4
-1.614, 1.366e-4
-1.615, 1.396e-4
-1.616, 1.427e-4
-1.617, 1.457e-4
-1.618, 1.490e-4
-1.619, 1.523e-4
-1.620, 1.555e-4
-1.621, 1.590e-4
-1.622, 1.626e-4
-1.623, 1.662e-4
-1.624, 1.698e-4
-1.625, 1.738e-4
-1.626, 1.775e-4
-1.627, 1.816e-4
-1.628, 1.855e-4
-1.629, 1.898e-4
-1.630, 1.940e-4
-1.631, 1.985e-4
-1.632, 2.031e-4
-1.633, 2.076e-4
-1.634, 2.125e-4
-1.635, 2.173e-4
-1.636, 2.224e-4
-1.637, 2.274e-4
-1.638, 2.326e-4
-1.639, 2.380e-4
-1.640, 2.434e-4
-1.641, 2.491e-4
-1.642, 2.547e-4
-1.643, 2.606e-4
-1.644, 2.665e-4
-1.645, 2.727e-4
-1.646, 2.789e-4
-1.647, 2.852e-4
-1.648, 2.919e-4
-1.649, 2.985e-4
-1.650, 3.055e-4
-1.651, 3.125e-4
-1.652, 3.198e-4
-1.653, 3.272e-4
-1.654, 3.349e-4
-1.655, 3.425e-4
-1.656, 3.506e-4
-1.657, 3.587e-4
-1.658, 3.669e-4
-1.659, 3.752e-4
-1.660, 3.840e-4
-1.661, 3.928e-4
-1.662, 4.020e-4
-1.663, 4.112e-4
-1.664, 4.207e-4
-1.665, 4.305e-4
-1.666, 4.405e-4
-1.667, 4.510e-4
-1.668, 4.612e-4
-1.669, 4.719e-4
-1.670, 4.828e-4
-1.671, 4.940e-4
-1.672, 5.054e-4
-1.673, 5.169e-4
-1.674, 5.289e-4
-1.675, 5.404e-4
-1.676, 5.524e-4
-1.677, 5.651e-4
-1.678, 5.784e-4
-1.679, 5.914e-4
-1.680, 6.050e-4
-1.681, 6.186e-4
-1.682, 6.330e-4
-1.683, 6.475e-4
-1.684, 6.621e-4
-1.685, 6.770e-4
-1.686, 6.920e-4
-1.687, 7.071e-4
-1.688, 7.224e-4
-1.689, 7.383e-4
-1.690, 7.547e-4
-1.691, 7.716e-4
-1.692, 7.889e-4
-1.693, 8.066e-4
-1.694, 8.250e-4
-1.695, 8.426e-4
-1.696, 8.613e-4
-1.697, 8.798e-4
-1.698, 8.986e-4
-1.699, 9.184e-4
-1.700, 9.268e-4
-1.699, 9.212e-4
-1.698, 9.140e-4
-1.697, 9.056e-4
-1.696, 8.960e-4
-1.695, 8.870e-4
-1.694, 8.776e-4
-1.693, 8.677e-4
-1.692, 8.580e-4
-1.691, 8.485e-4
-1.690, 8.383e-4
-1.689, 8.283e-4
-1.688, 8.185e-4
-1.687, 8.083e-4
-1.686, 7.979e-4
-1.685, 7.868e-4
-1.684, 7.763e-4
-1.683, 7.657e-4
-1.682, 7.555e-4
-1.681, 7.457e-4
-1.680, 7.353e-4
-1.679, 7.249e-4
-1.678, 7.147e-4
-1.677, 7.045e-4
-1.676, 6.946e-4
-1.675, 6.843e-4
-1.674, 6.741e-4
-1.673, 6.638e-4
-1.672, 6.539e-4
-1.671, 6.441e-4
-1.670, 6.342e-4
-1.669, 6.248e-4
-1.668, 6.150e-4
-1.667, 6.054e-4
-1.666, 5.960e-4
-1.665, 5.868e-4
-1.664, 5.776e-4
-1.663, 5.683e-4
-1.662, 5.591e-4
-1.661, 5.502e-4
-1.660, 5.410e-4
-1.659, 5.323e-4
-1.658, 5.235e-4
-1.657, 5.150e-4
-1.656, 5.063e-4
-1.655, 4.980e-4
-1.654, 4.901e-4
-1.653, 4.818e-4
-1.652, 4.739e-4
-1.651, 4.659e-4
-1.650, 4.580e-4
-1.649, 4.501e-4
-1.648, 4.424e-4
-1.647, 4.349e-4
-1.646, 4.276e-4
-1.645, 4.202e-4
-1.644, 4.129e-4
-1.643, 4.059e-4
-1.642, 3.990e-4
-1.641, 3.917e-4
-1.640, 3.849e-4
-1.639, 3.783e-4
-1.638, 3.716e-4
-1.637, 3.652e-4
-1.636, 3.587e-4
-1.635, 3.524e-4
-1.634, 3.460e-4
-1.633, 3.398e-4
-1.632, 3.337e-4
-1.631, 3.278e-4
-1.630, 3.218e-4
-1.629, 3.162e-4
-1.628, 3.105e-4
-1.627, 3.050e-4
-1.626, 2.994e-4
-1.625, 2.940e-4
-1.624, 2.887e-4
-1.623, 2.836e-4
-1.622, 2.785e-4
-1.621, 2.733e-4
-1.620, 2.683e-4
-1.619, 2.635e-4
-1.618, 2.587e-4
-1.617, 2.539e-4
-1.616, 2.490e-4
-1.615, 2.446e-4
-1.614, 2.400e-4
-1.613, 2.355e-4
-1.612, 2.312e-4
-1.611, 2.270e-4
-1.610, 2.227e-4
-1.609, 2.188e-4
-1.608, 2.147e-4
-1.607, 2.107e-4
-1.606, 2.068e-4
-1.605, 2.028e-4
-1.604, 1.990e-4
-1.603, 1.952e-4
-1.602, 1.915e-4
-1.601, 1.880e-4
-1.600, 1.845e-4
-1.599, 1.812e-4
-1.598, 1.776e-4
-1.597, 1.743e-4
-1.596, 1.711e-4
-1.595, 1.677e-4
-1.594, 1.646e-4
-1.593, 1.616e-4
-1.592, 1.584e-4
-1.591, 1.554e-4
-1.590, 1.526e-4
-1.589, 1.499e-4
-1.588, 1.467e-4
-1.587, 1.440e-4
-1.586, 1.413e-4
-1.585, 1.386e-4
-1.584, 1.361e-4
-1.583, 1.334e-4
-1.582, 1.310e-4
-1.581, 1.285e-4
-1.580, 1.260e-4
-1.579, 1.236e-4
-1.578, 1.213e-4
-1.577, 1.189e-4
-1.576, 1.167e-4
-1.575, 1.146e-4
-1.574, 1.123e-4
-1.573, 1.102e-4
-1.572, 1.079e-4
-1.571, 1.060e-4
-1.570, 1.039e-4
-1.569, 1.020e-4
-1.568, 1.000e-4
-1.567, 9.812e-5
-1.566, 9.621e-5
-1.565, 9.435e-5
-1.564, 9.264e-5
-1.563, 9.091e-5
-1.562, 8.911e-5
-1.561, 8.746e-5
-1.560, 8.569e-5
-1.559, 8.414e-5
-1.558, 8.242e-5
-1.557, 8.097e-5
-1.556, 7.935e-5
-1.555, 7.782e-5
-1.554, 7.638e-5
-1.553, 7.488e-5
-1.552, 7.348e-5
-1.551, 7.199e-5
-1.550, 7.062e-5
-1.549, 6.923e-5
-1.548, 6.791e-5
-1.547, 6.660e-5
-1.546, 6.531e-5
-1.545, 6.402e-5
-1.544, 6.282e-5
-1.543, 6.157e-5
-1.542, 6.037e-5
-1.541, 5.925e-5
-1.540, 5.807e-5
-1.539, 5.702e-5
-1.538, 5.587e-5
-1.537, 5.477e-5
-1.536, 5.370e-5
-1.535, 5.265e-5
-1.534, 5.161e-5
-1.533, 5.068e-5
-1.532, 4.967e-5
-1.531, 4.871e-5
-1.530, 4.782e-5
-1.529, 4.680e-5
-1.528, 4.600e-5
-1.527, 4.503e-5
-1.526, 4.417e-5
-1.525, 4.328e-5
-1.524, 4.246e-5
-1.523, 4.162e-5
-1.522, 4.077e-5
-1.521, 4.005e-5
-1.520, 3.924e-5
-1.519, 3.851e-5
-1.518, 3.770e-5
-1.517, 3.701e-5
-1.516, 3.625e-5
-1.515, 3.555e-5
-1.514, 3.488e-5
-1.513, 3.419e-5
-1.512, 3.355e-5
-1.511, 3.290e-5
-1.510, 3.220e-5
-1.509, 3.158e-5
-1.508, 3.097e-5
-1.507, 3.027e-5
-1.506, 2.974e-5
-1.505, 2.914e-5
-1.504, 2.859e-5
-1.503, 2.801e-5
-1.502, 2.743e-5
-1.501, 2.694e-5
-1.500, 2.633e-5
-1.499, 2.582e-5
-1.498, 2.528e-5
-1.497, 2.478e-5
-1.496, 2.428e-5
-1.495, 2.384e-5
-1.494, 2.335e-5
-1.493, 2.287e-5
-1.492, 2.241e-5
-1.491, 2.197e-5
-1.490, 2.153e-5
-1.489, 2.108e-5
-1.488, 2.068e-5
-1.487, 2.022e-5
-1.486, 1.985e-5
-1.485, 1.938e-5
-1.484, 1.903e-5
-1.483, 1.864e-5
-1.482, 1.829e-5
-1.481, 1.786e-5
-1.480, 1.753e-5
-1.479, 1.716e-5
-1.478, 1.681e-5
-1.477, 1.644e-5
-1.476, 1.613e-5
-1.475, 1.579e-5
-1.474, 1.545e-5
-1.473, 1.518e-5
-1.472, 1.482e-5
-1.471, 1.453e-5
-1.470, 1.422e-5
-1.469, 1.393e-5
-1.468, 1.364e-5
-1.467, 1.335e-5
-1.466, 1.306e-5
-1.465, 1.283e-5
-1.464, 1.255e-5
-1.463, 1.227e-5
-1.462, 1.199e-5
-1.461, 1.176e-5
-1.460, 1.151e-5
-1.459, 1.126e-5
-1.458, 1.109e-5
-1.457, 1.076e-5
-1.456, 1.059e-5
-1.455, 1.034e-5
-1.454, 1.013e-5
-1.453, 9.898e-6
-1.452, 9.691e-6
-1.451, 9.457e-6
-1.450, 9.289e-6
-1.449, 9.075e-6
-1.448, 8.866e-6
-1.447, 8.670e-6
-1.446, 8.506e-6
-1.445, 8.325e-6
-1.444, 8.129e-6
-1.443, 7.939e-6
-1.442, 7.741e-6
-1.441, 7.619e-6
-1.440, 7.424e-6
-1.439, 7.301e-6
-1.438, 7.105e-6
-1.437, 6.980e-6
-1.436, 6.805e-6
-1.435, 6.662e-6
-1.434, 6.488e-6
-1.433, 6.330e-6
-1.432, 6.182e-6
-1.431, 6.068e-6
-1.430, 5.911e-6
-1.429, 5.776e-6
-1.428, 5.682e-6
-1.427, 5.520e-6
-1.426, 5.388e-6
-1.425, 5.263e-6
-1.424, 5.157e-6
-1.423, 5.027e-6
-1.422, 4.903e-6
-1.421, 4.776e-6
-1.420, 4.653e-6
-1.419, 4.562e-6
-1.418, 4.489e-6
-1.417, 4.357e-6
-1.416, 4.258e-6
-1.415, 4.129e-6
-1.414, 4.023e-6
-1.413, 3.966e-6
-1.412, 3.852e-6
-1.411, 3.731e-6
-1.410, 3.641e-6
-1.409, 3.578e-6
-1.408, 3.479e-6
-1.407, 3.378e-6
-1.406, 3.267e-6
-1.405, 3.222e-6
-1.404, 3.134e-6
-1.403, 3.074e-6
-1.402, 2.946e-6
-1.401, 2.879e-6
-1.400, 2.822e-6
-1.399, 2.787e-6
-1.398, 2.672e-6
-1.397, 2.623e-6
-1.396, 2.524e-6
-1.395, 2.497e-6
-1.394, 2.417e-6
-1.393, 2.327e-6
-1.392, 2.261e-6
-1.391, 2.208e-6
-1.390, 2.161e-6
-1.389, 2.068e-6
-1.388, 2.033e-6
-1.387, 1.943e-6
-1.386, 1.902e-6
-1.385, 1.812e-6
-1.384, 1.831e-6
-1.383, 1.728e-6
-1.382, 1.687e-6
-1.381, 1.590e-6
-1.380, 1.600e-6
-1.379, 1.507e-6
-1.378, 1.491e-6
-1.377, 1.432e-6
-1.376, 1.377e-6
-1.375, 1.344e-6
-1.374, 1.274e-6
-1.373, 1.258e-6
-1.372, 1.171e-6
-1.371, 1.159e-6
-1.370, 1.115e-6
-1.369, 1.082e-6
-1.368, 1.026e-6
-1.367, 9.973e-7
-1.366, 9.292e-7
-1.365, 9.025e-7
-1.364, 8.720e-7
-1.363, 8.374e-7
-1.362, 7.832e-7
-1.361, 7.585e-7
-1.360, 7.467e-7
-1.359, 7.042e-7
-1.358, 6.796e-7
-1.357, 6.066e-7
-1.356, 5.839e-7
-1.355, 5.385e-7
-1.354, 5.326e-7
-1.353, 5.079e-7
-1.352, 4.329e-7
-1.351, 4.546e-7
-1.350, 4.023e-7
-1.349, 3.787e-7
-1.348, 3.530e-7
-1.347, 2.978e-7
-1.346, 2.366e-7
-1.345, 2.810e-7
-1.344, 1.932e-7
-1.343, 1.912e-7
-1.342, 1.488e-7
-1.341, 1.498e-7
-1.340, 1.123e-7
-1.339, 1.202e-7
-1.338, 1.014e-7
-1.337, 6.393e-8
-1.336, 4.736e-9
-1.335, -2.171e-9
-1.334, -1.500e-8
-1.333, -4.065e-8
-1.332, -8.998e-8
-1.331, -9.491e-8
-1.330, -9.590e-8
-1.329, -1.541e-7
-1.328, -1.225e-7
-1.327, -1.798e-7
-1.326, -2.064e-7
-1.325, -2.212e-7
-1.324, -2.409e-7
-1.323, -2.774e-7
-1.322, -2.705e-7
-1.321, -2.962e-7
-1.320, -2.991e-7
-1.319, -3.465e-7
-1.318, -3.110e-7
-1.317, -4.116e-7
-1.316, -3.879e-7
-1.315, -4.047e-7
-1.314, -4.195e-7
-1.313, -4.442e-7
-1.312, -4.708e-7
-1.311, -4.767e-7
-1.310, -4.895e-7
-1.309, -4.876e-7
-1.308, -5.014e-7
-1.307, -5.547e-7
-1.306, -5.704e-7
-1.305, -5.724e-7
-1.304, -5.872e-7
-1.303, -5.576e-7
-1.302, -6.287e-7
-1.301, -6.109e-7
-1.300, -6.484e-7
-1.299, -6.573e-7
-1.298, -6.770e-7
-1.297, -6.957e-7
-1.296, -7.165e-7
-1.295, -7.342e-7
-1.294, -7.372e-7
-1.293, -7.283e-7
-1.292, -7.836e-7
-1.291, -7.678e-7
-1.290, -8.319e-7
-1.289, -7.855e-7
-1.288, -8.447e-7
-1.287, -8.201e-7
-1.286, -8.802e-7
-1.285, -8.497e-7
-1.284, -8.733e-7
-1.283, -8.575e-7
-1.282, -9.059e-7
-1.281, -8.773e-7
-1.280, -9.237e-7
-1.279, -9.197e-7
-1.278, -9.493e-7
-1.277, -9.542e-7
-1.276, -9.592e-7
-1.275, -9.947e-7
-1.274, -9.641e-7
-1.273, -1.028e-6
-1.272, -1.008e-6
-1.271, -1.021e-6
-1.270, -1.011e-6
-1.269, -1.045e-6
-1.268, -1.055e-6
-1.267, -1.109e-6
-1.266, -1.055e-6
-1.265, -1.105e-6
-1.264, -1.075e-6
-1.263, -1.100e-6
-1.262, -1.143e-6
-1.261, -1.138e-6
-1.260, -1.144e-6
-1.259, -1.129e-6
-1.258, -1.195e-6
-1.257, -1.156e-6
-1.256, -1.193e-6
-1.255, -1.175e-6
-1.254, -1.224e-6
-1.253, -1.205e-6
-1.252, -1.270e-6
-1.251, -1.256e-6
-1.250, -1.229e-6
-1.249, -1.242e-6
-1.248, -1.256e-6
-1.247, -1.274e-6
-1.246, -1.253e-6
-1.245, -1.286e-6
-1.244, -1.291e-6
-1.243, -1.331e-6
-1.242, -1.308e-6
-1.241, -1.343e-6
-1.240, -1.323e-6
-1.239, -1.353e-6
-1.238, -1.361e-6
-1.237, -1.400e-6
-1.236, -1.323e-6
-1.235, -1.417e-6
-1.234, -1.376e-6
-1.233, -1.422e-6
-1.232, -1.427e-6
-1.231, -1.432e-6
-1.230, -1.441e-6
-1.229, -1.437e-6
-1.228, -1.431e-6
-1.227, -1.468e-6
-1.226, -1.481e-6
-1.225, -1.474e-6
-1.224, -1.492e-6
-1.223, -1.468e-6
-1.222, -1.514e-6
-1.221, -1.514e-6
-1.220, -1.528e-6
-1.219, -1.496e-6
-1.218, -1.554e-6
-1.217, -1.513e-6
-1.216, -1.577e-6
-1.215, -1.543e-6
-1.214, -1.560e-6
-1.213, -1.560e-6
-1.212, -1.567e-6
-1.211, -1.536e-6
-1.210, -1.589e-6
-1.209, -1.566e-6
-1.208, -1.583e-6
-1.207, -1.601e-6
-1.206, -1.592e-6
-1.205, -1.611e-6
-1.204, -1.621e-6
-1.203, -1.648e-6
-1.202, -1.656e-6
-1.201, -1.675e-6
-1.200, -1.637e-6
-1.199, -1.651e-6
-1.198, -1.653e-6
-1.197, -1.679e-6
-1.196, -1.676e-6
-1.195, -1.691e-6
-1.194, -1.676e-6
-1.193, -1.714e-6
-1.192, -1.687e-6
-1.191, -1.675e-6
-1.190, -1.718e-6
-1.189, -1.705e-6
-1.188, -1.713e-6
-1.187, -1.735e-6
-1.186, -1.723e-6
-1.185, -1.736e-6
-1.184, -1.716e-6
-1.183, -1.724e-6
-1.182, -1.762e-6
-1.181, -1.750e-6
-1.180, -1.795e-6
-1.179, -1.712e-6
-1.178, -1.789e-6
-1.177, -1.798e-6
-1.176, -1.830e-6
-1.175, -1.796e-6
-1.174, -1.821e-6
-1.173, -1.801e-6
-1.172, -1.818e-6
-1.171, -1.837e-6
-1.170, -1.819e-6
-1.169, -1.834e-6
-1.168, -1.826e-6
-1.167, -1.864e-6
-1.166, -1.831e-6
-1.165, -1.852e-6
-1.164, -1.854e-6
-1.163, -1.895e-6
-1.162, -1.889e-6
-1.161, -1.868e-6
-1.160, -1.861e-6
-1.159, -1.878e-6
-1.158, -1.887e-6
-1.157, -1.916e-6
-1.156, -1.880e-6
-1.155, -1.894e-6
-1.154, -1.904e-6
-1.153, -1.939e-6
-1.152, -1.945e-6
-1.151, -1.913e-6
-1.150, -1.961e-6
-1.149, -1.926e-6
-1.148, -1.936e-6
-1.147, -1.943e-6
-1.146, -1.962e-6
-1.145, -1.941e-6
-1.144, -1.951e-6
-1.143, -1.925e-6
-1.142, -1.975e-6
-1.141, -1.980e-6
-1.140, -1.972e-6
-1.139, -1.985e-6
-1.138, -1.986e-6
-1.137, -2.005e-6
-1.136, -1.991e-6
-1.135, -2.013e-6
-1.134, -2.003e-6
-1.133, -2.030e-6
-1.132, -2.025e-6
-1.131, -2.039e-6
-1.130, -2.011e-6
-1.129, -2.046e-6
-1.128, -2.014e-6
-1.127, -2.068e-6
-1.126, -2.058e-6
-1.125, -2.080e-6
-1.124, -2.044e-6
-1.123, -2.058e-6
-1.122, -2.097e-6
-1.121, -2.097e-6
-1.120, -2.051e-6
-1.119, -2.083e-6
-1.118, -2.099e-6
-1.117, -2.121e-6
-1.116, -2.125e-6
-1.115, -2.110e-6
-1.114, -2.114e-6
-1.113, -2.126e-6
-1.112, -2.136e-6
-1.111, -2.142e-6
-1.110, -2.157e-6
-1.109, -2.147e-6
-1.108, -2.131e-6
-1.107, -2.173e-6
-1.106, -2.197e-6
-1.105, -2.160e-6
-1.104, -2.206e-6
-1.103, -2.178e-6
-1.102, -2.233e-6
-1.101, -2.192e-6
-1.100, -2.205e-6
-1.099, -2.210e-6
-1.098, -2.222e-6
-1.097, -2.236e-6
-1.096, -2.210e-6
-1.095, -2.269e-6
-1.094, -2.235e-6
-1.093, -2.281e-6
-1.092, -2.247e-6
-1.091, -2.272e-6
-1.090, -2.253e-6
-1.089, -2.320e-6
-1.088, -2.274e-6
-1.087, -2.318e-6
-1.086, -2.284e-6
-1.085, -2.330e-6
-1.084, -2.302e-6
-1.083, -2.307e-6
-1.082, -2.306e-6
-1.081, -2.357e-6
-1.080, -2.338e-6
-1.079, -2.330e-6
-1.078, -2.340e-6
-1.077, -2.362e-6
-1.076, -2.358e-6
-1.075, -2.382e-6
-1.074, -2.429e-6
-1.073, -2.362e-6
-1.072, -2.406e-6
-1.071, -2.380e-6
-1.070, -2.386e-6
-1.069, -2.385e-6
-1.068, -2.404e-6
-1.067, -2.424e-6
-1.066, -2.435e-6
-1.065, -2.432e-6
-1.064, -2.412e-6
-1.063, -2.408e-6
-1.062, -2.439e-6
-1.061, -2.438e-6
-1.060, -2.448e-6
-1.059, -2.479e-6
-1.058, -2.436e-6
-1.057, -2.514e-6
-1.056, -2.455e-6
-1.055, -2.500e-6
-1.054, -2.460e-6
-1.053, -2.449e-6
-1.052, -2.512e-6
-1.051, -2.480e-6
-1.050, -2.512e-6
-1.049, -2.482e-6
-1.048, -2.518e-6
-1.047, -2.515e-6
-1.046, -2.532e-6
-1.045, -2.486e-6
-1.044, -2.531e-6
-1.043, -2.510e-6
-1.042, -2.530e-6
-1.041, -2.539e-6
-1.040, -2.543e-6
-1.039, -2.518e-6
-1.038, -2.518e-6
-1.037, -2.533e-6
-1.036, -2.547e-6
-1.035, -2.570e-6
-1.034, -2.543e-6
-1.033, -2.554e-6
-1.032, -2.551e-6
-1.031, -2.572e-6
-1.030, -2.559e-6
-1.029, -2.572e-6
-1.028, -2.558e-6
-1.027, -2.593e-6
-1.026, -2.566e-6
-1.025, -2.587e-6
-1.024, -2.594e-6
-1.023, -2.581e-6
-1.022, -2.631e-6
-1.021, -2.596e-6
-1.020, -2.634e-6
-1.019, -2.612e-6
-1.018, -2.616e-6
-1.017, -2.617e-6
-1.016, -2.621e-6
-1.015, -2.638e-6
-1.014, -2.639e-6
-1.013, -2.614e-6
-1.012, -2.656e-6
-1.011, -2.635e-6
-1.010, -2.645e-6
-1.009, -2.663e-6
-1.008, -2.636e-6
-1.007, -2.675e-6
-1.006, -2.661e-6
-1.005, -2.642e-6
-1.004, -2.643e-6
-1.003, -2.671e-6
-1.002, -2.677e-6
-1.001, -2.680e-6
-1.000, -2.101e-6
-1.001, -1.757e-6
-1.002, -1.537e-6
-1.003, -1.436e-6
-1.004, -1.285e-6
-1.005, -1.201e-6
-1.006, -1.078e-6
-1.007, -1.001e-6
-1.008, -9.444e-7
-1.009, -8.714e-7
-1.010, -8.181e-7
-1.011, -7.480e-7
-1.012, -6.809e-7
-1.013, -6.227e-7
-1.014, -5.922e-7
-1.015, -5.576e-7
-1.016, -5.152e-7
-1.017, -4.333e-7
-1.018, -4.234e-7
-1.019, -3.554e-7
-1.020, -3.495e-7
-1.021, -2.952e-7
-1.022, -2.824e-7
-1.023, -2.577e-7
-1.024, -2.350e-7
-1.025, -1.561e-7
-1.026, -1.709e-7
-1.027, -1.097e-7
-1.028, -1.452e-7
-1.029, -7.419e-8
-1.030, -5.051e-8
-1.031, -9.077e-9
-1.032, -4.144e-9
-1.033, 2.940e-8
-1.034, 3.631e-8
-1.035, 3.236e-8
-1.036, 7.774e-8
-1.037, 7.676e-8
-1.038, 1.044e-7
-1.039, 1.093e-7
-1.040, 1.685e-7
-1.041, 1.508e-7
-1.042, 2.040e-7
-1.043, 1.606e-7
-1.044, 2.169e-7
-1.045, 2.119e-7
-1.046, 2.583e-7
-1.047, 2.366e-7
-1.048, 2.810e-7
-1.049, 2.839e-7
-1.050, 3.047e-7
-1.051, 3.106e-7
-1.052, 3.303e-7
-1.053, 3.441e-7
-1.054, 3.570e-7
-1.055, 3.787e-7
-1.056, 3.747e-7
-1.057, 3.639e-7
-1.058, 3.737e-7
-1.059, 4.102e-7
-1.060, 3.935e-7
-1.061, 4.398e-7
-1.062, 4.349e-7
-1.063, 4.783e-7
-1.064, 4.428e-7
-1.065, 4.803e-7
-1.066, 4.605e-7
-1.067, 4.872e-7
-1.068, 4.882e-7
-1.069, 4.892e-7
-1.070, 5.286e-7
-1.071, 5.395e-7
-1.072, 5.592e-7
-1.073, 5.326e-7
-1.074, 5.691e-7
-1.075, 5.464e-7
-1.076, 5.740e-7
-1.077, 5.612e-7
-1.078, 5.977e-7
-1.079, 5.720e-7
-1.080, 6.184e-7
-1.081, 6.085e-7
-1.082, 6.184e-7
-1.083, 6.342e-7
-1.084, 6.362e-7
-1.085, 6.510e-7
-1.086, 6.490e-7
-1.087, 6.588e-7
-1.088, 6.746e-7
-1.089, 6.806e-7
-1.090, 6.855e-7
-1.091, 6.756e-7
-1.092, 6.549e-7
-1.093, 7.121e-7
-1.094, 7.003e-7
-1.095, 7.457e-7
-1.096, 7.151e-7
-1.097, 7.240e-7
-1.098, 7.328e-7
-1.099, 7.230e-7
-1.100, 7.397e-7
-1.101, 7.427e-7
-1.102, 7.644e-7
-1.103, 7.911e-7
-1.104, 7.851e-7
-1.105, 7.901e-7
-1.106, 8.039e-7
-1.107, 7.654e-7
-1.108, 7.980e-7
-1.109, 8.128e-7
-1.110, 8.414e-7
-1.111, 8.384e-7
-1.112, 8.276e-7
-1.113, 8.384e-7
-1.114, 8.443e-7
-1.115, 8.335e-7
-1.116, 8.828e-7
-1.117, 8.739e-7
-1.118, 8.532e-7
-1.119, 8.877e-7
-1.120, 8.828e-7
-1.121, 9.183e-7
-1.122, 8.759e-7
-1.123, 9.134e-7
-1.124, 8.838e-7
-1.125, 9.223e-7
-1.126, 9.213e-7
-1.127, 9.627e-7
-1.128, 9.242e-7
-1.129, 9.420e-7
-1.130, 9.430e-7
-1.131, 9.667e-7
-1.132, 9.598e-7
-1.133, 1.008e-6
-1.134, 9.686e-7
-1.135, 1.000e-6
-1.136, 1.032e-6
-1.137, 9.854e-7
-1.138, 1.005e-6
-1.139, 1.001e-6
-1.140, 1.038e-6
-1.141, 1.024e-6
-1.142, 1.034e-6
-1.143, 1.013e-6
-1.144, 1.042e-6
-1.145, 1.062e-6
-1.146, 1.102e-6
-1.147, 1.040e-6
-1.148, 1.102e-6
-1.149, 1.076e-6
-1.150, 1.081e-6
-1.151, 1.090e-6
-1.152, 1.099e-6
-1.153, 1.137e-6
-1.154, 1.108e-6
-1.155, 1.162e-6
-1.156, 1.158e-6
-1.157, 1.152e-6
-1.158, 1.145e-6
-1.159, 1.175e-6
-1.160, 1.153e-6
-1.161, 1.204e-6
-1.162, 1.184e-6
-1.163, 1.181e-6
-1.164, 1.164e-6
-1.165, 1.236e-6
-1.166, 1.235e-6
-1.167, 1.230e-6
-1.168, 1.239e-6
-1.169, 1.249e-6
-1.170, 1.262e-6
-1.171, 1.269e-6
-1.172, 1.273e-6
-1.173, 1.277e-6
-1.174, 1.282e-6
-1.175, 1.276e-6
-1.176, 1.326e-6
-1.177, 1.310e-6
-1.178, 1.344e-6
-1.179, 1.302e-6
-1.180, 1.357e-6
-1.181, 1.353e-6
-1.182, 1.380e-6
-1.183, 1.361e-6
-1.184, 1.388e-6
-1.185, 1.369e-6
-1.186, 1.414e-6
-1.187, 1.393e-6
-1.188, 1.428e-6
-1.189, 1.409e-6
-1.190, 1.405e-6
-1.191, 1.436e-6
-1.192, 1.443e-6
-1.193, 1.462e-6
-1.194, 1.431e-6
-1.195, 1.478e-6
-1.196, 1.466e-6
-1.197, 1.504e-6
-1.198, 1.493e-6
-1.199, 1.495e-6
-1.200, 1.485e-6
-1.201, 1.531e-6
-1.202, 1.520e-6
-1.203, 1.551e-6
-1.204, 1.528e-6
-1.205, 1.559e-6
-1.206, 1.575e-6
-1.207, 1.581e-6
-1.208, 1.566e-6
-1.209, 1.570e-6
-1.210, 1.598e-6
-1.211, 1.643e-6
-1.212, 1.613e-6
-1.213, 1.631e-6
-1.214, 1.639e-6
-1.215, 1.621e-6
-1.216, 1.692e-6
-1.217, 1.669e-6
-1.218, 1.686e-6
-1.219, 1.665e-6
-1.220, 1.713e-6
-1.221, 1.700e-6
-1.222, 1.724e-6
-1.223, 1.751e-6
-1.224, 1.685e-6
-1.225, 1.728e-6
-1.226, 1.754e-6
-1.227, 1.768e-6
-1.228, 1.796e-6
-1.229, 1.759e-6
-1.230, 1.799e-6
-1.231, 1.820e-6
-1.232, 1.811e-6
-1.233, 1.854e-6
-1.234, 1.826e-6
-1.235, 1.866e-6
-1.236, 1.847e-6
-1.237, 1.908e-6
-1.238, 1.848e-6
-1.239, 1.870e-6
-1.240, 1.876e-6
-1.241, 1.901e-6
-1.242, 1.905e-6
-1.243, 1.936e-6
-1.244, 1.895e-6
-1.245, 1.917e-6
-1.246, 1.964e-6
-1.247, 1.952e-6
-1.248, 2.001e-6
-1.249, 1.962e-6
-1.250, 2.020e-6
-1.251, 2.007e-6
-1.252, 2.021e-6
-1.253, 1.990e-6
-1.254, 2.032e-6
-1.255, 2.022e-6
-1.256, 2.082e-6
-1.257, 2.043e-6
-1.258, 2.088e-6
-1.259, 2.076e-6
-1.260, 2.109e-6
-1.261, 2.127e-6
-1.262, 2.131e-6
-1.263, 2.135e-6
-1.264, 2.105e-6
-1.265, 2.142e-6
-1.266, 2.163e-6
-1.267, 2.146e-6
-1.268, 2.161e-6
-1.269, 2.163e-6
-1.270, 2.172e-6
-1.271, 2.230e-6
-1.272, 2.186e-6
-1.273, 2.234e-6
-1.274, 2.217e-6
-1.275, 2.241e-6
-1.276, 2.246e-6
-1.277, 2.298e-6
-1.278, 2.257e-6
-1.279, 2.261e-6
-1.280, 2.299e-6
-1.281, 2.351e-6
-1.282, 2.323e-6
-1.283, 2.362e-6
-1.284, 2.328e-6
-1.285, 2.344e-6
-1.286, 2.387e-6
-1.287, 2.372e-6
-1.288, 2.413e-6
-1.289, 2.404e-6
-1.290, 2.432e-6
-1.291, 2.425e-6
-1.292, 2.447e-6
-1.293, 2.442e-6
-1.294, 2.455e-6
-1.295, 2.495e-6
-1.296, 2.531e-6
-1.297, 2.497e-6
-1.298, 2.558e-6
-1.299, 2.545e-6
-1.300, 2.562e-6
-1.301, 2.603e-6
-1.302, 2.580e-6
-1.303, 2.622e-6
-1.304, 2.554e-6
-1.305, 2.666e-6
-1.306, 2.689e-6
-1.307, 2.682e-6
-1.308, 2.688e-6
-1.309, 2.685e-6
-1.310, 2.735e-6
-1.311, 2.711e-6
-1.312, 2.773e-6
-1.313, 2.806e-6
-1.314, 2.802e-6
-1.315, 2.819e-6
-1.316, 2.891e-6
-1.317, 2.859e-6
-1.318, 2.893e-6
-1.319, 2.883e-6
-1.320, 2.919e-6
-1.321, 2.941e-6
-1.322, 2.988e-6
-1.323, 2.986e-6
-1.324, 2.973e-6
-1.325, 3.023e-6
-1.326, 3.062e-6
-1.327, 3.078e-6
-1.328, 3.110e-6
-1.329, 3.132e-6
-1.330, 3.143e-6
-1.331, 3.222e-6
-1.332, 3.211e-6
-1.333, 3.270e-6
-1.334, 3.234e-6
-1.335, 3.315e-6
-1.336, 3.341e-6
-1.337, 3.353e-6
-1.338, 3.401e-6
-1.339, 3.382e-6
-1.340, 3.467e-6
-1.341, 3.443e-6
-1.342, 3.502e-6
-1.343, 3.515e-6
-1.344, 3.545e-6
-1.345, 3.605e-6
-1.346, 3.647e-6
-1.347, 3.667e-6
-1.348, 3.726e-6
-1.349, 3.713e-6
-1.350, 3.747e-6
-1.351, 3.825e-6
-1.352, 3.841e-6
-1.353, 3.872e-6
-1.354, 3.876e-6
-1.355, 3.991e-6
-1.356, 3.998e-6
-1.357, 4.039e-6
-1.358, 4.107e-6
-1.359, 4.105e-6
-1.360, 4.152e-6
-1.361, 4.182e-6
-1.362, 4.256e-6
-1.363, 4.276e-6
-1.364, 4.306e-6
-1.365, 4.365e-6
-1.366, 4.429e-6
-1.367, 4.464e-6
-1.368, 4.490e-6
-1.369, 4.488e-6
-1.370, 4.612e-6
-1.371, 4.681e-6
-1.372, 4.681e-6
-1.373, 4.789e-6
-1.374, 4.746e-6
-1.375, 4.853e-6
-1.376, 4.874e-6
-1.377, 4.957e-6
-1.378, 4.988e-6
-1.379, 5.036e-6
-1.380, 5.118e-6
-1.381, 5.174e-6
-1.382, 5.225e-6
-1.383, 5.283e-6
-1.384, 5.293e-6
-1.385, 5.403e-6
-1.386, 5.427e-6
-1.387, 5.492e-6
-1.388, 5.590e-6
-1.389, 5.596e-6
-1.390, 5.706e-6
-1.391, 5.748e-6
-1.392, 5.790e-6
-1.393, 5.859e-6
-1.394, 5.926e-6
-1.395, 6.008e-6
-1.396, 6.050e-6
-1.397, 6.149e-6
-1.398, 6.200e-6
-1.399, 6.250e-6
-1.400, 6.303e-6
-1.401, 6.426e-6
-1.402, 6.470e-6
-1.403, 6.577e-6
-1.404, 6.597e-6
-1.405, 6.701e-6
-1.406, 6.756e-6
-1.407, 6.867e-6
-1.408, 6.896e-6
-1.409, 6.991e-6
-1.410, 7.118e-6
-1.411, 7.182e-6
-1.412, 7.255e-6
-1.413, 7.298e-6
-1.414, 7.389e-6
-1.415, 7.502e-6
-1.416, 7.574e-6
-1.417, 7.653e-6
-1.418, 7.770e-6
-1.419, 7.809e-6
-1.420, 7.906e-6
-1.421, 8.048e-6
-1.422, 8.104e-6
-1.423, 8.233e-6
-1.424, 8.253e-6
-1.425, 8.406e-6
-1.426, 8.480e-6
-1.427, 8.605e-6
-1.428, 8.647e-6
-1.429, 8.776e-6
-1.430, 8.872e-6
-1.431, 8.991e-6
-1.432, 9.074e-6
-1.433, 9.197e-6
-1.434, 9.309e-6
-1.435, 9.418e-6
-1.436, 9.582e-6
-1.437, 9.610e-6
-1.438, 9.794e-6
-1.439, 9.851e-6
-1.440, 9.979e-6
-1.441, 1.011e-5
-1.442, 1.022e-5
-1.443, 1.034e-5
-1.444, 1.042e-5
-1.445, 1.057e-5
-1.446, 1.067e-5
-1.447, 1.082e-5
-1.448, 1.092e-5
-1.449, 1.103e-5
-1.450, 1.117e-5
-1.451, 1.133e-5
-1.452, 1.144e-5
-1.453, 1.161e-5
-1.454, 1.171e-5
-1.455, 1.190e-5
-1.456, 1.198e-5
-1.457, 1.214e-5
-1.458, 1.229e-5
-1.459, 1.244e-5
-1.460, 1.262e-5
-1.461, 1.276e-5
-1.462, 1.291e-5
-1.463, 1.306e-5
-1.464, 1.321e-5
-1.465, 1.336e-5
-1.466, 1.357e-5
-1.467, 1.369e-5
-1.468, 1.387e-5
-1.469, 1.399e-5
-1.470, 1.423e-5
-1.471, 1.438e-5
-1.472, 1.458e-5
-1.473, 1.474e-5
-1.474, 1.492e-5
-1.475, 1.507e-5
-1.476, 1.531e-5
-1.477, 1.546e-5
-1.478, 1.568e-5
-1.479, 1.583e-5
-1.480, 1.608e-5
-1.481, 1.626e-5
-1.482, 1.650e-5
-1.483, 1.670e-5
-1.484, 1.686e-5
-1.485, 1.710e-5
-1.486, 1.733e-5
-1.487, 1.750e-5
-1.488, 1.775e-5
-1.489, 1.794e-5
-1.490, 1.819e-5
-1.491, 1.842e-5
-1.492, 1.864e-5
-1.493, 1.891e-5
-1.494, 1.910e-5
-1.495, 1.940e-5
-1.496, 1.962e-5
-1.497, 1.989e-5
-1.498, 2.013e-5
-1.499, 2.038e-5
-1.500, 2.063e-5
-1.501, 2.096e-5
-1.502, 2.118e-5
-1.503, 2.149e-5
-1.504, 2.171e-5
-1.505, 2.206e-5
-1.506, 2.234e-5
-1.507, 2.261e-5
-1.508, 2.295e-5
-1.509, 2.320e-5
-1.510, 2.352e-5
-1.511, 2.386e-5
-1.512, 2.421e-5
-1.513, 2.453e-5
-1.514, 2.488e-5
-1.515, 2.518e-5
-1.516, 2.555e-5
-1.517, 2.588e-5
-1.518, 2.626e-5
-1.519, 2.662e-5
-1.520, 2.703e-5
-1.521, 2.740e-5
-1.522, 2.774e-5
-1.523, 2.818e-5
-1.524, 2.849e-5
-1.525, 2.891e-5
-1.526, 2.937e-5
-1.527, 2.976e-5
-1.528, 3.023e-5
-1.529, 3.067e-5
-1.530, 3.113e-5
-1.531, 3.161e-5
-1.532, 3.201e-5
-1.533, 3.251e-5
-1.534, 3.298e-5
-1.535, 3.347e-5
-1.536, 3.394e-5
-1.537, 3.449e-5
-1.538, 3.500e-5
-1.539, 3.551e-5
-1.540, 3.607e-5
-1.541, 3.669e-5
-1.542, 3.719e-5
-1.543, 3.777e-5
-1.544, 3.836e-5
-1.545, 3.896e-5
-1.546, 3.949e-5
-1.547, 4.019e-5
-1.548, 4.089e-5
-1.549, 4.140e-5
-1.550, 4.214e-5
-1.551, 4.288e-5
-1.552, 4.352e-5
-1.553, 4.420e-5
-1.554, 4.501e-5
-1.555, 4.570e-5
-1.556, 4.655e-5
-1.557, 4.728e-5
-1.558, 4.803e-5
-1.559, 4.885e-5
-1.560, 4.973e-5
-1.561, 5.054e-5
-1.562, 5.145e-5
-1.563, 5.232e-5
-1.564, 5.320e-5
-1.565, 5.414e-5
-1.566, 5.505e-5
-1.567, 5.608e-5
-1.568, 5.707e-5
-1.569, 5.801e-5
-1.570, 5.902e-5
-1.571, 6.000e-5
-1.572, 6.104e-5
-1.573, 6.229e-5
-1.574, 6.326e-5
-1.575, 6.457e-5
-1.576, 6.558e-5
-1.577, 6.698e-5
-1.578, 6.817e-5
-1.579, 6.947e-5
-1.580, 7.077e-5
-1.581, 7.206e-5
-1.582, 7.328e-5
-1.583, 7.469e-5
-1.584, 7.628e-5
-1.585, 7.774e-5
-1.586, 7.922e-5
-1.587, 8.077e-5
-1.588, 8.227e-5
-1.589, 8.385e-5
-1.590, 8.562e-5
-1.591, 8.728e-5
-1.592, 8.900e-5
-1.593, 9.080e-5
-1.594, 9.260e-5
-1.595, 9.439e-5
-1.596, 9.634e-5
-1.597, 9.827e-5
-1.598, 1.003e-4
-1.599, 1.023e-4
-1.600, 1.044e-4
-1.601, 1.065e-4
-1.602, 1.087e-4
-1.603, 1.109e-4
-1.604, 1.132e-4
-1.605, 1.156e-4
-1.606, 1.180e-4
-1.607, 1.203e-4
-1.608, 1.229e-4
-1.609, 1.255e-4
-1.610, 1.280e-4
-1.611, 1.307e-4
-1.612, 1.336e-4
-1.613, 1.364e-4
-1.614, 1.393e-4
-1.615, 1.423e-4
-1.616, 1.453e-4
-1.617, 1.485e-4
-1.618, 1.516e-4
-1.619, 1.550e-4
-1.620, 1.583e-4
-1.621, 1.618e-4
-1.622, 1.653e-4
-1.623, 1.690e-4
-1.624, 1.727e-4
-1.625, 1.765e-4
-1.626, 1.803e-4
-1.627, 1.844e-4
-1.628, 1.884e-4
-1.629, 1.925e-4
-1.630, 1.968e-4
-1.631, 2.011e-4
-1.632, 2.057e-4
-1.633, 2.102e-4
-1.634, 2.149e-4
-1.635, 2.196e-4
-1.636, 2.248e-4
-1.637, 2.298e-4
-1.638, 2.349e-4
-1.639, 2.403e-4
-1.640, 2.457e-4
-1.641, 2.513e-4
-1.642, 2.571e-4
-1.643, 2.628e-4
-1.644, 2.689e-4
-1.645, 2.751e-4
-1.646, 2.814e-4
-1.647, 2.878e-4
-1.648, 2.943e-4
-1.649, 3.011e-4
-1.650, 3.080e-4
-1.651, 3.151e-4
-1.652, 3.223e-4
-1.653, 3.297e-4
-1.654, 3.372e-4
-1.655, 3.450e-4
-1.656, 3.529e-4
-1.657, 3.609e-4
-1.658, 3.692e-4
-1.659, 3.779e-4
-1.660, 3.867e-4
-1.661, 3.956e-4
-1.662, 4.048e-4
-1.663, 4.140e-4
-1.664, 4.235e-4
-1.665, 4.333e-4
-1.666, 4.432e-4
-1.667, 4.534e-4
-1.668, 4.639e-4
-1.669, 4.752e-4
-1.670, 4.864e-4
-1.671, 4.980e-4
-1.672, 5.091e-4
-1.673, 5.208e-4
-1.674, 5.327e-4
-1.675, 5.449e-4
-1.676, 5.574e-4
-1.677, 5.700e-4
-1.678, 5.826e-4
-1.679, 5.954e-4
-1.680, 6.086e-4
-1.681, 6.228e-4
-1.682, 6.373e-4
-1.683, 6.514e-4
-1.684, 6.659e-4
-1.685, 6.811e-4
-1.686, 6.965e-4
-1.687, 7.128e-4
-1.688, 7.285e-4
-1.689, 7.449e-4
-1.690, 7.616e-4
-1.691, 7.790e-4
-1.692, 7.969e-4
-1.693, 8.149e-4
-1.694, 8.329e-4
-1.695, 8.516e-4
-1.696, 8.705e-4
-1.697, 8.891e-4
-1.698, 9.084e-4
-1.699, 9.288e-4
-1.700, 9.372e-4
-1.699, 9.310e-4
-1.698, 9.235e-4
-1.697, 9.149e-4
-1.696, 9.060e-4
-1.695, 8.965e-4
-1.694, 8.870e-4
-1.693, 8.767e-4
-1.692, 8.660e-4
-1.691, 8.560e-4
-1.690, 8.453e-4
-1.689, 8.346e-4
-1.688, 8.240e-4
-1.687, 8.133e-4
-1.686, 8.024e-4
-1.685, 7.917e-4
-1.684, 7.810e-4
-1.683, 7.705e-4
-1.682, 7.597e-4
-1.681, 7.488e-4
-1.680, 7.382e-4
-1.679, 7.275e-4
-1.678, 7.171e-4
-1.677, 7.067e-4
-1.676, 6.962e-4
-1.675, 6.853e-4
-1.674, 6.749e-4
-1.673, 6.649e-4
-1.672, 6.545e-4
-1.671, 6.449e-4
-1.670, 6.347e-4
-1.669, 6.250e-4
-1.668, 6.154e-4
-1.667, 6.055e-4
-1.666, 5.956e-4
-1.665, 5.874e-4
-1.664, 5.772e-4
-1.663, 5.685e-4
-1.662, 5.591e-4
-1.661, 5.495e-4
-1.660, 5.417e-4
-1.659, 5.327e-4
-1.658, 5.221e-4
-1.657, 5.142e-4
-1.656, 5.049e-4
-1.655, 4.962e-4
-1.654, 4.878e-4
-1.653, 4.796e-4
-1.652, 4.714e-4
-1.651, 4.631e-4
-1.650, 4.553e-4
-1.649, 4.477e-4
-1.648, 4.399e-4
-1.647, 4.324e-4
-1.646, 4.247e-4
-1.645, 4.171e-4
-1.644, 4.102e-4
-1.643, 4.028e-4
-1.642, 3.962e-4
-1.641, 3.891e-4
-1.640, 3.820e-4
-1.639, 3.752e-4
-1.638, 3.686e-4
-1.637, 3.618e-4
-1.636, 3.556e-4
-1.635, 3.491e-4
-1.634, 3.429e-4
-1.633, 3.365e-4
-1.632, 3.308e-4
-1.631, 3.246e-4
-1.630, 3.188e-4
-1.629, 3.132e-4
-1.628, 3.075e-4
-1.627, 3.019e-4
-1.626, 2.964e-4
-1.625, 2.912e-4
-1.624, 2.859e-4
-1.623, 2.806e-4
-1.622, 2.754e-4
-1.621, 2.704e-4
-1.620, 2.655e-4
-1.619, 2.606e-4
-1.618, 2.558e-4
-1.617, 2.510e-4
-1.616, 2.464e-4
-1.615, 2.418e-4
-1.614, 2.371e-4
-1.613, 2.329e-4
-1.612, 2.285e-4
-1.611, 2.242e-4
-1.610, 2.201e-4
-1.609, 2.158e-4
-1.608, 2.122e-4
-1.607, 2.077e-4
-1.606, 2.037e-4
-1.605, 2.003e-4
-1.604, 1.961e-4
-1.603, 1.928e-4
-1.602, 1.889e-4
-1.601, 1.856e-4
-1.600, 1.820e-4
-1.599, 1.787e-4
-1.598, 1.751e-4
-1.597, 1.720e-4
-1.596, 1.688e-4
-1.595, 1.653e-4
-1.594, 1.625e-4
-1.593, 1.595e-4
-1.592, 1.562e-4
-1.591, 1.535e-4
-1.590, 1.504e-4
-1.589, 1.476e-4
-1.588, 1.449e-4
-1.587, 1.422e-4
-1.586, 1.396e-4
-1.585, 1.369e-4
-1.584, 1.342e-4
-1.583, 1.316e-4
-1.582, 1.292e-4
-1.581, 1.266e-4
-1.580, 1.242e-4
-1.579, 1.215e-4
-1.578, 1.194e-4
-1.577, 1.173e-4
-1.576, 1.152e-4
-1.575, 1.131e-4
-1.574, 1.109e-4
-1.573, 1.088e-4
-1.572, 1.067e-4
-1.571, 1.045e-4
-1.570, 1.027e-4
-1.569, 1.008e-4
-1.568, 9.889e-5
-1.567, 9.690e-5
-1.566, 9.511e-5
-1.565, 9.324e-5
-1.564, 9.155e-5
-1.563, 8.976e-5
-1.562, 8.806e-5
-1.561, 8.633e-5
-1.560, 8.481e-5
-1.559, 8.312e-5
-1.558, 8.146e-5
-1.557, 7.989e-5
-1.556, 7.844e-5
-1.555, 7.690e-5
-1.554, 7.562e-5
-1.553, 7.407e-5
-1.552, 7.251e-5
-1.551, 7.132e-5
-1.550, 7.000e-5
-1.549, 6.869e-5
-1.548, 6.734e-5
-1.547, 6.601e-5
-1.546, 6.474e-5
-1.545, 6.353e-5
-1.544, 6.227e-5
-1.543, 6.107e-5
-1.542, 5.983e-5
-1.541, 5.860e-5
-1.540, 5.772e-5
-1.539, 5.655e-5
-1.538, 5.545e-5
-1.537, 5.438e-5
-1.536, 5.335e-5
-1.535, 5.224e-5
-1.534, 5.112e-5
-1.533, 5.020e-5
-1.532, 4.915e-5
-1.531, 4.830e-5
-1.530, 4.735e-5
-1.529, 4.635e-5
-1.528, 4.555e-5
-1.527, 4.464e-5
-1.526, 4.381e-5
-1.525, 4.309e-5
-1.524, 4.224e-5
-1.523, 4.140e-5
-1.522, 4.059e-5
-1.521, 3.982e-5
-1.520, 3.902e-5
-1.519, 3.828e-5
-1.518, 3.751e-5
-1.517, 3.681e-5
-1.516, 3.598e-5
-1.515, 3.537e-5
-1.514, 3.463e-5
-1.513, 3.392e-5
-1.512, 3.331e-5
-1.511, 3.261e-5
-1.510, 3.203e-5
-1.509, 3.137e-5
-1.508, 3.080e-5
-1.507, 3.011e-5
-1.506, 2.948e-5
-1.505, 2.884e-5
-1.504, 2.829e-5
-1.503, 2.777e-5
-1.502, 2.721e-5
-1.501, 2.660e-5
-1.500, 2.612e-5
-1.499, 2.567e-5
-1.498, 2.515e-5
-1.497, 2.458e-5
-1.496, 2.405e-5
-1.495, 2.363e-5
-1.494, 2.317e-5
-1.493, 2.269e-5
-1.492, 2.225e-5
-1.491, 2.176e-5
-1.490, 2.136e-5
-1.489, 2.097e-5
-1.488, 2.046e-5
-1.487, 2.008e-5
-1.486, 1.963e-5
-1.485, 1.927e-5
-1.484, 1.886e-5
-1.483, 1.851e-5
-1.482, 1.818e-5
-1.481, 1.783e-5
-1.480, 1.744e-5
-1.479, 1.709e-5
-1.478, 1.676e-5
-1.477, 1.640e-5
-1.476, 1.608e-5
-1.475, 1.573e-5
-1.474, 1.539e-5
-1.473, 1.511e-5
-1.472, 1.475e-5
-1.471, 1.439e-5
-1.470, 1.416e-5
-1.469, 1.385e-5
-1.468, 1.359e-5
-1.467, 1.325e-5
-1.466, 1.297e-5
-1.465, 1.268e-5
-1.464, 1.245e-5
-1.463, 1.220e-5
-1.462, 1.197e-5
-1.461, 1.175e-5
-1.460, 1.149e-5
-1.459, 1.125e-5
-1.458, 1.096e-5
-1.457, 1.073e-5
-1.456, 1.049e-5
-1.455, 1.030e-5
-1.454, 1.005e-5
-1.453, 9.881e-6
-1.452, 9.652e-6
-1.451, 9.449e-6
-1.450, 9.261e-6
-1.449, 9.029e-6
-1.448, 8.831e-6
-1.447, 8.653e-6
-1.446, 8.453e-6
-1.445, 8.315e-6
-1.444, 8.102e-6
-1.443, 7.931e-6
-1.442, 7.749e-6
-1.441, 7.603e-6
-1.440, 7.405e-6
-1.439, 7.197e-6
-1.438, 7.084e-6
-1.437, 6.867e-6
-1.436, 6.731e-6
-1.435, 6.588e-6
-1.434, 6.432e-6
-1.433, 6.241e-6
-1.432, 6.162e-6
-1.431, 5.960e-6
-1.430, 5.865e-6
-1.429, 5.695e-6
-1.428, 5.610e-6
-1.427, 5.461e-6
-1.426, 5.326e-6
-1.425, 5.215e-6
-1.424, 5.121e-6
-1.423, 4.953e-6
-1.422, 4.837e-6
-1.421, 4.727e-6
-1.420, 4.620e-6
-1.419, 4.513e-6
-1.418, 4.419e-6
-1.417, 4.316e-6
-1.416, 4.172e-6
-1.415, 4.105e-6
-1.414, 3.991e-6
-1.413, 3.903e-6
-1.412, 3.774e-6
-1.411, 3.734e-6
-1.410, 3.627e-6
-1.409, 3.526e-6
-1.408, 3.448e-6
-1.407, 3.369e-6
-1.406, 3.237e-6
-1.405, 3.151e-6
-1.404, 3.118e-6
-1.403, 3.028e-6
-1.402, 2.950e-6
-1.401, 2.872e-6
-1.400, 2.784e-6
-1.399, 2.722e-6
-1.398, 2.649e-6
-1.397, 2.584e-6
-1.396, 2.546e-6
-1.395, 2.399e-6
-1.394, 2.386e-6
-1.393, 2.275e-6
-1.392, 2.244e-6
-1.391, 2.178e-6
-1.390, 2.129e-6
-1.389, 2.027e-6
-1.388, 2.009e-6
-1.387, 1.920e-6
-1.386, 1.875e-6
-1.385, 1.764e-6
-1.384, 1.779e-6
-1.383, 1.691e-6
-1.382, 1.635e-6
-1.381, 1.574e-6
-1.380, 1.534e-6
-1.379, 1.511e-6
-1.378, 1.446e-6
-1.377, 1.423e-6
-1.376, 1.347e-6
-1.375, 1.275e-6
-1.374, 1.247e-6
-1.373, 1.181e-6
-1.372, 1.159e-6
-1.371, 1.109e-6
-1.370, 1.060e-6
-1.369, 1.069e-6
-1.368, 9.755e-7
-1.367, 9.627e-7
-1.366, 8.868e-7
-1.365, 8.759e-7
-1.364, 8.404e-7
-1.363, 7.970e-7
-1.362, 7.378e-7
-1.361, 7.299e-7
-1.360, 6.677e-7
-1.359, 6.707e-7
-1.358, 6.056e-7
-1.357, 5.592e-7
-1.356, 5.454e-7
-1.355, 4.813e-7
-1.354, 4.714e-7
-1.353, 4.388e-7
-1.352, 4.260e-7
-1.351, 4.033e-7
-1.350, 3.836e-7
-1.349, 3.431e-7
-1.348, 3.362e-7
-1.347, 2.721e-7
-1.346, 2.563e-7
-1.345, 2.080e-7
-1.344, 2.376e-7
-1.343, 1.557e-7
-1.342, 1.379e-7
-1.341, 1.014e-7
-1.340, 9.649e-8
-1.339, 6.985e-8
-1.338, 4.815e-8
-1.337, 4.736e-9
-1.336, 7.695e-9
-1.335, -4.361e-8
-1.334, -4.558e-8
-1.333, -4.854e-8
-1.332, -1.137e-7
-1.331, -8.800e-8
-1.330, -1.472e-7
-1.329, -1.531e-7
-1.328, -1.817e-7
-1.327, -1.896e-7
-1.326, -2.281e-7
-1.325, -2.449e-7
-1.324, -2.656e-7
-1.323, -2.597e-7
-1.322, -3.149e-7
-1.321, -3.248e-7
-1.320, -3.208e-7
-1.319, -3.702e-7
-1.318, -3.485e-7
-1.317, -4.067e-7
-1.316, -3.751e-7
-1.315, -4.363e-7
-1.314, -4.373e-7
-1.313, -4.560e-7
-1.312, -4.787e-7
-1.311, -5.053e-7
-1.310, -5.073e-7
-1.309, -5.063e-7
-1.308, -5.221e-7
-1.307, -5.685e-7
-1.306, -5.359e-7
-1.305, -5.813e-7
-1.304, -6.129e-7
-1.303, -6.119e-7
-1.302, -6.583e-7
-1.301, -6.632e-7
-1.300, -6.504e-7
-1.299, -6.829e-7
-1.298, -7.046e-7
-1.297, -6.790e-7
-1.296, -7.579e-7
-1.295, -7.155e-7
-1.294, -7.263e-7
-1.293, -7.540e-7
-1.292, -8.033e-7
-1.291, -7.895e-7
-1.290, -8.043e-7
-1.289, -8.013e-7
-1.288, -7.993e-7
-1.287, -8.437e-7
-1.286, -8.289e-7
-1.285, -8.714e-7
-1.284, -8.635e-7
-1.283, -9.029e-7
-1.282, -8.753e-7
-1.281, -9.256e-7
-1.280, -8.881e-7
-1.279, -9.434e-7
-1.278, -9.592e-7
-1.277, -9.730e-7
-1.276, -9.710e-7
-1.275, -9.750e-7
-1.274, -9.996e-7
-1.273, -9.976e-7
-1.272, -1.042e-6
-1.271, -1.028e-6
-1.270, -1.018e-6
-1.269, -1.050e-6
-1.268, -1.068e-6
-1.267, -1.087e-6
-1.266, -1.110e-6
-1.265, -1.110e-6
-1.264, -1.157e-6
-1.263, -1.108e-6
-1.262, -1.133e-6
-1.261, -1.163e-6
-1.260, -1.111e-6
-1.259, -1.150e-6
-1.258, -1.148e-6
-1.257, -1.194e-6
-1.256, -1.203e-6
-1.255, -1.224e-6
-1.254, -1.184e-6
-1.253, -1.221e-6
-1.252, -1.229e-6
-1.251, -1.285e-6
-1.250, -1.246e-6
-1.249, -1.264e-6
-1.248, -1.288e-6
-1.247, -1.288e-6
-1.246, -1.324e-6
-1.245, -1.319e-6
-1.244, -1.321e-6
-1.243, -1.290e-6
-1.242, -1.353e-6
-1.241, -1.343e-6
-1.240, -1.366e-6
-1.239, -1.324e-6
-1.238, -1.392e-6
-1.237, -1.367e-6
-1.236, -1.393e-6
-1.235, -1.407e-6
-1.234, -1.432e-6
-1.233, -1.408e-6
-1.232, -1.466e-6
-1.231, -1.466e-6
-1.230, -1.445e-6
-1.229, -1.476e-6
-1.228, -1.491e-6
-1.227, -1.497e-6
-1.226, -1.472e-6
-1.225, -1.510e-6
-1.224, -1.495e-6
-1.223, -1.524e-6
-1.222, -1.521e-6
-1.221, -1.535e-6
-1.220, -1.521e-6
-1.219, -1.552e-6
-1.218, -1.549e-6
-1.217, -1.575e-6
-1.216, -1.557e-6
-1.215, -1.573e-6
-1.214, -1.586e-6
-1.213, -1.584e-6
-1.212, -1.645e-6
-1.211, -1.602e-6
-1.210, -1.659e-6
-1.209, -1.625e-6
-1.208, -1.660e-6
-1.207, -1.660e-6
-1.206, -1.671e-6
-1.205, -1.677e-6
-1.204, -1.681e-6
-1.203, -1.694e-6
-1.202, -1.707e-6
-1.201, -1.692e-6
-1.200, -1.695e-6
-1.199, -1.714e-6
-1.198, -1.693e-6
-1.197, -1.757e-6
-1.196, -1.718e-6
-1.195, -1.756e-6
-1.194, -1.751e-6
-1.193, -1.768e-6
-1.192, -1.763e-6
-1.191, -1.751e-6
-1.190, -1.772e-6
-1.189, -1.777e-6
-1.188, -1.801e-6
-1.187, -1.818e-6
-1.186, -1.815e-6
-1.185, -1.800e-6
-1.184, -1.833e-6
-1.183, -1.791e-6
-1.182, -1.845e-6
-1.181, -1.807e-6
-1.180, -1.837e-6
-1.179, -1.815e-6
-1.178, -1.851e-6
-1.177, -1.883e-6
-1.176, -1.890e-6
-1.175, -1.867e-6
-1.174, -1.896e-6
-1.173, -1.881e-6
-1.172, -1.870e-6
-1.171, -1.927e-6
-1.170, -1.909e-6
-1.169, -1.896e-6
-1.168, -1.900e-6
-1.167, -1.944e-6
-1.166, -1.919e-6
-1.165, -1.914e-6
-1.164, -1.940e-6
-1.163, -1.949e-6
-1.162, -1.938e-6
-1.161, -1.992e-6
-1.160, -1.917e-6
-1.159, -1.960e-6
-1.158, -1.965e-6
-1.157, -1.978e-6
-1.156, -1.973e-6
-1.155, -1.979e-6
-1.154, -1.956e-6
-1.153, -1.987e-6
-1.152, -2.006e-6
-1.151, -2.001e-6
-1.150, -2.037e-6
-1.149, -1.994e-6
-1.148, -2.010e-6
-1.147, -2.022e-6
-1.146, -2.034e-6
-1.145, -2.018e-6
-1.144, -2.039e-6
-1.143, -2.039e-6
-1.142, -2.061e-6
-1.141, -2.034e-6
-1.140, -2.062e-6
-1.139, -2.067e-6
-1.138, -2.075e-6
-1.137, -2.056e-6
-1.136, -2.044e-6
-1.135, -2.068e-6
-1.134, -2.052e-6
-1.133, -2.111e-6
-1.132, -2.088e-6
-1.131, -2.117e-6
-1.130, -2.081e-6
-1.129, -2.125e-6
-1.128, -2.117e-6
-1.127, -2.144e-6
-1.126, -2.119e-6
-1.125, -2.137e-6
-1.124, -2.112e-6
-1.123, -2.193e-6
-1.122, -2.151e-6
-1.121, -2.180e-6
-1.120, -2.154e-6
-1.119, -2.174e-6
-1.118, -2.214e-6
-1.117, -2.181e-6
-1.116, -2.192e-6
-1.115, -2.135e-6
-1.114, -2.179e-6
-1.113, -2.193e-6
-1.112, -2.243e-6
-1.111, -2.205e-6
-1.110, -2.237e-6
-1.109, -2.192e-6
-1.108, -2.267e-6
-1.107, -2.247e-6
-1.106, -2.259e-6
-1.105, -2.246e-6
-1.104, -2.243e-6
-1.103, -2.304e-6
-1.102, -2.287e-6
-1.101, -2.312e-6
-1.100, -2.276e-6
-1.099, -2.300e-6
-1.098, -2.321e-6
-1.097, -2.341e-6
-1.096, -2.296e-6
-1.095, -2.311e-6
-1.094, -2.337e-6
-1.093, -2.378e-6
-1.092, -2.336e-6
-1.091, -2.358e-6
-1.090, -2.348e-6
-1.089, -2.343e-6
-1.088, -2.402e-6
-1.087, -2.367e-6
-1.086, -2.407e-6
-1.085, -2.383e-6
-1.084, -2.394e-6
-1.083, -2.405e-6
-1.082, -2.418e-6
-1.081, -2.422e-6
-1.080, -2.430e-6
-1.079, -2.388e-6
-1.078, -2.485e-6
-1.077, -2.445e-6
-1.076, -2.467e-6
-1.075, -2.468e-6
-1.074, -2.452e-6
-1.073, -2.523e-6
-1.072, -2.467e-6
-1.071, -2.491e-6
-1.070, -2.471e-6
-1.069, -2.518e-6
-1.068, -2.525e-6
-1.067, -2.528e-6
-1.066, -2.512e-6
-1.065, -2.535e-6
-1.064, -2.525e-6
-1.063, -2.561e-6
-1.062, -2.550e-6
-1.061, -2.518e-6
-1.060, -2.516e-6
-1.059, -2.549e-6
-1.058, -2.566e-6
-1.057, -2.543e-6
-1.056, -2.586e-6
-1.055, -2.558e-6
-1.054, -2.583e-6
-1.053, -2.580e-6
-1.052, -2.615e-6
-1.051, -2.581e-6
-1.050, -2.596e-6
-1.049, -2.593e-6
-1.048, -2.625e-6
-1.047, -2.582e-6
-1.046, -2.619e-6
-1.045, -2.619e-6
-1.044, -2.610e-6
-1.043, -2.647e-6
-1.042, -2.613e-6
-1.041, -2.644e-6
-1.040, -2.604e-6
-1.039, -2.638e-6
-1.038, -2.657e-6
-1.037, -2.661e-6
-1.036, -2.671e-6
-1.035, -2.673e-6
-1.034, -2.650e-6
-1.033, -2.687e-6
-1.032, -2.693e-6
-1.031, -2.648e-6
-1.030, -2.704e-6
-1.029, -2.666e-6
-1.028, -2.719e-6
-1.027, -2.681e-6
-1.026, -2.702e-6
-1.025, -2.694e-6
-1.024, -2.705e-6
-1.023, -2.713e-6
-1.022, -2.729e-6
-1.021, -2.710e-6
-1.020, -2.711e-6
-1.019, -2.704e-6
-1.018, -2.766e-6
-1.017, -2.732e-6
-1.016, -2.730e-6
-1.015, -2.733e-6
-1.014, -2.759e-6
-1.013, -2.809e-6
-1.012, -2.752e-6
-1.011, -2.804e-6
-1.010, -2.767e-6
-1.009, -2.786e-6
-1.008, -2.775e-6
-1.007, -2.802e-6
-1.006, -2.790e-6
-1.005, -2.796e-6
-1.004, -2.810e-6
-1.003, -2.829e-6
-1.002, -2.793e-6
-1.001, -2.840e-6
