Dec. 10, 2024   16:40:02
Cyclic Voltammetry
File: c:/users/guazh/data/banditlqround7_x0exp59_r20/2024-12-09-exp619\exp619-2024-12-10t16_31_30-arkoh\exp619_cv_50mvs_efin_-1500mv.bin
Data Source:  Experiment
Instrument Model:  CHI760E
Header: CV ran at 50 mVs
Note: 

Init E (V) = -1
High E (V) = -1
Low E (V) = -1.5
Final E (V) = -1
Init P/N = N
Scan Rate (V/s) = 0.05
Segment = 7
Sample Interval (V) = 0.001
Quiet Time (sec) = 60
Sensitivity (A/V) = 0.001
Comp R (ohm) = 1.3

Results:

Channel 1:
Segment 1:

Segment 2:

Segment 3:

Segment 4:

Segment 5:

Segment 6:

Segment 7:

Potential/V, Current/A

-1.000, 8.384e-7
-1.001, 1.158e-6
-1.002, 1.341e-6
-1.003, 1.333e-6
-1.004, 1.284e-6
-1.005, 1.295e-6
-1.006, 1.375e-6
-1.007, 1.486e-6
-1.008, 1.479e-6
-1.009, 1.420e-6
-1.010, 1.420e-6
-1.011, 1.472e-6
-1.012, 1.594e-6
-1.013, 1.564e-6
-1.014, 1.522e-6
-1.015, 1.504e-6
-1.016, 1.550e-6
-1.017, 1.659e-6
-1.018, 1.647e-6
-1.019, 1.598e-6
-1.020, 1.573e-6
-1.021, 1.632e-6
-1.022, 1.736e-6
-1.023, 1.706e-6
-1.024, 1.645e-6
-1.025, 1.606e-6
-1.026, 1.704e-6
-1.027, 1.796e-6
-1.028, 1.762e-6
-1.029, 1.731e-6
-1.030, 1.679e-6
-1.031, 1.760e-6
-1.032, 1.852e-6
-1.033, 1.829e-6
-1.034, 1.801e-6
-1.035, 1.741e-6
-1.036, 1.816e-6
-1.037, 1.924e-6
-1.038, 1.895e-6
-1.039, 1.847e-6
-1.040, 1.812e-6
-1.041, 1.882e-6
-1.042, 1.986e-6
-1.043, 1.974e-6
-1.044, 1.890e-6
-1.045, 1.873e-6
-1.046, 1.937e-6
-1.047, 2.067e-6
-1.048, 2.051e-6
-1.049, 1.952e-6
-1.050, 1.977e-6
-1.051, 2.012e-6
-1.052, 2.108e-6
-1.053, 2.098e-6
-1.054, 2.024e-6
-1.055, 2.034e-6
-1.056, 2.096e-6
-1.057, 2.187e-6
-1.058, 2.196e-6
-1.059, 2.127e-6
-1.060, 2.101e-6
-1.061, 2.161e-6
-1.062, 2.269e-6
-1.063, 2.272e-6
-1.064, 2.161e-6
-1.065, 2.139e-6
-1.066, 2.254e-6
-1.067, 2.324e-6
-1.068, 2.308e-6
-1.069, 2.253e-6
-1.070, 2.236e-6
-1.071, 2.332e-6
-1.072, 2.403e-6
-1.073, 2.394e-6
-1.074, 2.334e-6
-1.075, 2.317e-6
-1.076, 2.405e-6
-1.077, 2.499e-6
-1.078, 2.502e-6
-1.079, 2.424e-6
-1.080, 2.417e-6
-1.081, 2.479e-6
-1.082, 2.583e-6
-1.083, 2.579e-6
-1.084, 2.520e-6
-1.085, 2.480e-6
-1.086, 2.572e-6
-1.087, 2.679e-6
-1.088, 2.666e-6
-1.089, 2.595e-6
-1.090, 2.584e-6
-1.091, 2.667e-6
-1.092, 2.763e-6
-1.093, 2.767e-6
-1.094, 2.708e-6
-1.095, 2.670e-6
-1.096, 2.741e-6
-1.097, 2.843e-6
-1.098, 2.865e-6
-1.099, 2.781e-6
-1.100, 2.768e-6
-1.101, 2.861e-6
-1.102, 2.954e-6
-1.103, 2.942e-6
-1.104, 2.858e-6
-1.105, 2.860e-6
-1.106, 2.958e-6
-1.107, 3.054e-6
-1.108, 3.029e-6
-1.109, 2.980e-6
-1.110, 2.967e-6
-1.111, 3.060e-6
-1.112, 3.127e-6
-1.113, 3.147e-6
-1.114, 3.093e-6
-1.115, 3.046e-6
-1.116, 3.139e-6
-1.117, 3.257e-6
-1.118, 3.233e-6
-1.119, 3.178e-6
-1.120, 3.155e-6
-1.121, 3.248e-6
-1.122, 3.329e-6
-1.123, 3.357e-6
-1.124, 3.253e-6
-1.125, 3.269e-6
-1.126, 3.334e-6
-1.127, 3.456e-6
-1.128, 3.461e-6
-1.129, 3.364e-6
-1.130, 3.392e-6
-1.131, 3.456e-6
-1.132, 3.534e-6
-1.133, 3.555e-6
-1.134, 3.461e-6
-1.135, 3.460e-6
-1.136, 3.526e-6
-1.137, 3.658e-6
-1.138, 3.669e-6
-1.139, 3.578e-6
-1.140, 3.570e-6
-1.141, 3.677e-6
-1.142, 3.751e-6
-1.143, 3.771e-6
-1.144, 3.711e-6
-1.145, 3.682e-6
-1.146, 3.790e-6
-1.147, 3.858e-6
-1.148, 3.828e-6
-1.149, 3.833e-6
-1.150, 3.795e-6
-1.151, 3.893e-6
-1.152, 3.975e-6
-1.153, 3.982e-6
-1.154, 3.947e-6
-1.155, 3.905e-6
-1.156, 3.995e-6
-1.157, 4.065e-6
-1.158, 4.118e-6
-1.159, 4.041e-6
-1.160, 4.002e-6
-1.161, 4.095e-6
-1.162, 4.191e-6
-1.163, 4.198e-6
-1.164, 4.113e-6
-1.165, 4.125e-6
-1.166, 4.226e-6
-1.167, 4.339e-6
-1.168, 4.337e-6
-1.169, 4.267e-6
-1.170, 4.261e-6
-1.171, 4.293e-6
-1.172, 4.411e-6
-1.173, 4.464e-6
-1.174, 4.364e-6
-1.175, 4.346e-6
-1.176, 4.432e-6
-1.177, 4.526e-6
-1.178, 4.530e-6
-1.179, 4.484e-6
-1.180, 4.469e-6
-1.181, 4.545e-6
-1.182, 4.634e-6
-1.183, 4.667e-6
-1.184, 4.585e-6
-1.185, 4.594e-6
-1.186, 4.674e-6
-1.187, 4.765e-6
-1.188, 4.771e-6
-1.189, 4.709e-6
-1.190, 4.726e-6
-1.191, 4.801e-6
-1.192, 4.858e-6
-1.193, 4.871e-6
-1.194, 4.826e-6
-1.195, 4.772e-6
-1.196, 4.899e-6
-1.197, 4.983e-6
-1.198, 5.004e-6
-1.199, 4.953e-6
-1.200, 4.925e-6
-1.201, 4.993e-6
-1.202, 5.135e-6
-1.203, 5.108e-6
-1.204, 5.057e-6
-1.205, 5.027e-6
-1.206, 5.112e-6
-1.207, 5.228e-6
-1.208, 5.232e-6
-1.209, 5.171e-6
-1.210, 5.176e-6
-1.211, 5.227e-6
-1.212, 5.335e-6
-1.213, 5.352e-6
-1.214, 5.262e-6
-1.215, 5.293e-6
-1.216, 5.324e-6
-1.217, 5.453e-6
-1.218, 5.450e-6
-1.219, 5.398e-6
-1.220, 5.407e-6
-1.221, 5.487e-6
-1.222, 5.599e-6
-1.223, 5.555e-6
-1.224, 5.494e-6
-1.225, 5.488e-6
-1.226, 5.593e-6
-1.227, 5.689e-6
-1.228, 5.718e-6
-1.229, 5.671e-6
-1.230, 5.626e-6
-1.231, 5.738e-6
-1.232, 5.813e-6
-1.233, 5.801e-6
-1.234, 5.774e-6
-1.235, 5.726e-6
-1.236, 5.828e-6
-1.237, 5.924e-6
-1.238, 5.953e-6
-1.239, 5.846e-6
-1.240, 5.895e-6
-1.241, 5.919e-6
-1.242, 6.057e-6
-1.243, 6.016e-6
-1.244, 5.992e-6
-1.245, 6.000e-6
-1.246, 6.056e-6
-1.247, 6.159e-6
-1.248, 6.145e-6
-1.249, 6.117e-6
-1.250, 6.113e-6
-1.251, 6.163e-6
-1.252, 6.306e-6
-1.253, 6.310e-6
-1.254, 6.190e-6
-1.255, 6.218e-6
-1.256, 6.297e-6
-1.257, 6.393e-6
-1.258, 6.410e-6
-1.259, 6.320e-6
-1.260, 6.349e-6
-1.261, 6.416e-6
-1.262, 6.524e-6
-1.263, 6.524e-6
-1.264, 6.462e-6
-1.265, 6.474e-6
-1.266, 6.547e-6
-1.267, 6.661e-6
-1.268, 6.646e-6
-1.269, 6.634e-6
-1.270, 6.617e-6
-1.271, 6.695e-6
-1.272, 6.816e-6
-1.273, 6.801e-6
-1.274, 6.755e-6
-1.275, 6.742e-6
-1.276, 6.831e-6
-1.277, 6.951e-6
-1.278, 6.937e-6
-1.279, 6.907e-6
-1.280, 6.926e-6
-1.281, 6.988e-6
-1.282, 7.114e-6
-1.283, 7.130e-6
-1.284, 7.074e-6
-1.285, 7.120e-6
-1.286, 7.190e-6
-1.287, 7.313e-6
-1.288, 7.302e-6
-1.289, 7.262e-6
-1.290, 7.272e-6
-1.291, 7.367e-6
-1.292, 7.483e-6
-1.293, 7.538e-6
-1.294, 7.506e-6
-1.295, 7.539e-6
-1.296, 7.613e-6
-1.297, 7.756e-6
-1.298, 7.792e-6
-1.299, 7.758e-6
-1.300, 7.790e-6
-1.301, 7.909e-6
-1.302, 8.062e-6
-1.303, 8.077e-6
-1.304, 8.092e-6
-1.305, 8.150e-6
-1.306, 8.276e-6
-1.307, 8.415e-6
-1.308, 8.486e-6
-1.309, 8.498e-6
-1.310, 8.580e-6
-1.311, 8.719e-6
-1.312, 8.886e-6
-1.313, 8.990e-6
-1.314, 9.021e-6
-1.315, 9.081e-6
-1.316, 9.254e-6
-1.317, 9.470e-6
-1.318, 9.618e-6
-1.319, 9.682e-6
-1.320, 9.824e-6
-1.321, 1.001e-5
-1.322, 1.028e-5
-1.323, 1.043e-5
-1.324, 1.059e-5
-1.325, 1.075e-5
-1.326, 1.102e-5
-1.327, 1.135e-5
-1.328, 1.156e-5
-1.329, 1.177e-5
-1.330, 1.205e-5
-1.331, 1.240e-5
-1.332, 1.279e-5
-1.333, 1.316e-5
-1.334, 1.347e-5
-1.335, 1.383e-5
-1.336, 1.433e-5
-1.337, 1.488e-5
-1.338, 1.535e-5
-1.339, 1.584e-5
-1.340, 1.640e-5
-1.341, 1.712e-5
-1.342, 1.788e-5
-1.343, 1.864e-5
-1.344, 1.939e-5
-1.345, 2.028e-5
-1.346, 2.132e-5
-1.347, 2.249e-5
-1.348, 2.365e-5
-1.349, 2.488e-5
-1.350, 2.630e-5
-1.351, 2.788e-5
-1.352, 2.961e-5
-1.353, 3.148e-5
-1.354, 3.344e-5
-1.355, 3.555e-5
-1.356, 3.790e-5
-1.357, 4.048e-5
-1.358, 4.312e-5
-1.359, 4.588e-5
-1.360, 4.886e-5
-1.361, 5.203e-5
-1.362, 5.542e-5
-1.363, 5.892e-5
-1.364, 6.252e-5
-1.365, 6.631e-5
-1.366, 7.026e-5
-1.367, 7.450e-5
-1.368, 7.878e-5
-1.369, 8.322e-5
-1.370, 8.784e-5
-1.371, 9.259e-5
-1.372, 9.768e-5
-1.373, 1.028e-4
-1.374, 1.080e-4
-1.375, 1.134e-4
-1.376, 1.190e-4
-1.377, 1.248e-4
-1.378, 1.307e-4
-1.379, 1.368e-4
-1.380, 1.431e-4
-1.381, 1.497e-4
-1.382, 1.566e-4
-1.383, 1.636e-4
-1.384, 1.707e-4
-1.385, 1.779e-4
-1.386, 1.853e-4
-1.387, 1.930e-4
-1.388, 2.010e-4
-1.389, 2.091e-4
-1.390, 2.175e-4
-1.391, 2.262e-4
-1.392, 2.352e-4
-1.393, 2.444e-4
-1.394, 2.537e-4
-1.395, 2.633e-4
-1.396, 2.731e-4
-1.397, 2.833e-4
-1.398, 2.938e-4
-1.399, 3.045e-4
-1.400, 3.154e-4
-1.401, 3.267e-4
-1.402, 3.384e-4
-1.403, 3.502e-4
-1.404, 3.623e-4
-1.405, 3.745e-4
-1.406, 3.872e-4
-1.407, 4.003e-4
-1.408, 4.139e-4
-1.409, 4.274e-4
-1.410, 4.409e-4
-1.411, 4.550e-4
-1.412, 4.697e-4
-1.413, 4.848e-4
-1.414, 4.999e-4
-1.415, 5.153e-4
-1.416, 5.311e-4
-1.417, 5.474e-4
-1.418, 5.639e-4
-1.419, 5.806e-4
-1.420, 5.978e-4
-1.421, 6.154e-4
-1.422, 6.332e-4
-1.423, 6.515e-4
-1.424, 6.699e-4
-1.425, 6.891e-4
-1.426, 7.086e-4
-1.427, 7.286e-4
-1.428, 7.489e-4
-1.429, 7.690e-4
-1.430, 7.896e-4
-1.431, 8.108e-4
-1.432, 8.325e-4
-1.433, 8.549e-4
-1.434, 8.773e-4
-1.435, 8.998e-4
-1.436, 9.229e-4
-1.437, 9.466e-4
-1.438, 9.700e-4
-1.439, 9.935e-4
-1.440, 1.018e-3
-1.441, 1.042e-3
-1.442, 1.068e-3
-1.443, 1.093e-3
-1.444, 1.119e-3
-1.445, 1.145e-3
-1.446, 1.172e-3
-1.447, 1.199e-3
-1.448, 1.227e-3
-1.449, 1.255e-3
-1.450, 1.283e-3
-1.451, 1.311e-3
-1.452, 1.340e-3
-1.453, 1.369e-3
-1.454, 1.399e-3
-1.455, 1.429e-3
-1.456, 1.459e-3
-1.457, 1.489e-3
-1.458, 1.520e-3
-1.459, 1.551e-3
-1.460, 1.582e-3
-1.461, 1.614e-3
-1.462, 1.646e-3
-1.463, 1.679e-3
-1.464, 1.712e-3
-1.465, 1.745e-3
-1.466, 1.778e-3
-1.467, 1.812e-3
-1.468, 1.846e-3
-1.469, 1.880e-3
-1.470, 1.912e-3
-1.471, 1.944e-3
-1.472, 1.977e-3
-1.473, 2.010e-3
-1.474, 2.040e-3
-1.475, 2.072e-3
-1.476, 2.103e-3
-1.477, 2.135e-3
-1.478, 2.165e-3
-1.479, 2.198e-3
-1.480, 2.231e-3
-1.481, 2.259e-3
-1.482, 2.291e-3
-1.483, 2.322e-3
-1.484, 2.353e-3
-1.485, 2.390e-3
-1.486, 2.428e-3
-1.487, 2.466e-3
-1.488, 2.502e-3
-1.489, 2.531e-3
-1.490, 2.562e-3
-1.491, 2.596e-3
-1.492, 2.627e-3
-1.493, 2.658e-3
-1.494, 2.687e-3
-1.495, 2.714e-3
-1.496, 2.740e-3
-1.497, 2.771e-3
-1.498, 2.809e-3
-1.499, 2.841e-3
-1.500, 2.842e-3
-1.499, 2.793e-3
-1.498, 2.743e-3
-1.497, 2.692e-3
-1.496, 2.640e-3
-1.495, 2.586e-3
-1.494, 2.527e-3
-1.493, 2.470e-3
-1.492, 2.416e-3
-1.491, 2.367e-3
-1.490, 2.318e-3
-1.489, 2.270e-3
-1.488, 2.224e-3
-1.487, 2.177e-3
-1.486, 2.130e-3
-1.485, 2.082e-3
-1.484, 2.040e-3
-1.483, 1.995e-3
-1.482, 1.955e-3
-1.481, 1.919e-3
-1.480, 1.880e-3
-1.479, 1.842e-3
-1.478, 1.804e-3
-1.477, 1.767e-3
-1.476, 1.730e-3
-1.475, 1.692e-3
-1.474, 1.654e-3
-1.473, 1.622e-3
-1.472, 1.583e-3
-1.471, 1.546e-3
-1.470, 1.513e-3
-1.469, 1.485e-3
-1.468, 1.453e-3
-1.467, 1.422e-3
-1.466, 1.388e-3
-1.465, 1.350e-3
-1.464, 1.316e-3
-1.463, 1.291e-3
-1.462, 1.262e-3
-1.461, 1.235e-3
-1.460, 1.204e-3
-1.459, 1.174e-3
-1.458, 1.142e-3
-1.457, 1.115e-3
-1.456, 1.088e-3
-1.455, 1.062e-3
-1.454, 1.036e-3
-1.453, 1.011e-3
-1.452, 9.871e-4
-1.451, 9.630e-4
-1.450, 9.397e-4
-1.449, 9.152e-4
-1.448, 8.912e-4
-1.447, 8.679e-4
-1.446, 8.455e-4
-1.445, 8.231e-4
-1.444, 8.014e-4
-1.443, 7.810e-4
-1.442, 7.602e-4
-1.441, 7.398e-4
-1.440, 7.203e-4
-1.439, 7.030e-4
-1.438, 6.842e-4
-1.437, 6.659e-4
-1.436, 6.478e-4
-1.435, 6.296e-4
-1.434, 6.118e-4
-1.433, 5.952e-4
-1.432, 5.786e-4
-1.431, 5.623e-4
-1.430, 5.462e-4
-1.429, 5.307e-4
-1.428, 5.158e-4
-1.427, 5.012e-4
-1.426, 4.864e-4
-1.425, 4.719e-4
-1.424, 4.577e-4
-1.423, 4.442e-4
-1.422, 4.311e-4
-1.421, 4.185e-4
-1.420, 4.061e-4
-1.419, 3.940e-4
-1.418, 3.828e-4
-1.417, 3.721e-4
-1.416, 3.614e-4
-1.415, 3.506e-4
-1.414, 3.401e-4
-1.413, 3.298e-4
-1.412, 3.196e-4
-1.411, 3.096e-4
-1.410, 2.999e-4
-1.409, 2.906e-4
-1.408, 2.821e-4
-1.407, 2.738e-4
-1.406, 2.656e-4
-1.405, 2.573e-4
-1.404, 2.491e-4
-1.403, 2.411e-4
-1.402, 2.333e-4
-1.401, 2.258e-4
-1.400, 2.185e-4
-1.399, 2.113e-4
-1.398, 2.045e-4
-1.397, 1.975e-4
-1.396, 1.906e-4
-1.395, 1.840e-4
-1.394, 1.780e-4
-1.393, 1.723e-4
-1.392, 1.666e-4
-1.391, 1.612e-4
-1.390, 1.561e-4
-1.389, 1.512e-4
-1.388, 1.464e-4
-1.387, 1.416e-4
-1.386, 1.368e-4
-1.385, 1.321e-4
-1.384, 1.276e-4
-1.383, 1.233e-4
-1.382, 1.192e-4
-1.381, 1.154e-4
-1.380, 1.116e-4
-1.379, 1.080e-4
-1.378, 1.046e-4
-1.377, 1.011e-4
-1.376, 9.762e-5
-1.375, 9.426e-5
-1.374, 9.113e-5
-1.373, 8.815e-5
-1.372, 8.515e-5
-1.371, 8.223e-5
-1.370, 7.938e-5
-1.369, 7.672e-5
-1.368, 7.425e-5
-1.367, 7.173e-5
-1.366, 6.929e-5
-1.365, 6.692e-5
-1.364, 6.465e-5
-1.363, 6.253e-5
-1.362, 6.033e-5
-1.361, 5.830e-5
-1.360, 5.628e-5
-1.359, 5.440e-5
-1.358, 5.261e-5
-1.357, 5.076e-5
-1.356, 4.900e-5
-1.355, 4.725e-5
-1.354, 4.563e-5
-1.353, 4.407e-5
-1.352, 4.252e-5
-1.351, 4.105e-5
-1.350, 3.961e-5
-1.349, 3.824e-5
-1.348, 3.697e-5
-1.347, 3.563e-5
-1.346, 3.440e-5
-1.345, 3.313e-5
-1.344, 3.199e-5
-1.343, 3.096e-5
-1.342, 2.982e-5
-1.341, 2.877e-5
-1.340, 2.769e-5
-1.339, 2.672e-5
-1.338, 2.587e-5
-1.337, 2.488e-5
-1.336, 2.400e-5
-1.335, 2.307e-5
-1.334, 2.228e-5
-1.333, 2.154e-5
-1.332, 2.073e-5
-1.331, 1.995e-5
-1.330, 1.923e-5
-1.329, 1.859e-5
-1.328, 1.798e-5
-1.327, 1.729e-5
-1.326, 1.661e-5
-1.325, 1.602e-5
-1.324, 1.546e-5
-1.323, 1.496e-5
-1.322, 1.439e-5
-1.321, 1.386e-5
-1.320, 1.331e-5
-1.319, 1.285e-5
-1.318, 1.244e-5
-1.317, 1.195e-5
-1.316, 1.148e-5
-1.315, 1.103e-5
-1.314, 1.066e-5
-1.313, 1.032e-5
-1.312, 9.921e-6
-1.311, 9.515e-6
-1.310, 9.133e-6
-1.309, 8.825e-6
-1.308, 8.587e-6
-1.307, 8.233e-6
-1.306, 7.879e-6
-1.305, 7.548e-6
-1.304, 7.309e-6
-1.303, 7.082e-6
-1.302, 6.799e-6
-1.301, 6.517e-6
-1.300, 6.258e-6
-1.299, 6.028e-6
-1.298, 5.859e-6
-1.297, 5.613e-6
-1.296, 5.369e-6
-1.295, 5.168e-6
-1.294, 4.991e-6
-1.293, 4.848e-6
-1.292, 4.631e-6
-1.291, 4.427e-6
-1.290, 4.208e-6
-1.289, 4.111e-6
-1.288, 4.019e-6
-1.287, 3.826e-6
-1.286, 3.618e-6
-1.285, 3.447e-6
-1.284, 3.362e-6
-1.283, 3.260e-6
-1.282, 3.121e-6
-1.281, 2.957e-6
-1.280, 2.814e-6
-1.279, 2.718e-6
-1.278, 2.667e-6
-1.277, 2.538e-6
-1.276, 2.381e-6
-1.275, 2.248e-6
-1.274, 2.194e-6
-1.273, 2.137e-6
-1.272, 2.025e-6
-1.271, 1.895e-6
-1.270, 1.807e-6
-1.269, 1.744e-6
-1.268, 1.681e-6
-1.267, 1.580e-6
-1.266, 1.489e-6
-1.265, 1.392e-6
-1.264, 1.367e-6
-1.263, 1.328e-6
-1.262, 1.209e-6
-1.261, 1.145e-6
-1.260, 1.036e-6
-1.259, 1.019e-6
-1.258, 1.017e-6
-1.257, 9.440e-7
-1.256, 8.483e-7
-1.255, 7.605e-7
-1.254, 7.299e-7
-1.253, 7.526e-7
-1.252, 6.352e-7
-1.251, 5.760e-7
-1.250, 4.951e-7
-1.249, 4.911e-7
-1.248, 5.148e-7
-1.247, 4.240e-7
-1.246, 3.352e-7
-1.245, 2.968e-7
-1.244, 2.790e-7
-1.243, 2.918e-7
-1.242, 2.139e-7
-1.241, 1.152e-7
-1.240, 7.972e-8
-1.239, 7.380e-8
-1.238, 9.156e-8
-1.237, 4.223e-8
-1.236, -5.446e-8
-1.235, -8.406e-8
-1.234, -1.117e-7
-1.233, -9.096e-8
-1.232, -1.521e-7
-1.231, -2.054e-7
-1.230, -2.518e-7
-1.229, -2.715e-7
-1.228, -2.528e-7
-1.227, -3.110e-7
-1.226, -3.613e-7
-1.225, -4.294e-7
-1.224, -4.382e-7
-1.223, -3.869e-7
-1.222, -4.284e-7
-1.221, -4.925e-7
-1.220, -5.231e-7
-1.219, -5.270e-7
-1.218, -5.043e-7
-1.217, -5.576e-7
-1.216, -6.267e-7
-1.215, -6.750e-7
-1.214, -6.514e-7
-1.213, -6.099e-7
-1.212, -6.612e-7
-1.211, -7.046e-7
-1.210, -7.569e-7
-1.209, -7.470e-7
-1.208, -6.898e-7
-1.207, -7.628e-7
-1.206, -8.497e-7
-1.205, -8.654e-7
-1.204, -8.398e-7
-1.203, -8.181e-7
-1.202, -8.605e-7
-1.201, -9.029e-7
-1.200, -9.730e-7
-1.199, -9.513e-7
-1.198, -9.098e-7
-1.197, -9.562e-7
-1.196, -1.005e-6
-1.195, -1.047e-6
-1.194, -1.008e-6
-1.193, -9.799e-7
-1.192, -1.033e-6
-1.191, -1.106e-6
-1.190, -1.186e-6
-1.189, -1.135e-6
-1.188, -1.093e-6
-1.187, -1.158e-6
-1.186, -1.210e-6
-1.185, -1.250e-6
-1.184, -1.221e-6
-1.183, -1.157e-6
-1.182, -1.244e-6
-1.181, -1.266e-6
-1.180, -1.326e-6
-1.179, -1.318e-6
-1.178, -1.248e-6
-1.177, -1.335e-6
-1.176, -1.376e-6
-1.175, -1.427e-6
-1.174, -1.383e-6
-1.173, -1.333e-6
-1.172, -1.366e-6
-1.171, -1.458e-6
-1.170, -1.480e-6
-1.169, -1.483e-6
-1.168, -1.393e-6
-1.167, -1.476e-6
-1.166, -1.541e-6
-1.165, -1.571e-6
-1.164, -1.573e-6
-1.163, -1.500e-6
-1.162, -1.570e-6
-1.161, -1.622e-6
-1.160, -1.666e-6
-1.159, -1.611e-6
-1.158, -1.591e-6
-1.157, -1.621e-6
-1.156, -1.708e-6
-1.155, -1.748e-6
-1.154, -1.719e-6
-1.153, -1.676e-6
-1.152, -1.710e-6
-1.151, -1.777e-6
-1.150, -1.822e-6
-1.149, -1.802e-6
-1.148, -1.737e-6
-1.147, -1.808e-6
-1.146, -1.852e-6
-1.145, -1.912e-6
-1.144, -1.868e-6
-1.143, -1.802e-6
-1.142, -1.906e-6
-1.141, -1.948e-6
-1.140, -1.964e-6
-1.139, -1.977e-6
-1.138, -1.877e-6
-1.137, -1.977e-6
-1.136, -2.019e-6
-1.135, -2.078e-6
-1.134, -2.012e-6
-1.133, -1.962e-6
-1.132, -1.981e-6
-1.131, -2.092e-6
-1.130, -2.103e-6
-1.129, -2.108e-6
-1.128, -2.046e-6
-1.127, -2.094e-6
-1.126, -2.186e-6
-1.125, -2.218e-6
-1.124, -2.189e-6
-1.123, -2.106e-6
-1.122, -2.135e-6
-1.121, -2.255e-6
-1.120, -2.296e-6
-1.119, -2.260e-6
-1.118, -2.185e-6
-1.117, -2.230e-6
-1.116, -2.301e-6
-1.115, -2.332e-6
-1.114, -2.331e-6
-1.113, -2.238e-6
-1.112, -2.281e-6
-1.111, -2.378e-6
-1.110, -2.437e-6
-1.109, -2.382e-6
-1.108, -2.343e-6
-1.107, -2.370e-6
-1.106, -2.459e-6
-1.105, -2.506e-6
-1.104, -2.447e-6
-1.103, -2.373e-6
-1.102, -2.427e-6
-1.101, -2.490e-6
-1.100, -2.560e-6
-1.099, -2.530e-6
-1.098, -2.457e-6
-1.097, -2.513e-6
-1.096, -2.560e-6
-1.095, -2.634e-6
-1.094, -2.597e-6
-1.093, -2.486e-6
-1.092, -2.583e-6
-1.091, -2.639e-6
-1.090, -2.684e-6
-1.089, -2.641e-6
-1.088, -2.568e-6
-1.087, -2.601e-6
-1.086, -2.696e-6
-1.085, -2.758e-6
-1.084, -2.702e-6
-1.083, -2.631e-6
-1.082, -2.679e-6
-1.081, -2.768e-6
-1.080, -2.769e-6
-1.079, -2.745e-6
-1.078, -2.695e-6
-1.077, -2.711e-6
-1.076, -2.814e-6
-1.075, -2.860e-6
-1.074, -2.804e-6
-1.073, -2.768e-6
-1.072, -2.804e-6
-1.071, -2.836e-6
-1.070, -2.927e-6
-1.069, -2.893e-6
-1.068, -2.801e-6
-1.067, -2.848e-6
-1.066, -2.922e-6
-1.065, -3.008e-6
-1.064, -2.938e-6
-1.063, -2.841e-6
-1.062, -2.918e-6
-1.061, -2.969e-6
-1.060, -3.020e-6
-1.059, -3.019e-6
-1.058, -2.905e-6
-1.057, -2.951e-6
-1.056, -3.044e-6
-1.055, -3.082e-6
-1.054, -3.067e-6
-1.053, -2.951e-6
-1.052, -2.995e-6
-1.051, -3.091e-6
-1.050, -3.121e-6
-1.049, -3.127e-6
-1.048, -3.005e-6
-1.047, -3.082e-6
-1.046, -3.178e-6
-1.045, -3.205e-6
-1.044, -3.153e-6
-1.043, -3.059e-6
-1.042, -3.147e-6
-1.041, -3.194e-6
-1.040, -3.260e-6
-1.039, -3.208e-6
-1.038, -3.136e-6
-1.037, -3.209e-6
-1.036, -3.262e-6
-1.035, -3.359e-6
-1.034, -3.300e-6
-1.033, -3.215e-6
-1.032, -3.253e-6
-1.031, -3.324e-6
-1.030, -3.399e-6
-1.029, -3.368e-6
-1.028, -3.273e-6
-1.027, -3.355e-6
-1.026, -3.406e-6
-1.025, -3.485e-6
-1.024, -3.449e-6
-1.023, -3.353e-6
-1.022, -3.417e-6
-1.021, -3.508e-6
-1.020, -3.582e-6
-1.019, -3.529e-6
-1.018, -3.453e-6
-1.017, -3.538e-6
-1.016, -3.616e-6
-1.015, -3.661e-6
-1.014, -3.656e-6
-1.013, -3.534e-6
-1.012, -3.619e-6
-1.011, -3.721e-6
-1.010, -3.755e-6
-1.009, -3.732e-6
-1.008, -3.663e-6
-1.007, -3.731e-6
-1.006, -3.820e-6
-1.005, -3.876e-6
-1.004, -3.858e-6
-1.003, -3.767e-6
-1.002, -3.840e-6
-1.001, -3.962e-6
-1.000, -1.933e-6
-1.001, -1.268e-6
-1.002, -9.019e-7
-1.003, -7.905e-7
-1.004, -6.691e-7
-1.005, -5.852e-7
-1.006, -4.412e-7
-1.007, -2.163e-7
-1.008, -1.511e-7
-1.009, -1.798e-7
-1.010, -9.096e-8
-1.011, 4.736e-9
-1.012, 1.942e-7
-1.013, 2.011e-7
-1.014, 1.675e-7
-1.015, 2.218e-7
-1.016, 3.293e-7
-1.017, 4.349e-7
-1.018, 4.694e-7
-1.019, 4.171e-7
-1.020, 4.388e-7
-1.021, 5.286e-7
-1.022, 6.865e-7
-1.023, 6.174e-7
-1.024, 6.253e-7
-1.025, 6.450e-7
-1.026, 7.023e-7
-1.027, 8.098e-7
-1.028, 7.763e-7
-1.029, 7.615e-7
-1.030, 7.506e-7
-1.031, 8.473e-7
-1.032, 9.351e-7
-1.033, 9.341e-7
-1.034, 8.927e-7
-1.035, 8.798e-7
-1.036, 9.371e-7
-1.037, 1.080e-6
-1.038, 1.029e-6
-1.039, 1.008e-6
-1.040, 9.982e-7
-1.041, 1.033e-6
-1.042, 1.157e-6
-1.043, 1.127e-6
-1.044, 1.100e-6
-1.045, 1.092e-6
-1.046, 1.126e-6
-1.047, 1.273e-6
-1.048, 1.226e-6
-1.049, 1.135e-6
-1.050, 1.164e-6
-1.051, 1.219e-6
-1.052, 1.324e-6
-1.053, 1.313e-6
-1.054, 1.229e-6
-1.055, 1.233e-6
-1.056, 1.300e-6
-1.057, 1.389e-6
-1.058, 1.382e-6
-1.059, 1.309e-6
-1.060, 1.286e-6
-1.061, 1.376e-6
-1.062, 1.450e-6
-1.063, 1.447e-6
-1.064, 1.389e-6
-1.065, 1.360e-6
-1.066, 1.449e-6
-1.067, 1.537e-6
-1.068, 1.517e-6
-1.069, 1.442e-6
-1.070, 1.445e-6
-1.071, 1.526e-6
-1.072, 1.590e-6
-1.073, 1.560e-6
-1.074, 1.493e-6
-1.075, 1.522e-6
-1.076, 1.581e-6
-1.077, 1.676e-6
-1.078, 1.624e-6
-1.079, 1.565e-6
-1.080, 1.556e-6
-1.081, 1.656e-6
-1.082, 1.743e-6
-1.083, 1.691e-6
-1.084, 1.630e-6
-1.085, 1.617e-6
-1.086, 1.697e-6
-1.087, 1.782e-6
-1.088, 1.755e-6
-1.089, 1.687e-6
-1.090, 1.685e-6
-1.091, 1.724e-6
-1.092, 1.834e-6
-1.093, 1.828e-6
-1.094, 1.749e-6
-1.095, 1.758e-6
-1.096, 1.819e-6
-1.097, 1.909e-6
-1.098, 1.893e-6
-1.099, 1.784e-6
-1.100, 1.792e-6
-1.101, 1.871e-6
-1.102, 1.961e-6
-1.103, 1.924e-6
-1.104, 1.874e-6
-1.105, 1.835e-6
-1.106, 1.911e-6
-1.107, 2.020e-6
-1.108, 1.979e-6
-1.109, 1.903e-6
-1.110, 1.926e-6
-1.111, 2.002e-6
-1.112, 2.049e-6
-1.113, 2.008e-6
-1.114, 1.953e-6
-1.115, 1.967e-6
-1.116, 2.018e-6
-1.117, 2.132e-6
-1.118, 2.100e-6
-1.119, 2.029e-6
-1.120, 2.018e-6
-1.121, 2.082e-6
-1.122, 2.190e-6
-1.123, 2.123e-6
-1.124, 2.046e-6
-1.125, 2.065e-6
-1.126, 2.137e-6
-1.127, 2.233e-6
-1.128, 2.203e-6
-1.129, 2.125e-6
-1.130, 2.113e-6
-1.131, 2.219e-6
-1.132, 2.255e-6
-1.133, 2.264e-6
-1.134, 2.179e-6
-1.135, 2.199e-6
-1.136, 2.234e-6
-1.137, 2.327e-6
-1.138, 2.312e-6
-1.139, 2.247e-6
-1.140, 2.230e-6
-1.141, 2.307e-6
-1.142, 2.377e-6
-1.143, 2.352e-6
-1.144, 2.297e-6
-1.145, 2.276e-6
-1.146, 2.375e-6
-1.147, 2.423e-6
-1.148, 2.394e-6
-1.149, 2.327e-6
-1.150, 2.324e-6
-1.151, 2.391e-6
-1.152, 2.483e-6
-1.153, 2.439e-6
-1.154, 2.390e-6
-1.155, 2.370e-6
-1.156, 2.444e-6
-1.157, 2.507e-6
-1.158, 2.489e-6
-1.159, 2.423e-6
-1.160, 2.406e-6
-1.161, 2.485e-6
-1.162, 2.550e-6
-1.163, 2.569e-6
-1.164, 2.468e-6
-1.165, 2.465e-6
-1.166, 2.549e-6
-1.167, 2.604e-6
-1.168, 2.622e-6
-1.169, 2.530e-6
-1.170, 2.515e-6
-1.171, 2.583e-6
-1.172, 2.683e-6
-1.173, 2.649e-6
-1.174, 2.545e-6
-1.175, 2.574e-6
-1.176, 2.626e-6
-1.177, 2.709e-6
-1.178, 2.682e-6
-1.179, 2.616e-6
-1.180, 2.604e-6
-1.181, 2.671e-6
-1.182, 2.737e-6
-1.183, 2.745e-6
-1.184, 2.666e-6
-1.185, 2.644e-6
-1.186, 2.733e-6
-1.187, 2.799e-6
-1.188, 2.774e-6
-1.189, 2.692e-6
-1.190, 2.705e-6
-1.191, 2.779e-6
-1.192, 2.809e-6
-1.193, 2.828e-6
-1.194, 2.790e-6
-1.195, 2.777e-6
-1.196, 2.821e-6
-1.197, 2.888e-6
-1.198, 2.880e-6
-1.199, 2.818e-6
-1.200, 2.839e-6
-1.201, 2.876e-6
-1.202, 2.949e-6
-1.203, 2.914e-6
-1.204, 2.855e-6
-1.205, 2.876e-6
-1.206, 2.915e-6
-1.207, 2.971e-6
-1.208, 2.985e-6
-1.209, 2.881e-6
-1.210, 2.922e-6
-1.211, 2.964e-6
-1.212, 3.060e-6
-1.213, 3.047e-6
-1.214, 2.941e-6
-1.215, 2.968e-6
-1.216, 2.995e-6
-1.217, 3.084e-6
-1.218, 3.098e-6
-1.219, 3.011e-6
-1.220, 3.029e-6
-1.221, 3.092e-6
-1.222, 3.153e-6
-1.223, 3.156e-6
-1.224, 3.064e-6
-1.225, 3.084e-6
-1.226, 3.172e-6
-1.227, 3.240e-6
-1.228, 3.245e-6
-1.229, 3.193e-6
-1.230, 3.183e-6
-1.231, 3.236e-6
-1.232, 3.297e-6
-1.233, 3.301e-6
-1.234, 3.253e-6
-1.235, 3.260e-6
-1.236, 3.317e-6
-1.237, 3.397e-6
-1.238, 3.380e-6
-1.239, 3.342e-6
-1.240, 3.328e-6
-1.241, 3.413e-6
-1.242, 3.482e-6
-1.243, 3.481e-6
-1.244, 3.395e-6
-1.245, 3.439e-6
-1.246, 3.516e-6
-1.247, 3.545e-6
-1.248, 3.570e-6
-1.249, 3.529e-6
-1.250, 3.527e-6
-1.251, 3.619e-6
-1.252, 3.686e-6
-1.253, 3.702e-6
-1.254, 3.643e-6
-1.255, 3.636e-6
-1.256, 3.748e-6
-1.257, 3.828e-6
-1.258, 3.840e-6
-1.259, 3.772e-6
-1.260, 3.806e-6
-1.261, 3.924e-6
-1.262, 3.989e-6
-1.263, 3.998e-6
-1.264, 3.953e-6
-1.265, 3.974e-6
-1.266, 4.091e-6
-1.267, 4.146e-6
-1.268, 4.144e-6
-1.269, 4.146e-6
-1.270, 4.163e-6
-1.271, 4.271e-6
-1.272, 4.375e-6
-1.273, 4.403e-6
-1.274, 4.391e-6
-1.275, 4.413e-6
-1.276, 4.538e-6
-1.277, 4.633e-6
-1.278, 4.652e-6
-1.279, 4.649e-6
-1.280, 4.683e-6
-1.281, 4.841e-6
-1.282, 4.934e-6
-1.283, 4.955e-6
-1.284, 4.998e-6
-1.285, 5.032e-6
-1.286, 5.151e-6
-1.287, 5.300e-6
-1.288, 5.354e-6
-1.289, 5.379e-6
-1.290, 5.470e-6
-1.291, 5.565e-6
-1.292, 5.745e-6
-1.293, 5.827e-6
-1.294, 5.860e-6
-1.295, 5.957e-6
-1.296, 6.122e-6
-1.297, 6.290e-6
-1.298, 6.424e-6
-1.299, 6.466e-6
-1.300, 6.571e-6
-1.301, 6.793e-6
-1.302, 6.941e-6
-1.303, 7.101e-6
-1.304, 7.179e-6
-1.305, 7.344e-6
-1.306, 7.560e-6
-1.307, 7.787e-6
-1.308, 7.929e-6
-1.309, 8.093e-6
-1.310, 8.273e-6
-1.311, 8.541e-6
-1.312, 8.796e-6
-1.313, 9.024e-6
-1.314, 9.184e-6
-1.315, 9.406e-6
-1.316, 9.741e-6
-1.317, 1.006e-5
-1.318, 1.031e-5
-1.319, 1.057e-5
-1.320, 1.088e-5
-1.321, 1.124e-5
-1.322, 1.163e-5
-1.323, 1.195e-5
-1.324, 1.228e-5
-1.325, 1.266e-5
-1.326, 1.313e-5
-1.327, 1.362e-5
-1.328, 1.402e-5
-1.329, 1.445e-5
-1.330, 1.489e-5
-1.331, 1.547e-5
-1.332, 1.603e-5
-1.333, 1.659e-5
-1.334, 1.715e-5
-1.335, 1.772e-5
-1.336, 1.841e-5
-1.337, 1.914e-5
-1.338, 1.985e-5
-1.339, 2.052e-5
-1.340, 2.128e-5
-1.341, 2.217e-5
-1.342, 2.304e-5
-1.343, 2.389e-5
-1.344, 2.479e-5
-1.345, 2.574e-5
-1.346, 2.682e-5
-1.347, 2.790e-5
-1.348, 2.902e-5
-1.349, 3.014e-5
-1.350, 3.134e-5
-1.351, 3.267e-5
-1.352, 3.403e-5
-1.353, 3.544e-5
-1.354, 3.688e-5
-1.355, 3.837e-5
-1.356, 4.003e-5
-1.357, 4.177e-5
-1.358, 4.353e-5
-1.359, 4.529e-5
-1.360, 4.716e-5
-1.361, 4.923e-5
-1.362, 5.137e-5
-1.363, 5.357e-5
-1.364, 5.581e-5
-1.365, 5.819e-5
-1.366, 6.070e-5
-1.367, 6.341e-5
-1.368, 6.613e-5
-1.369, 6.895e-5
-1.370, 7.185e-5
-1.371, 7.499e-5
-1.372, 7.829e-5
-1.373, 8.170e-5
-1.374, 8.518e-5
-1.375, 8.883e-5
-1.376, 9.267e-5
-1.377, 9.671e-5
-1.378, 1.008e-4
-1.379, 1.050e-4
-1.380, 1.094e-4
-1.381, 1.140e-4
-1.382, 1.189e-4
-1.383, 1.239e-4
-1.384, 1.289e-4
-1.385, 1.342e-4
-1.386, 1.398e-4
-1.387, 1.456e-4
-1.388, 1.516e-4
-1.389, 1.578e-4
-1.390, 1.642e-4
-1.391, 1.709e-4
-1.392, 1.779e-4
-1.393, 1.851e-4
-1.394, 1.925e-4
-1.395, 2.001e-4
-1.396, 2.079e-4
-1.397, 2.160e-4
-1.398, 2.243e-4
-1.399, 2.330e-4
-1.400, 2.420e-4
-1.401, 2.515e-4
-1.402, 2.612e-4
-1.403, 2.712e-4
-1.404, 2.813e-4
-1.405, 2.917e-4
-1.406, 3.026e-4
-1.407, 3.138e-4
-1.408, 3.254e-4
-1.409, 3.371e-4
-1.410, 3.491e-4
-1.411, 3.615e-4
-1.412, 3.747e-4
-1.413, 3.879e-4
-1.414, 4.012e-4
-1.415, 4.148e-4
-1.416, 4.288e-4
-1.417, 4.431e-4
-1.418, 4.581e-4
-1.419, 4.733e-4
-1.420, 4.889e-4
-1.421, 5.051e-4
-1.422, 5.216e-4
-1.423, 5.383e-4
-1.424, 5.552e-4
-1.425, 5.727e-4
-1.426, 5.906e-4
-1.427, 6.092e-4
-1.428, 6.280e-4
-1.429, 6.465e-4
-1.430, 6.659e-4
-1.431, 6.858e-4
-1.432, 7.065e-4
-1.433, 7.277e-4
-1.434, 7.488e-4
-1.435, 7.702e-4
-1.436, 7.922e-4
-1.437, 8.149e-4
-1.438, 8.378e-4
-1.439, 8.603e-4
-1.440, 8.824e-4
-1.441, 9.061e-4
-1.442, 9.306e-4
-1.443, 9.554e-4
-1.444, 9.811e-4
-1.445, 1.007e-3
-1.446, 1.033e-3
-1.447, 1.060e-3
-1.448, 1.087e-3
-1.449, 1.114e-3
-1.450, 1.141e-3
-1.451, 1.169e-3
-1.452, 1.198e-3
-1.453, 1.228e-3
-1.454, 1.256e-3
-1.455, 1.283e-3
-1.456, 1.311e-3
-1.457, 1.341e-3
-1.458, 1.372e-3
-1.459, 1.404e-3
-1.460, 1.437e-3
-1.461, 1.468e-3
-1.462, 1.501e-3
-1.463, 1.534e-3
-1.464, 1.566e-3
-1.465, 1.599e-3
-1.466, 1.632e-3
-1.467, 1.667e-3
-1.468, 1.702e-3
-1.469, 1.737e-3
-1.470, 1.772e-3
-1.471, 1.808e-3
-1.472, 1.845e-3
-1.473, 1.882e-3
-1.474, 1.917e-3
-1.475, 1.951e-3
-1.476, 1.987e-3
-1.477, 2.023e-3
-1.478, 2.058e-3
-1.479, 2.094e-3
-1.480, 2.129e-3
-1.481, 2.166e-3
-1.482, 2.203e-3
-1.483, 2.235e-3
-1.484, 2.265e-3
-1.485, 2.297e-3
-1.486, 2.334e-3
-1.487, 2.374e-3
-1.488, 2.410e-3
-1.489, 2.444e-3
-1.490, 2.476e-3
-1.491, 2.506e-3
-1.492, 2.528e-3
-1.493, 2.556e-3
-1.494, 2.594e-3
-1.495, 2.632e-3
-1.496, 2.669e-3
-1.497, 2.709e-3
-1.498, 2.745e-3
-1.499, 2.782e-3
-1.500, 2.794e-3
-1.499, 2.743e-3
-1.498, 2.688e-3
-1.497, 2.638e-3
-1.496, 2.588e-3
-1.495, 2.536e-3
-1.494, 2.485e-3
-1.493, 2.435e-3
-1.492, 2.393e-3
-1.491, 2.352e-3
-1.490, 2.307e-3
-1.489, 2.263e-3
-1.488, 2.221e-3
-1.487, 2.176e-3
-1.486, 2.134e-3
-1.485, 2.094e-3
-1.484, 2.055e-3
-1.483, 2.015e-3
-1.482, 1.978e-3
-1.481, 1.940e-3
-1.480, 1.900e-3
-1.479, 1.859e-3
-1.478, 1.816e-3
-1.477, 1.774e-3
-1.476, 1.735e-3
-1.475, 1.697e-3
-1.474, 1.660e-3
-1.473, 1.627e-3
-1.472, 1.593e-3
-1.471, 1.559e-3
-1.470, 1.523e-3
-1.469, 1.492e-3
-1.468, 1.458e-3
-1.467, 1.424e-3
-1.466, 1.393e-3
-1.465, 1.362e-3
-1.464, 1.334e-3
-1.463, 1.305e-3
-1.462, 1.275e-3
-1.461, 1.247e-3
-1.460, 1.217e-3
-1.459, 1.188e-3
-1.458, 1.158e-3
-1.457, 1.130e-3
-1.456, 1.101e-3
-1.455, 1.076e-3
-1.454, 1.049e-3
-1.453, 1.021e-3
-1.452, 9.957e-4
-1.451, 9.677e-4
-1.450, 9.426e-4
-1.449, 9.199e-4
-1.448, 8.972e-4
-1.447, 8.745e-4
-1.446, 8.503e-4
-1.445, 8.261e-4
-1.444, 8.042e-4
-1.443, 7.833e-4
-1.442, 7.634e-4
-1.441, 7.432e-4
-1.440, 7.232e-4
-1.439, 7.038e-4
-1.438, 6.844e-4
-1.437, 6.654e-4
-1.436, 6.467e-4
-1.435, 6.279e-4
-1.434, 6.098e-4
-1.433, 5.929e-4
-1.432, 5.761e-4
-1.431, 5.590e-4
-1.430, 5.423e-4
-1.429, 5.269e-4
-1.428, 5.122e-4
-1.427, 4.973e-4
-1.426, 4.833e-4
-1.425, 4.699e-4
-1.424, 4.565e-4
-1.423, 4.428e-4
-1.422, 4.294e-4
-1.421, 4.160e-4
-1.420, 4.023e-4
-1.419, 3.895e-4
-1.418, 3.776e-4
-1.417, 3.661e-4
-1.416, 3.553e-4
-1.415, 3.443e-4
-1.414, 3.338e-4
-1.413, 3.237e-4
-1.412, 3.126e-4
-1.411, 3.014e-4
-1.410, 2.912e-4
-1.409, 2.819e-4
-1.408, 2.736e-4
-1.407, 2.653e-4
-1.406, 2.571e-4
-1.405, 2.488e-4
-1.404, 2.409e-4
-1.403, 2.331e-4
-1.402, 2.257e-4
-1.401, 2.185e-4
-1.400, 2.116e-4
-1.399, 2.049e-4
-1.398, 1.986e-4
-1.397, 1.925e-4
-1.396, 1.864e-4
-1.395, 1.804e-4
-1.394, 1.746e-4
-1.393, 1.690e-4
-1.392, 1.635e-4
-1.391, 1.580e-4
-1.390, 1.525e-4
-1.389, 1.476e-4
-1.388, 1.429e-4
-1.387, 1.385e-4
-1.386, 1.341e-4
-1.385, 1.296e-4
-1.384, 1.252e-4
-1.383, 1.210e-4
-1.382, 1.169e-4
-1.381, 1.127e-4
-1.380, 1.088e-4
-1.379, 1.053e-4
-1.378, 1.018e-4
-1.377, 9.830e-5
-1.376, 9.494e-5
-1.375, 9.176e-5
-1.374, 8.873e-5
-1.373, 8.577e-5
-1.372, 8.285e-5
-1.371, 7.994e-5
-1.370, 7.715e-5
-1.369, 7.455e-5
-1.368, 7.213e-5
-1.367, 6.962e-5
-1.366, 6.713e-5
-1.365, 6.486e-5
-1.364, 6.270e-5
-1.363, 6.060e-5
-1.362, 5.853e-5
-1.361, 5.644e-5
-1.360, 5.452e-5
-1.359, 5.264e-5
-1.358, 5.093e-5
-1.357, 4.920e-5
-1.356, 4.739e-5
-1.355, 4.573e-5
-1.354, 4.423e-5
-1.353, 4.274e-5
-1.352, 4.129e-5
-1.351, 3.981e-5
-1.350, 3.841e-5
-1.349, 3.709e-5
-1.348, 3.580e-5
-1.347, 3.449e-5
-1.346, 3.326e-5
-1.345, 3.210e-5
-1.344, 3.119e-5
-1.343, 3.019e-5
-1.342, 2.919e-5
-1.341, 2.812e-5
-1.340, 2.712e-5
-1.339, 2.626e-5
-1.338, 2.539e-5
-1.337, 2.452e-5
-1.336, 2.363e-5
-1.335, 2.278e-5
-1.334, 2.206e-5
-1.333, 2.134e-5
-1.332, 2.055e-5
-1.331, 1.980e-5
-1.330, 1.905e-5
-1.329, 1.845e-5
-1.328, 1.782e-5
-1.327, 1.720e-5
-1.326, 1.653e-5
-1.325, 1.591e-5
-1.324, 1.542e-5
-1.323, 1.484e-5
-1.322, 1.429e-5
-1.321, 1.373e-5
-1.320, 1.323e-5
-1.319, 1.281e-5
-1.318, 1.233e-5
-1.317, 1.187e-5
-1.316, 1.140e-5
-1.315, 1.095e-5
-1.314, 1.062e-5
-1.313, 1.022e-5
-1.312, 9.822e-6
-1.311, 9.446e-6
-1.310, 9.061e-6
-1.309, 8.832e-6
-1.308, 8.478e-6
-1.307, 8.168e-6
-1.306, 7.811e-6
-1.305, 7.465e-6
-1.304, 7.267e-6
-1.303, 7.037e-6
-1.302, 6.719e-6
-1.301, 6.406e-6
-1.300, 6.150e-6
-1.299, 5.982e-6
-1.298, 5.772e-6
-1.297, 5.510e-6
-1.296, 5.274e-6
-1.295, 5.052e-6
-1.294, 4.899e-6
-1.293, 4.733e-6
-1.292, 4.511e-6
-1.291, 4.266e-6
-1.290, 4.101e-6
-1.289, 4.019e-6
-1.288, 3.867e-6
-1.287, 3.672e-6
-1.286, 3.466e-6
-1.285, 3.299e-6
-1.284, 3.226e-6
-1.283, 3.111e-6
-1.282, 2.949e-6
-1.281, 2.800e-6
-1.280, 2.667e-6
-1.279, 2.600e-6
-1.278, 2.492e-6
-1.277, 2.358e-6
-1.276, 2.191e-6
-1.275, 2.101e-6
-1.274, 2.077e-6
-1.273, 1.962e-6
-1.272, 1.906e-6
-1.271, 1.728e-6
-1.270, 1.642e-6
-1.269, 1.621e-6
-1.268, 1.570e-6
-1.267, 1.453e-6
-1.266, 1.297e-6
-1.265, 1.234e-6
-1.264, 1.212e-6
-1.263, 1.197e-6
-1.262, 1.043e-6
-1.261, 9.598e-7
-1.260, 8.818e-7
-1.259, 8.976e-7
-1.258, 8.690e-7
-1.257, 7.733e-7
-1.256, 6.598e-7
-1.255, 6.026e-7
-1.254, 6.302e-7
-1.253, 6.056e-7
-1.252, 5.316e-7
-1.251, 4.122e-7
-1.250, 3.500e-7
-1.249, 3.806e-7
-1.248, 3.550e-7
-1.247, 3.027e-7
-1.246, 1.803e-7
-1.245, 1.379e-7
-1.244, 1.646e-7
-1.243, 1.399e-7
-1.242, 8.958e-8
-1.241, -7.103e-9
-1.240, -6.630e-8
-1.239, -1.006e-8
-1.238, -3.177e-8
-1.237, -9.096e-8
-1.236, -1.659e-7
-1.235, -2.350e-7
-1.234, -1.610e-7
-1.233, -1.817e-7
-1.232, -2.547e-7
-1.231, -2.991e-7
-1.230, -3.603e-7
-1.229, -3.337e-7
-1.228, -3.475e-7
-1.227, -4.126e-7
-1.226, -4.649e-7
-1.225, -5.418e-7
-1.224, -4.609e-7
-1.223, -4.392e-7
-1.222, -5.438e-7
-1.221, -5.714e-7
-1.220, -6.484e-7
-1.219, -5.951e-7
-1.218, -5.892e-7
-1.217, -6.306e-7
-1.216, -7.135e-7
-1.215, -7.609e-7
-1.214, -7.105e-7
-1.213, -6.780e-7
-1.212, -7.313e-7
-1.211, -8.240e-7
-1.210, -8.427e-7
-1.209, -7.579e-7
-1.208, -7.757e-7
-1.207, -8.280e-7
-1.206, -9.167e-7
-1.205, -9.809e-7
-1.204, -8.852e-7
-1.203, -8.802e-7
-1.202, -9.089e-7
-1.201, -1.030e-6
-1.200, -1.012e-6
-1.199, -9.523e-7
-1.198, -9.651e-7
-1.197, -9.976e-7
-1.196, -1.078e-6
-1.195, -1.132e-6
-1.194, -1.050e-6
-1.193, -1.059e-6
-1.192, -1.093e-6
-1.191, -1.169e-6
-1.190, -1.217e-6
-1.189, -1.135e-6
-1.188, -1.137e-6
-1.187, -1.176e-6
-1.186, -1.256e-6
-1.185, -1.278e-6
-1.184, -1.193e-6
-1.183, -1.180e-6
-1.182, -1.257e-6
-1.181, -1.310e-6
-1.180, -1.345e-6
-1.179, -1.281e-6
-1.178, -1.269e-6
-1.177, -1.354e-6
-1.176, -1.414e-6
-1.175, -1.433e-6
-1.174, -1.368e-6
-1.173, -1.323e-6
-1.172, -1.409e-6
-1.171, -1.468e-6
-1.170, -1.516e-6
-1.169, -1.426e-6
-1.168, -1.436e-6
-1.167, -1.491e-6
-1.166, -1.543e-6
-1.165, -1.595e-6
-1.164, -1.507e-6
-1.163, -1.498e-6
-1.162, -1.572e-6
-1.161, -1.643e-6
-1.160, -1.654e-6
-1.159, -1.598e-6
-1.158, -1.578e-6
-1.157, -1.622e-6
-1.156, -1.699e-6
-1.155, -1.742e-6
-1.154, -1.654e-6
-1.153, -1.652e-6
-1.152, -1.692e-6
-1.151, -1.769e-6
-1.150, -1.825e-6
-1.149, -1.709e-6
-1.148, -1.720e-6
-1.147, -1.773e-6
-1.146, -1.848e-6
-1.145, -1.890e-6
-1.144, -1.809e-6
-1.143, -1.782e-6
-1.142, -1.848e-6
-1.141, -1.915e-6
-1.140, -1.954e-6
-1.139, -1.879e-6
-1.138, -1.848e-6
-1.137, -1.921e-6
-1.136, -1.972e-6
-1.135, -2.040e-6
-1.134, -1.941e-6
-1.133, -1.933e-6
-1.132, -1.980e-6
-1.131, -2.064e-6
-1.130, -2.085e-6
-1.129, -1.989e-6
-1.128, -1.977e-6
-1.127, -2.027e-6
-1.126, -2.159e-6
-1.125, -2.167e-6
-1.124, -2.058e-6
-1.123, -2.067e-6
-1.122, -2.110e-6
-1.121, -2.196e-6
-1.120, -2.229e-6
-1.119, -2.144e-6
-1.118, -2.154e-6
-1.117, -2.146e-6
-1.116, -2.241e-6
-1.115, -2.319e-6
-1.114, -2.219e-6
-1.113, -2.193e-6
-1.112, -2.226e-6
-1.111, -2.326e-6
-1.110, -2.343e-6
-1.109, -2.282e-6
-1.108, -2.214e-6
-1.107, -2.320e-6
-1.106, -2.389e-6
-1.105, -2.425e-6
-1.104, -2.316e-6
-1.103, -2.313e-6
-1.102, -2.388e-6
-1.101, -2.422e-6
-1.100, -2.487e-6
-1.099, -2.402e-6
-1.098, -2.365e-6
-1.097, -2.418e-6
-1.096, -2.484e-6
-1.095, -2.536e-6
-1.094, -2.453e-6
-1.093, -2.418e-6
-1.092, -2.497e-6
-1.091, -2.556e-6
-1.090, -2.581e-6
-1.089, -2.507e-6
-1.088, -2.437e-6
-1.087, -2.540e-6
-1.086, -2.644e-6
-1.085, -2.642e-6
-1.084, -2.537e-6
-1.083, -2.514e-6
-1.082, -2.561e-6
-1.081, -2.682e-6
-1.080, -2.709e-6
-1.079, -2.595e-6
-1.078, -2.586e-6
-1.077, -2.645e-6
-1.076, -2.711e-6
-1.075, -2.762e-6
-1.074, -2.660e-6
-1.073, -2.624e-6
-1.072, -2.701e-6
-1.071, -2.769e-6
-1.070, -2.848e-6
-1.069, -2.703e-6
-1.068, -2.678e-6
-1.067, -2.740e-6
-1.066, -2.819e-6
-1.065, -2.859e-6
-1.064, -2.758e-6
-1.063, -2.761e-6
-1.062, -2.845e-6
-1.061, -2.884e-6
-1.060, -2.933e-6
-1.059, -2.837e-6
-1.058, -2.776e-6
-1.057, -2.850e-6
-1.056, -2.922e-6
-1.055, -2.971e-6
-1.054, -2.901e-6
-1.053, -2.851e-6
-1.052, -2.911e-6
-1.051, -3.003e-6
-1.050, -3.048e-6
-1.049, -2.956e-6
-1.048, -2.902e-6
-1.047, -2.976e-6
-1.046, -3.060e-6
-1.045, -3.112e-6
-1.044, -2.996e-6
-1.043, -2.970e-6
-1.042, -3.035e-6
-1.041, -3.137e-6
-1.040, -3.191e-6
-1.039, -3.051e-6
-1.038, -3.045e-6
-1.037, -3.091e-6
-1.036, -3.192e-6
-1.035, -3.256e-6
-1.034, -3.169e-6
-1.033, -3.113e-6
-1.032, -3.165e-6
-1.031, -3.257e-6
-1.030, -3.325e-6
-1.029, -3.231e-6
-1.028, -3.179e-6
-1.027, -3.248e-6
-1.026, -3.352e-6
-1.025, -3.393e-6
-1.024, -3.323e-6
-1.023, -3.289e-6
-1.022, -3.338e-6
-1.021, -3.420e-6
-1.020, -3.496e-6
-1.019, -3.424e-6
-1.018, -3.394e-6
-1.017, -3.430e-6
-1.016, -3.568e-6
-1.015, -3.566e-6
-1.014, -3.501e-6
-1.013, -3.457e-6
-1.012, -3.552e-6
-1.011, -3.657e-6
-1.010, -3.714e-6
-1.009, -3.612e-6
-1.008, -3.559e-6
-1.007, -3.649e-6
-1.006, -3.799e-6
-1.005, -3.812e-6
-1.004, -3.738e-6
-1.003, -3.681e-6
-1.002, -3.765e-6
-1.001, -3.905e-6
-1.000, -1.861e-6
-1.001, -1.182e-6
-1.002, -8.664e-7
-1.003, -7.441e-7
-1.004, -7.313e-7
-1.005, -5.882e-7
-1.006, -3.633e-7
-1.007, -1.867e-7
-1.008, -1.729e-7
-1.009, -1.768e-7
-1.010, -1.314e-7
-1.011, 1.559e-8
-1.012, 1.448e-7
-1.013, 2.021e-7
-1.014, 1.577e-7
-1.015, 1.557e-7
-1.016, 2.958e-7
-1.017, 4.329e-7
-1.018, 4.092e-7
-1.019, 3.520e-7
-1.020, 3.639e-7
-1.021, 5.365e-7
-1.022, 6.154e-7
-1.023, 5.967e-7
-1.024, 5.395e-7
-1.025, 5.750e-7
-1.026, 6.934e-7
-1.027, 7.703e-7
-1.028, 7.447e-7
-1.029, 6.934e-7
-1.030, 7.023e-7
-1.031, 8.068e-7
-1.032, 9.006e-7
-1.033, 8.562e-7
-1.034, 8.167e-7
-1.035, 7.960e-7
-1.036, 9.075e-7
-1.037, 1.010e-6
-1.038, 9.746e-7
-1.039, 9.035e-7
-1.040, 8.779e-7
-1.041, 9.864e-7
-1.042, 1.103e-6
-1.043, 1.061e-6
-1.044, 1.007e-6
-1.045, 9.805e-7
-1.046, 1.109e-6
-1.047, 1.189e-6
-1.048, 1.144e-6
-1.049, 1.063e-6
-1.050, 1.079e-6
-1.051, 1.139e-6
-1.052, 1.248e-6
-1.053, 1.230e-6
-1.054, 1.137e-6
-1.055, 1.139e-6
-1.056, 1.246e-6
-1.057, 1.326e-6
-1.058, 1.299e-6
-1.059, 1.225e-6
-1.060, 1.225e-6
-1.061, 1.308e-6
-1.062, 1.404e-6
-1.063, 1.368e-6
-1.064, 1.272e-6
-1.065, 1.296e-6
-1.066, 1.381e-6
-1.067, 1.429e-6
-1.068, 1.408e-6
-1.069, 1.339e-6
-1.070, 1.323e-6
-1.071, 1.459e-6
-1.072, 1.507e-6
-1.073, 1.470e-6
-1.074, 1.421e-6
-1.075, 1.405e-6
-1.076, 1.525e-6
-1.077, 1.571e-6
-1.078, 1.547e-6
-1.079, 1.474e-6
-1.080, 1.447e-6
-1.081, 1.554e-6
-1.082, 1.657e-6
-1.083, 1.584e-6
-1.084, 1.557e-6
-1.085, 1.533e-6
-1.086, 1.641e-6
-1.087, 1.713e-6
-1.088, 1.648e-6
-1.089, 1.596e-6
-1.090, 1.595e-6
-1.091, 1.689e-6
-1.092, 1.742e-6
-1.093, 1.728e-6
-1.094, 1.666e-6
-1.095, 1.658e-6
-1.096, 1.751e-6
-1.097, 1.805e-6
-1.098, 1.774e-6
-1.099, 1.718e-6
-1.100, 1.709e-6
-1.101, 1.838e-6
-1.102, 1.847e-6
-1.103, 1.827e-6
-1.104, 1.756e-6
-1.105, 1.778e-6
-1.106, 1.853e-6
-1.107, 1.914e-6
-1.108, 1.890e-6
-1.109, 1.821e-6
-1.110, 1.829e-6
-1.111, 1.901e-6
-1.112, 1.949e-6
-1.113, 1.940e-6
-1.114, 1.891e-6
-1.115, 1.863e-6
-1.116, 1.949e-6
-1.117, 2.030e-6
-1.118, 2.004e-6
-1.119, 1.933e-6
-1.120, 1.907e-6
-1.121, 1.983e-6
-1.122, 2.098e-6
-1.123, 2.056e-6
-1.124, 1.977e-6
-1.125, 1.972e-6
-1.126, 2.079e-6
-1.127, 2.113e-6
-1.128, 2.101e-6
-1.129, 2.037e-6
-1.130, 2.058e-6
-1.131, 2.114e-6
-1.132, 2.181e-6
-1.133, 2.156e-6
-1.134, 2.088e-6
-1.135, 2.077e-6
-1.136, 2.142e-6
-1.137, 2.230e-6
-1.138, 2.190e-6
-1.139, 2.109e-6
-1.140, 2.136e-6
-1.141, 2.183e-6
-1.142, 2.266e-6
-1.143, 2.265e-6
-1.144, 2.161e-6
-1.145, 2.143e-6
-1.146, 2.268e-6
-1.147, 2.297e-6
-1.148, 2.268e-6
-1.149, 2.224e-6
-1.150, 2.201e-6
-1.151, 2.274e-6
-1.152, 2.367e-6
-1.153, 2.345e-6
-1.154, 2.293e-6
-1.155, 2.258e-6
-1.156, 2.333e-6
-1.157, 2.423e-6
-1.158, 2.354e-6
-1.159, 2.305e-6
-1.160, 2.286e-6
-1.161, 2.377e-6
-1.162, 2.429e-6
-1.163, 2.412e-6
-1.164, 2.355e-6
-1.165, 2.370e-6
-1.166, 2.438e-6
-1.167, 2.488e-6
-1.168, 2.453e-6
-1.169, 2.365e-6
-1.170, 2.385e-6
-1.171, 2.452e-6
-1.172, 2.501e-6
-1.173, 2.522e-6
-1.174, 2.399e-6
-1.175, 2.443e-6
-1.176, 2.469e-6
-1.177, 2.565e-6
-1.178, 2.520e-6
-1.179, 2.484e-6
-1.180, 2.448e-6
-1.181, 2.529e-6
-1.182, 2.600e-6
-1.183, 2.575e-6
-1.184, 2.518e-6
-1.185, 2.489e-6
-1.186, 2.568e-6
-1.187, 2.629e-6
-1.188, 2.606e-6
-1.189, 2.547e-6
-1.190, 2.541e-6
-1.191, 2.601e-6
-1.192, 2.675e-6
-1.193, 2.624e-6
-1.194, 2.610e-6
-1.195, 2.569e-6
-1.196, 2.650e-6
-1.197, 2.712e-6
-1.198, 2.657e-6
-1.199, 2.644e-6
-1.200, 2.632e-6
-1.201, 2.665e-6
-1.202, 2.758e-6
-1.203, 2.734e-6
-1.204, 2.686e-6
-1.205, 2.684e-6
-1.206, 2.714e-6
-1.207, 2.810e-6
-1.208, 2.774e-6
-1.209, 2.732e-6
-1.210, 2.709e-6
-1.211, 2.756e-6
-1.212, 2.834e-6
-1.213, 2.793e-6
-1.214, 2.783e-6
-1.215, 2.755e-6
-1.216, 2.814e-6
-1.217, 2.889e-6
-1.218, 2.846e-6
-1.219, 2.819e-6
-1.220, 2.823e-6
-1.221, 2.871e-6
-1.222, 2.959e-6
-1.223, 2.927e-6
-1.224, 2.866e-6
-1.225, 2.858e-6
-1.226, 2.930e-6
-1.227, 2.997e-6
-1.228, 3.001e-6
-1.229, 2.954e-6
-1.230, 2.941e-6
-1.231, 2.984e-6
-1.232, 3.089e-6
-1.233, 3.034e-6
-1.234, 3.043e-6
-1.235, 3.009e-6
-1.236, 3.083e-6
-1.237, 3.158e-6
-1.238, 3.113e-6
-1.239, 3.089e-6
-1.240, 3.051e-6
-1.241, 3.133e-6
-1.242, 3.224e-6
-1.243, 3.171e-6
-1.244, 3.165e-6
-1.245, 3.170e-6
-1.246, 3.224e-6
-1.247, 3.299e-6
-1.248, 3.259e-6
-1.249, 3.278e-6
-1.250, 3.251e-6
-1.251, 3.323e-6
-1.252, 3.416e-6
-1.253, 3.382e-6
-1.254, 3.403e-6
-1.255, 3.366e-6
-1.256, 3.422e-6
-1.257, 3.533e-6
-1.258, 3.499e-6
-1.259, 3.485e-6
-1.260, 3.476e-6
-1.261, 3.581e-6
-1.262, 3.671e-6
-1.263, 3.662e-6
-1.264, 3.629e-6
-1.265, 3.616e-6
-1.266, 3.726e-6
-1.267, 3.814e-6
-1.268, 3.789e-6
-1.269, 3.807e-6
-1.270, 3.811e-6
-1.271, 3.902e-6
-1.272, 3.979e-6
-1.273, 4.010e-6
-1.274, 4.001e-6
-1.275, 4.017e-6
-1.276, 4.104e-6
-1.277, 4.220e-6
-1.278, 4.225e-6
-1.279, 4.230e-6
-1.280, 4.280e-6
-1.281, 4.362e-6
-1.282, 4.504e-6
-1.283, 4.482e-6
-1.284, 4.516e-6
-1.285, 4.568e-6
-1.286, 4.674e-6
-1.287, 4.809e-6
-1.288, 4.825e-6
-1.289, 4.880e-6
-1.290, 4.919e-6
-1.291, 5.026e-6
-1.292, 5.197e-6
-1.293, 5.214e-6
-1.294, 5.271e-6
-1.295, 5.311e-6
-1.296, 5.450e-6
-1.297, 5.660e-6
-1.298, 5.700e-6
-1.299, 5.767e-6
-1.300, 5.843e-6
-1.301, 6.030e-6
-1.302, 6.189e-6
-1.303, 6.268e-6
-1.304, 6.380e-6
-1.305, 6.498e-6
-1.306, 6.649e-6
-1.307, 6.895e-6
-1.308, 6.991e-6
-1.309, 7.142e-6
-1.310, 7.266e-6
-1.311, 7.504e-6
-1.312, 7.735e-6
-1.313, 7.897e-6
-1.314, 8.059e-6
-1.315, 8.237e-6
-1.316, 8.498e-6
-1.317, 8.780e-6
-1.318, 8.989e-6
-1.319, 9.201e-6
-1.320, 9.459e-6
-1.321, 9.786e-6
-1.322, 1.010e-5
-1.323, 1.036e-5
-1.324, 1.065e-5
-1.325, 1.093e-5
-1.326, 1.130e-5
-1.327, 1.174e-5
-1.328, 1.209e-5
-1.329, 1.243e-5
-1.330, 1.280e-5
-1.331, 1.326e-5
-1.332, 1.378e-5
-1.333, 1.419e-5
-1.334, 1.464e-5
-1.335, 1.517e-5
-1.336, 1.570e-5
-1.337, 1.631e-5
-1.338, 1.688e-5
-1.339, 1.745e-5
-1.340, 1.806e-5
-1.341, 1.874e-5
-1.342, 1.951e-5
-1.343, 2.023e-5
-1.344, 2.094e-5
-1.345, 2.175e-5
-1.346, 2.259e-5
-1.347, 2.355e-5
-1.348, 2.447e-5
-1.349, 2.538e-5
-1.350, 2.635e-5
-1.351, 2.747e-5
-1.352, 2.859e-5
-1.353, 2.978e-5
-1.354, 3.094e-5
-1.355, 3.217e-5
-1.356, 3.350e-5
-1.357, 3.498e-5
-1.358, 3.644e-5
-1.359, 3.795e-5
-1.360, 3.948e-5
-1.361, 4.116e-5
-1.362, 4.297e-5
-1.363, 4.477e-5
-1.364, 4.663e-5
-1.365, 4.862e-5
-1.366, 5.073e-5
-1.367, 5.303e-5
-1.368, 5.530e-5
-1.369, 5.764e-5
-1.370, 6.012e-5
-1.371, 6.272e-5
-1.372, 6.555e-5
-1.373, 6.839e-5
-1.374, 7.134e-5
-1.375, 7.447e-5
-1.376, 7.772e-5
-1.377, 8.117e-5
-1.378, 8.477e-5
-1.379, 8.840e-5
-1.380, 9.223e-5
-1.381, 9.623e-5
-1.382, 1.005e-4
-1.383, 1.049e-4
-1.384, 1.093e-4
-1.385, 1.140e-4
-1.386, 1.188e-4
-1.387, 1.239e-4
-1.388, 1.293e-4
-1.389, 1.346e-4
-1.390, 1.402e-4
-1.391, 1.461e-4
-1.392, 1.522e-4
-1.393, 1.586e-4
-1.394, 1.650e-4
-1.395, 1.717e-4
-1.396, 1.788e-4
-1.397, 1.861e-4
-1.398, 1.937e-4
-1.399, 2.013e-4
-1.400, 2.092e-4
-1.401, 2.176e-4
-1.402, 2.263e-4
-1.403, 2.354e-4
-1.404, 2.447e-4
-1.405, 2.542e-4
-1.406, 2.640e-4
-1.407, 2.741e-4
-1.408, 2.845e-4
-1.409, 2.950e-4
-1.410, 3.059e-4
-1.411, 3.173e-4
-1.412, 3.293e-4
-1.413, 3.417e-4
-1.414, 3.544e-4
-1.415, 3.672e-4
-1.416, 3.803e-4
-1.417, 3.940e-4
-1.418, 4.082e-4
-1.419, 4.225e-4
-1.420, 4.371e-4
-1.421, 4.521e-4
-1.422, 4.678e-4
-1.423, 4.839e-4
-1.424, 4.999e-4
-1.425, 5.164e-4
-1.426, 5.334e-4
-1.427, 5.511e-4
-1.428, 5.693e-4
-1.429, 5.876e-4
-1.430, 6.063e-4
-1.431, 6.254e-4
-1.432, 6.451e-4
-1.433, 6.654e-4
-1.434, 6.856e-4
-1.435, 7.060e-4
-1.436, 7.273e-4
-1.437, 7.490e-4
-1.438, 7.714e-4
-1.439, 7.941e-4
-1.440, 8.169e-4
-1.441, 8.399e-4
-1.442, 8.637e-4
-1.443, 8.883e-4
-1.444, 9.132e-4
-1.445, 9.381e-4
-1.446, 9.635e-4
-1.447, 9.894e-4
-1.448, 1.015e-3
-1.449, 1.043e-3
-1.450, 1.070e-3
-1.451, 1.097e-3
-1.452, 1.125e-3
-1.453, 1.154e-3
-1.454, 1.184e-3
-1.455, 1.212e-3
-1.456, 1.241e-3
-1.457, 1.272e-3
-1.458, 1.302e-3
-1.459, 1.333e-3
-1.460, 1.365e-3
-1.461, 1.395e-3
-1.462, 1.428e-3
-1.463, 1.461e-3
-1.464, 1.495e-3
-1.465, 1.527e-3
-1.466, 1.560e-3
-1.467, 1.594e-3
-1.468, 1.630e-3
-1.469, 1.665e-3
-1.470, 1.700e-3
-1.471, 1.734e-3
-1.472, 1.770e-3
-1.473, 1.806e-3
-1.474, 1.843e-3
-1.475, 1.879e-3
-1.476, 1.915e-3
-1.477, 1.953e-3
-1.478, 1.990e-3
-1.479, 2.027e-3
-1.480, 2.064e-3
-1.481, 2.101e-3
-1.482, 2.140e-3
-1.483, 2.178e-3
-1.484, 2.214e-3
-1.485, 2.249e-3
-1.486, 2.281e-3
-1.487, 2.315e-3
-1.488, 2.349e-3
-1.489, 2.380e-3
-1.490, 2.414e-3
-1.491, 2.454e-3
-1.492, 2.493e-3
-1.493, 2.531e-3
-1.494, 2.565e-3
-1.495, 2.593e-3
-1.496, 2.620e-3
-1.497, 2.648e-3
-1.498, 2.677e-3
-1.499, 2.710e-3
-1.500, 2.705e-3
-1.499, 2.656e-3
-1.498, 2.607e-3
-1.497, 2.557e-3
-1.496, 2.507e-3
-1.495, 2.456e-3
-1.494, 2.410e-3
-1.493, 2.363e-3
-1.492, 2.317e-3
-1.491, 2.275e-3
-1.490, 2.225e-3
-1.489, 2.183e-3
-1.488, 2.141e-3
-1.487, 2.102e-3
-1.486, 2.060e-3
-1.485, 2.017e-3
-1.484, 1.974e-3
-1.483, 1.931e-3
-1.482, 1.891e-3
-1.481, 1.850e-3
-1.480, 1.815e-3
-1.479, 1.777e-3
-1.478, 1.738e-3
-1.477, 1.703e-3
-1.476, 1.668e-3
-1.475, 1.633e-3
-1.474, 1.598e-3
-1.473, 1.563e-3
-1.472, 1.530e-3
-1.471, 1.497e-3
-1.470, 1.466e-3
-1.469, 1.433e-3
-1.468, 1.402e-3
-1.467, 1.369e-3
-1.466, 1.338e-3
-1.465, 1.308e-3
-1.464, 1.278e-3
-1.463, 1.248e-3
-1.462, 1.221e-3
-1.461, 1.194e-3
-1.460, 1.163e-3
-1.459, 1.132e-3
-1.458, 1.103e-3
-1.457, 1.078e-3
-1.456, 1.052e-3
-1.455, 1.023e-3
-1.454, 9.949e-4
-1.453, 9.676e-4
-1.452, 9.423e-4
-1.451, 9.205e-4
-1.450, 8.969e-4
-1.449, 8.733e-4
-1.448, 8.506e-4
-1.447, 8.277e-4
-1.446, 8.050e-4
-1.445, 7.818e-4
-1.444, 7.602e-4
-1.443, 7.402e-4
-1.442, 7.203e-4
-1.441, 7.001e-4
-1.440, 6.808e-4
-1.439, 6.612e-4
-1.438, 6.423e-4
-1.437, 6.245e-4
-1.436, 6.073e-4
-1.435, 5.906e-4
-1.434, 5.734e-4
-1.433, 5.556e-4
-1.432, 5.383e-4
-1.431, 5.215e-4
-1.430, 5.057e-4
-1.429, 4.909e-4
-1.428, 4.767e-4
-1.427, 4.628e-4
-1.426, 4.489e-4
-1.425, 4.355e-4
-1.424, 4.224e-4
-1.423, 4.096e-4
-1.422, 3.985e-4
-1.421, 3.885e-4
-1.420, 3.770e-4
-1.419, 3.649e-4
-1.418, 3.526e-4
-1.417, 3.409e-4
-1.416, 3.301e-4
-1.415, 3.197e-4
-1.414, 3.099e-4
-1.413, 3.004e-4
-1.412, 2.912e-4
-1.411, 2.824e-4
-1.410, 2.734e-4
-1.409, 2.642e-4
-1.408, 2.551e-4
-1.407, 2.464e-4
-1.406, 2.383e-4
-1.405, 2.305e-4
-1.404, 2.229e-4
-1.403, 2.154e-4
-1.402, 2.084e-4
-1.401, 2.013e-4
-1.400, 1.945e-4
-1.399, 1.877e-4
-1.398, 1.812e-4
-1.397, 1.749e-4
-1.396, 1.686e-4
-1.395, 1.625e-4
-1.394, 1.568e-4
-1.393, 1.513e-4
-1.392, 1.459e-4
-1.391, 1.408e-4
-1.390, 1.358e-4
-1.389, 1.310e-4
-1.388, 1.264e-4
-1.387, 1.220e-4
-1.386, 1.179e-4
-1.385, 1.137e-4
-1.384, 1.099e-4
-1.383, 1.062e-4
-1.382, 1.027e-4
-1.381, 9.921e-5
-1.380, 9.568e-5
-1.379, 9.238e-5
-1.378, 8.916e-5
-1.377, 8.609e-5
-1.376, 8.310e-5
-1.375, 8.016e-5
-1.374, 7.749e-5
-1.373, 7.490e-5
-1.372, 7.233e-5
-1.371, 6.987e-5
-1.370, 6.742e-5
-1.369, 6.507e-5
-1.368, 6.287e-5
-1.367, 6.073e-5
-1.366, 5.857e-5
-1.365, 5.655e-5
-1.364, 5.461e-5
-1.363, 5.279e-5
-1.362, 5.105e-5
-1.361, 4.928e-5
-1.360, 4.750e-5
-1.359, 4.586e-5
-1.358, 4.434e-5
-1.357, 4.288e-5
-1.356, 4.137e-5
-1.355, 3.988e-5
-1.354, 3.854e-5
-1.353, 3.730e-5
-1.352, 3.605e-5
-1.351, 3.475e-5
-1.350, 3.350e-5
-1.349, 3.231e-5
-1.348, 3.122e-5
-1.347, 3.013e-5
-1.346, 2.908e-5
-1.345, 2.801e-5
-1.344, 2.700e-5
-1.343, 2.610e-5
-1.342, 2.520e-5
-1.341, 2.429e-5
-1.340, 2.337e-5
-1.339, 2.251e-5
-1.338, 2.179e-5
-1.337, 2.104e-5
-1.336, 2.026e-5
-1.335, 1.947e-5
-1.334, 1.874e-5
-1.333, 1.813e-5
-1.332, 1.746e-5
-1.331, 1.681e-5
-1.330, 1.616e-5
-1.329, 1.555e-5
-1.328, 1.507e-5
-1.327, 1.454e-5
-1.326, 1.396e-5
-1.325, 1.340e-5
-1.324, 1.290e-5
-1.323, 1.245e-5
-1.322, 1.204e-5
-1.321, 1.159e-5
-1.320, 1.112e-5
-1.319, 1.069e-5
-1.318, 1.037e-5
-1.317, 1.003e-5
-1.316, 9.622e-6
-1.315, 9.233e-6
-1.314, 8.862e-6
-1.313, 8.580e-6
-1.312, 8.277e-6
-1.311, 7.956e-6
-1.310, 7.584e-6
-1.309, 7.296e-6
-1.308, 7.060e-6
-1.307, 6.852e-6
-1.306, 6.564e-6
-1.305, 6.274e-6
-1.304, 6.032e-6
-1.303, 5.853e-6
-1.302, 5.638e-6
-1.301, 5.431e-6
-1.300, 5.164e-6
-1.299, 4.945e-6
-1.298, 4.814e-6
-1.297, 4.645e-6
-1.296, 4.460e-6
-1.295, 4.232e-6
-1.294, 4.051e-6
-1.293, 3.964e-6
-1.292, 3.818e-6
-1.291, 3.608e-6
-1.290, 3.443e-6
-1.289, 3.288e-6
-1.288, 3.223e-6
-1.287, 3.126e-6
-1.286, 2.934e-6
-1.285, 2.793e-6
-1.284, 2.659e-6
-1.283, 2.585e-6
-1.282, 2.507e-6
-1.281, 2.368e-6
-1.280, 2.198e-6
-1.279, 2.136e-6
-1.278, 2.078e-6
-1.277, 2.017e-6
-1.276, 1.891e-6
-1.275, 1.757e-6
-1.274, 1.655e-6
-1.273, 1.602e-6
-1.272, 1.604e-6
-1.271, 1.482e-6
-1.270, 1.313e-6
-1.269, 1.249e-6
-1.268, 1.254e-6
-1.267, 1.217e-6
-1.266, 1.104e-6
-1.265, 9.844e-7
-1.264, 9.272e-7
-1.263, 9.183e-7
-1.262, 8.838e-7
-1.261, 8.147e-7
-1.260, 7.111e-7
-1.259, 6.460e-7
-1.258, 6.204e-7
-1.257, 6.223e-7
-1.256, 5.701e-7
-1.255, 4.497e-7
-1.254, 3.826e-7
-1.253, 4.171e-7
-1.252, 4.033e-7
-1.251, 3.066e-7
-1.250, 2.504e-7
-1.249, 1.656e-7
-1.248, 2.169e-7
-1.247, 1.951e-7
-1.246, 1.231e-7
-1.245, 4.617e-8
-1.244, 1.066e-8
-1.243, -2.171e-9
-1.242, 3.335e-8
-1.241, -5.150e-8
-1.240, -1.206e-7
-1.239, -1.817e-7
-1.238, -1.738e-7
-1.237, -1.492e-7
-1.236, -1.867e-7
-1.235, -2.626e-7
-1.234, -3.287e-7
-1.233, -3.149e-7
-1.232, -3.051e-7
-1.231, -2.981e-7
-1.230, -4.402e-7
-1.229, -4.708e-7
-1.228, -4.343e-7
-1.227, -4.234e-7
-1.226, -4.580e-7
-1.225, -5.912e-7
-1.224, -5.685e-7
-1.223, -5.478e-7
-1.222, -5.517e-7
-1.221, -5.724e-7
-1.220, -6.681e-7
-1.219, -6.839e-7
-1.218, -6.829e-7
-1.217, -6.514e-7
-1.216, -6.987e-7
-1.215, -7.727e-7
-1.214, -7.944e-7
-1.213, -7.737e-7
-1.212, -7.283e-7
-1.211, -7.826e-7
-1.210, -8.980e-7
-1.209, -8.753e-7
-1.208, -9.089e-7
-1.207, -8.299e-7
-1.206, -9.108e-7
-1.205, -9.532e-7
-1.204, -1.014e-6
-1.203, -9.651e-7
-1.202, -9.059e-7
-1.201, -9.838e-7
-1.200, -1.054e-6
-1.199, -1.082e-6
-1.198, -1.087e-6
-1.197, -1.010e-6
-1.196, -1.041e-6
-1.195, -1.155e-6
-1.194, -1.152e-6
-1.193, -1.140e-6
-1.192, -1.073e-6
-1.191, -1.151e-6
-1.190, -1.219e-6
-1.189, -1.248e-6
-1.188, -1.218e-6
-1.187, -1.157e-6
-1.186, -1.217e-6
-1.185, -1.292e-6
-1.184, -1.302e-6
-1.183, -1.266e-6
-1.182, -1.256e-6
-1.181, -1.280e-6
-1.180, -1.350e-6
-1.179, -1.390e-6
-1.178, -1.354e-6
-1.177, -1.325e-6
-1.176, -1.334e-6
-1.175, -1.429e-6
-1.174, -1.461e-6
-1.173, -1.428e-6
-1.172, -1.380e-6
-1.171, -1.456e-6
-1.170, -1.484e-6
-1.169, -1.541e-6
-1.168, -1.489e-6
-1.167, -1.469e-6
-1.166, -1.506e-6
-1.165, -1.573e-6
-1.164, -1.625e-6
-1.163, -1.578e-6
-1.162, -1.536e-6
-1.161, -1.587e-6
-1.160, -1.643e-6
-1.159, -1.679e-6
-1.158, -1.667e-6
-1.157, -1.599e-6
-1.156, -1.661e-6
-1.155, -1.707e-6
-1.154, -1.751e-6
-1.153, -1.744e-6
-1.152, -1.654e-6
-1.151, -1.716e-6
-1.150, -1.780e-6
-1.149, -1.818e-6
-1.148, -1.787e-6
-1.147, -1.730e-6
-1.146, -1.809e-6
-1.145, -1.855e-6
-1.144, -1.881e-6
-1.143, -1.840e-6
-1.142, -1.792e-6
-1.141, -1.870e-6
-1.140, -1.920e-6
-1.139, -1.987e-6
-1.138, -1.918e-6
-1.137, -1.841e-6
-1.136, -1.884e-6
-1.135, -1.975e-6
-1.134, -2.023e-6
-1.133, -1.980e-6
-1.132, -1.933e-6
-1.131, -1.983e-6
-1.130, -2.036e-6
-1.129, -2.083e-6
-1.128, -2.014e-6
-1.127, -1.952e-6
-1.126, -2.062e-6
-1.125, -2.117e-6
-1.124, -2.163e-6
-1.123, -2.130e-6
-1.122, -2.056e-6
-1.121, -2.082e-6
-1.120, -2.150e-6
-1.119, -2.215e-6
-1.118, -2.185e-6
-1.117, -2.100e-6
-1.116, -2.184e-6
-1.115, -2.225e-6
-1.114, -2.283e-6
-1.113, -2.249e-6
-1.112, -2.177e-6
-1.111, -2.203e-6
-1.110, -2.323e-6
-1.109, -2.318e-6
-1.108, -2.292e-6
-1.107, -2.242e-6
-1.106, -2.312e-6
-1.105, -2.328e-6
-1.104, -2.394e-6
-1.103, -2.332e-6
-1.102, -2.288e-6
-1.101, -2.333e-6
-1.100, -2.431e-6
-1.099, -2.481e-6
-1.098, -2.406e-6
-1.097, -2.362e-6
-1.096, -2.382e-6
-1.095, -2.473e-6
-1.094, -2.490e-6
-1.093, -2.461e-6
-1.092, -2.381e-6
-1.091, -2.461e-6
-1.090, -2.521e-6
-1.089, -2.559e-6
-1.088, -2.507e-6
-1.087, -2.454e-6
-1.086, -2.502e-6
-1.085, -2.570e-6
-1.084, -2.606e-6
-1.083, -2.567e-6
-1.082, -2.497e-6
-1.081, -2.560e-6
-1.080, -2.647e-6
-1.079, -2.648e-6
-1.078, -2.623e-6
-1.077, -2.555e-6
-1.076, -2.595e-6
-1.075, -2.716e-6
-1.074, -2.697e-6
-1.073, -2.672e-6
-1.072, -2.609e-6
-1.071, -2.624e-6
-1.070, -2.734e-6
-1.069, -2.753e-6
-1.068, -2.728e-6
-1.067, -2.698e-6
-1.066, -2.673e-6
-1.065, -2.791e-6
-1.064, -2.807e-6
-1.063, -2.778e-6
-1.062, -2.730e-6
-1.061, -2.753e-6
-1.060, -2.835e-6
-1.059, -2.865e-6
-1.058, -2.829e-6
-1.057, -2.787e-6
-1.056, -2.777e-6
-1.055, -2.877e-6
-1.054, -2.949e-6
-1.053, -2.873e-6
-1.052, -2.817e-6
-1.051, -2.860e-6
-1.050, -2.931e-6
-1.049, -2.986e-6
-1.048, -2.945e-6
-1.047, -2.880e-6
-1.046, -2.879e-6
-1.045, -2.994e-6
-1.044, -3.024e-6
-1.043, -3.012e-6
-1.042, -2.924e-6
-1.041, -2.932e-6
-1.040, -3.060e-6
-1.039, -3.096e-6
-1.038, -3.072e-6
-1.037, -2.975e-6
-1.036, -3.007e-6
-1.035, -3.155e-6
-1.034, -3.149e-6
-1.033, -3.167e-6
-1.032, -3.065e-6
-1.031, -3.066e-6
-1.030, -3.181e-6
-1.029, -3.225e-6
-1.028, -3.226e-6
-1.027, -3.121e-6
-1.026, -3.098e-6
-1.025, -3.253e-6
-1.024, -3.325e-6
-1.023, -3.294e-6
-1.022, -3.225e-6
-1.021, -3.220e-6
-1.020, -3.332e-6
-1.019, -3.428e-6
-1.018, -3.364e-6
-1.017, -3.329e-6
-1.016, -3.298e-6
-1.015, -3.480e-6
-1.014, -3.508e-6
-1.013, -3.485e-6
-1.012, -3.388e-6
-1.011, -3.407e-6
-1.010, -3.539e-6
-1.009, -3.626e-6
-1.008, -3.592e-6
-1.007, -3.539e-6
-1.006, -3.545e-6
-1.005, -3.674e-6
-1.004, -3.763e-6
-1.003, -3.713e-6
-1.002, -3.652e-6
-1.001, -3.626e-6
