Potential V vs RHE, Current mA cm-2
0.013299999999999867,0.12863969849672777
0.012299999999999978,-1.3543031273607997
0.011299999999999866,-2.4884771764625997
0.010299999999999976,-3.579219588658543
0.009299999999999864,-4.626105950558669
0.008299999999999974,-5.497568111275533
0.007299999999999862,-6.238876832404812
0.006299999999999972,-6.762320013354876
0.00529999999999986,-7.28576319430494
0.0042999999999999705,-7.896918475846635
0.0032999999999998586,-8.464217707092514
0.0022999999999999687,-8.812236686859313
0.0012999999999998568,-9.11781432763016
0.00029999999999996696,-9.423391968401008
-0.000700000000000145,-9.81668170976349
-0.0017000000000000348,-10.164700689530287
-0.0027000000000001467,-10.382566229709504
-0.0037000000000000366,-10.514134380596953
-0.0047000000000001485,-10.688143870480351
-0.005700000000000038,-11.037577561547016
-0.00670000000000015,-11.299299152022046
-0.00770000000000004,-11.42945259160963
-0.008700000000000152,-11.517164692201263
-0.009700000000000042,-11.647318131788847
-0.010700000000000154,-11.86659838326793
-0.011700000000000044,-12.084463923447142
-0.012700000000000156,-12.12831997374296
-0.013700000000000045,-12.12831997374296
-0.014700000000000157,-12.214617363034726
-0.015700000000000047,-12.390041564217992
-0.01670000000000016,-12.520195003805576
-0.01770000000000005,-12.56405105410139
-0.01870000000000016,-12.520195003805576
-0.01970000000000005,-12.607907104397206
-0.020700000000000163,-12.781916594280606
-0.021700000000000053,-12.913484745168056
-0.022700000000000164,-12.913484745168056
-0.023700000000000054,-12.869628694872238
-0.024700000000000166,-12.955926084164007
-0.025700000000000056,-13.087494235051453
-0.026700000000000168,-13.217647674639037
-0.027700000000000058,-13.217647674639037
-0.02870000000000017,-13.13135028534727
-0.02970000000000006,-13.13135028534727
-0.03070000000000017,-13.30535977523067
-0.03170000000000006,-13.3930718758223
-0.03270000000000017,-13.3930718758223
-0.03370000000000006,-13.349215825526485
-0.034700000000000175,-13.349215825526485
-0.035700000000000065,-13.523225315409885
-0.03670000000000018,-13.610937416001518
-0.03770000000000007,-13.610937416001518
-0.03870000000000018,-13.567081365705702
-0.03970000000000007,-13.567081365705702
-0.04070000000000018,-13.698649516593148
-0.04170000000000007,-13.784946905884919
-0.04270000000000018,-13.784946905884919
-0.04370000000000007,-13.698649516593148
-0.044700000000000184,-13.698649516593148
-0.045700000000000074,-13.828802956180734
-0.046700000000000186,-13.916515056772363
-0.047700000000000076,-13.872659006476551
-0.04870000000000019,-13.784946905884919
-0.04970000000000008,-13.828802956180734
-0.05070000000000019,-13.916515056772363
-0.05170000000000008,-14.002812446064135
-0.05270000000000019,-14.002812446064135
-0.05370000000000008,-13.916515056772363
-0.05470000000000019,-13.916515056772363
-0.05570000000000008,-14.046668496359947
-0.056700000000000195,-14.13438059695158
-0.057700000000000085,-14.13438059695158
-0.058700000000000196,-14.046668496359947
-0.059700000000000086,-14.046668496359947
-0.0607000000000002,-14.175407224647667
-0.06170000000000009,-14.26028990263957
-0.0627000000000002,-14.26028990263957
-0.06370000000000009,-14.175407224647667
-0.0647000000000002,-14.175407224647667
-0.06570000000000009,-14.30273124163552
-0.0667000000000002,-14.401761032626075
-0.0677000000000001,-14.401761032626075
-0.0687000000000002,-14.30273124163552
-0.0697000000000001,-14.30273124163552
-0.07070000000000021,-14.444202371622024
-0.0717000000000001,-14.57152638860988
-0.07270000000000021,-14.529085049613924
-0.0737000000000001,-14.444202371622024
-0.07470000000000021,-14.444202371622024
-0.0757000000000001,-14.57152638860988
-0.07670000000000021,-14.65640906660178
-0.0777000000000001,-14.65640906660178
-0.07870000000000021,-14.57152638860988
-0.0797000000000001,-14.61396772760583
-0.08070000000000022,-14.69885040559773
-0.0817000000000001,-14.826174422585586
-0.08270000000000022,-14.783733083589633
-0.08370000000000011,-14.741291744593681
-0.08470000000000022,-14.741291744593681
-0.08570000000000011,-14.868615761581536
-0.08670000000000022,-15.01008689156804
-0.08770000000000011,-14.967645552572087
-0.08870000000000022,-14.925204213576137
-0.08970000000000011,-14.967645552572087
-0.09070000000000022,-15.094969569559943
-0.09170000000000011,-15.179852247551842
-0.09270000000000023,-15.179852247551842
-0.09370000000000012,-15.094969569559943
-0.09470000000000023,-15.137410908555893
-0.09570000000000012,-15.264734925543747
-0.09670000000000023,-15.3920589425316
-0.09770000000000012,-15.3920589425316
-0.09870000000000023,-15.307176264539699
-0.09970000000000012,-15.349617603535648
-0.10070000000000023,-15.491088733522153
-0.10170000000000012,-15.618412750510005
-0.10270000000000024,-15.618412750510005
-0.10370000000000013,-15.533530072518102
-0.10470000000000024,-15.575971411514052
-0.10570000000000013,-15.70329542850191
-0.10670000000000024,-15.830619445489761
-0.10770000000000013,-15.830619445489761
-0.10870000000000024,-15.78817810649381
-0.10970000000000013,-15.830619445489761
-0.11070000000000024,-15.972090575476265
-0.11170000000000013,-16.099414592464115
-0.11270000000000002,-16.099414592464115
-0.11370000000000013,-16.056973253468165
-0.11470000000000002,-16.099414592464115
-0.11570000000000014,-16.269179948447924
-0.11670000000000003,-16.396503965435777
-0.11770000000000014,-16.396503965435777
-0.11870000000000003,-16.354062626439823
-0.11970000000000014,-16.396503965435777
-0.12070000000000003,-16.580416434418233
-0.12170000000000014,-16.70774045140608
-0.12270000000000003,-16.70774045140608
-0.12370000000000014,-16.665299112410132
-0.12470000000000003,-16.750181790402035
-0.12570000000000014,-16.919947146385837
-0.12670000000000003,-17.061418276372343
-0.12770000000000015,-17.061418276372343
-0.12870000000000004,-17.061418276372343
-0.12970000000000015,-17.103859615368293
-0.13070000000000004,-17.2736249713521
-0.13170000000000015,-17.40094898833995
-0.13270000000000004,-17.4433903273359
-0.13370000000000015,-17.40094898833995
-0.13470000000000004,-17.48583166633185
-0.13570000000000015,-17.669744135314307
-0.13670000000000004,-17.797068152302163
-0.13770000000000016,-17.839509491298113
-0.13870000000000005,-17.797068152302163
-0.13970000000000016,-17.881950830294063
-0.14070000000000005,-18.06586329927652
-0.14170000000000016,-18.23562865526032
-0.14270000000000005,-18.27806999425627
-0.14370000000000016,-18.27806999425627
-0.14470000000000005,-18.362952672248177
-0.14570000000000016,-18.53271802823198
-0.14670000000000005,-18.716630497214435
-0.14770000000000016,-18.759071836210385
-0.14870000000000005,-18.759071836210385
-0.14970000000000017,-18.843954514202288
-0.15070000000000006,-19.01371987018609
-0.15170000000000017,-19.2400736781645
-0.15270000000000006,-19.28251501716045
-0.15370000000000017,-19.28251501716045
-0.15470000000000006,-19.367397695152352
-0.15570000000000017,-19.579604390132108
-0.15670000000000006,-19.763516859114564
-0.15770000000000017,-19.848399537106463
-0.15870000000000006,-19.848399537106463
-0.15970000000000018,-19.93328221509837
-0.16070000000000007,-20.159636023076775
-0.16170000000000018,-20.371842718056527
-0.16270000000000007,-20.414284057052477
-0.16370000000000018,-20.414284057052477
-0.16470000000000007,-20.541608074040333
-0.16570000000000018,-20.810403221014692
-0.16670000000000007,-20.980168576998494
-0.16770000000000018,-21.065051254990397
-0.16870000000000007,-21.065051254990397
-0.16970000000000018,-21.2065223849769
-0.17070000000000007,-21.418729079956652
-0.17170000000000019,-21.63093577493641
-0.17270000000000008,-21.729965565926964
-0.1737000000000002,-21.772406904922917
-0.17470000000000008,-21.899730921910766
-0.1757000000000002,-22.111937616890522
-0.17670000000000008,-22.38073276386488
-0.1777000000000002,-22.46561544185678
-0.17870000000000008,-22.508056780852733
-0.1797000000000002,-22.67782213683654
-0.18070000000000008,-22.946617283810895
-0.1817000000000002,-23.15882397879065
-0.18270000000000008,-23.300295108777156
-0.1837000000000002,-23.342736447773106
-0.1847000000000001,-23.47006046476096
-0.1857000000000002,-23.724708498736668
-0.1867000000000001,-23.951062306715073
-0.1877000000000002,-24.078386323702922
-0.1887000000000001,-24.120827662698876
-0.1897000000000002,-24.290593018682678
-0.1907000000000001,-24.559388165657033
-0.1917000000000001,-24.814036199632742
-0.19269999999999998,-24.95550732961925
-0.1937000000000001,-25.04039000761115
-0.19469999999999998,-25.210155363594954
-0.1957000000000001,-25.521391849565262
-0.19669999999999999,-25.77603988354097
-0.1977000000000001,-25.91751101352747
-0.1987,-26.044835030515326
-0.1997000000000001,-26.17215904750318
-0.2007,-26.483395533473487
-0.2017000000000001,-26.738043567449193
-0.2027,-26.907808923433
-0.2037000000000001,-27.00683871442355
-0.2047,-27.219045409403304
-0.2057000000000001,-27.487840556377662
-0.2067,-27.78492992934932
-0.2077000000000001,-27.912253946337174
-0.2087,-28.05372507632368
-0.2097000000000001,-28.265931771303435
-0.2107,-28.577168257273744
-0.2117000000000001,-28.8742576302454
-0.2127,-29.058170099227848
-0.2137000000000001,-29.18549411621571
-0.2147,-29.39770081119546
-0.2157000000000001,-29.751378636161718
-0.2167,-30.04846800913338
-0.21770000000000012,-30.232380478115836
-0.2187,-30.359704495103685
-0.21970000000000012,-30.571911190083444
-0.2207,-30.925589015049702
-0.22170000000000012,-31.19438416202406
-0.2227,-31.36414951800786
-0.22370000000000012,-31.449032195999767
-0.2247,-31.661238890979522
-0.22570000000000012,-32.05735805494172
-0.2267,-32.41103587990799
-0.22770000000000012,-32.62324257488775
-0.22870000000000001,-32.807155043870196
-0.22970000000000013,-33.01936173884996
-0.23070000000000002,-33.373039563816214
-0.23170000000000013,-33.670128936787876
-0.23270000000000002,-33.89648274476628
-0.23370000000000013,-34.02380676175414
-0.23470000000000002,-34.278454795729836
-0.23570000000000013,-34.58969128170015
-0.23670000000000002,-34.94336910666641
-0.2376999999999999,-35.15557580164616
-0.23870000000000002,-35.32534115762997
-0.2396999999999999,-35.636577643600276
-0.24070000000000003,-36.03269680756248
-0.24169999999999991,-36.4288159715247
-0.24270000000000003,-36.64102266650445
-0.24369999999999992,-36.8532293614842
-0.24470000000000003,-37.164465847454515
-0.24569999999999992,-37.56058501141672
-0.24670000000000003,-37.94255706238028
-0.24769999999999992,-38.211352209354644
-0.24870000000000003,-38.46600024333035
-0.24969999999999992,-38.777236729300654
-0.25070000000000003,-39.21579723225882
-0.2516999999999999,-39.56947505722508
-0.25270000000000004,-39.82412309120078
-0.2536999999999999,-39.99388844718459
-0.25470000000000004,-40.30512493315489
-0.2556999999999999,-40.701244097117105
-0.25670000000000004,-41.083216148080666
-0.25769999999999993,-41.352011295055014
-0.25870000000000004,-41.56421799003478
-0.25969999999999993,-41.87545447600508
-0.26070000000000004,-42.31401497896325
-0.26169999999999993,-42.71013414292546
-0.26270000000000004,-43.007223515897124
-0.26369999999999993,-43.27601866287147
-0.26470000000000005,-43.61554937483908
-0.26569999999999994,-44.054109877797245
-0.26670000000000005,-44.4926703807554
-0.26769999999999994,-44.74731841473111
-0.26870000000000005,-45.01611356170547
-0.26969999999999994,-45.32735004767578
-0.27070000000000005,-45.79420477663124
-0.27169999999999994,-46.19032394059345
-0.27270000000000005,-46.501560426563756
-0.27369999999999994,-46.75620846053947
-0.27470000000000006,-47.10988628550572
-0.27569999999999995,-47.54844678846388
-0.27670000000000006,-47.93041883942744
-0.27769999999999995,-48.24165532539775
-0.27870000000000006,-48.51045047237211
-0.27969999999999995,-48.84998118433972
-0.28070000000000006,-49.33098302629383
-0.28169999999999995,-49.76954352925199
-0.28270000000000006,-50.0807800152223
-0.28369999999999995,-50.335428049198
-0.28470000000000006,-50.68910587416426
-0.28569999999999995,-51.17010771611838
-0.28670000000000007,-51.594521106077885
-0.28769999999999996,-51.90575759204819
-0.28870000000000007,-52.2169940780185
-0.28969999999999996,-52.55652478998611
-0.29070000000000007,-53.03752663194023
-0.29169999999999996,-53.476087134898386
-0.29270000000000007,-53.7873236208687
-0.29369999999999996,-54.08441299384035
-0.2947000000000001,-54.43809081880661
-0.29569999999999996,-54.919092660760725
-0.2967000000000001,-55.400094502714836
-0.29769999999999996,-55.73962521468245
-0.2987000000000001,-56.05086170065276
-0.29969999999999997,-56.44698086461496
-0.3007000000000001,-56.97042404556503
-0.30169999999999997,-57.45142588751914
-0.3027000000000001,-57.79095659948675
-0.30369999999999997,-58.14463442445301
-0.3047000000000001,-58.54075358841522
-0.30569999999999997,-59.06419676936528
-0.3067000000000001,-59.54519861131939
-0.3077,-59.92717066228296
-0.3087000000000001,-60.19596580925731
-0.3097,-60.67696765121143
-0.3107000000000001,-61.20041083216149
-0.3117,-61.6814126741156
-0.3127000000000001,-62.06338472507916
-0.3137,-62.41706255004542
-0.3147000000000001,-62.81318171400764
-0.3157,-63.37906623395363
-0.3167000000000001,-63.902509414903705
-0.3177,-64.34106991786187
-0.3187000000000001,-64.68060062982947
-0.3197,-65.11916113278764
-0.3207000000000001,-65.68504565273366
-0.3217,-66.20848883368372
-0.3227000000000001,-66.60460799764593
-0.3237,-67.00072716160814
-0.3247000000000001,-67.43928766456631
-0.3257,-68.04761352350828
-0.3267000000000001,-68.61349804345427
-0.3277,-69.0096172074165
-0.3287000000000001,-69.39158925838004
-0.3297,-69.87259110033416
-0.3307000000000001,-70.43847562028017
-0.3317,-71.06094859222078
-0.3327000000000001,-71.52780332117625
-0.3337,-71.96636382413442
-0.3347000000000001,-72.44736566608852
-0.3357,-73.09813286402644
-0.3367000000000001,-73.72060583596706
-0.3377,-74.20160767792116
-0.3387000000000001,-74.62602106788069
-0.3397,-75.19190558782671
-0.3407000000000001,-75.85681989876326
-0.3417,-76.46514575770523
-0.3427000000000001,-77.03103027765125
-0.3437,-77.51203211960537
-0.3447000000000001,-78.07791663955136
-0.3457,-78.72868383748929
-0.3467000000000001,-79.37945103542721
-0.3477,-79.90289421637728
-0.3487000000000001,-80.38389605833139
-0.3497,-80.9497805782774
-0.3507000000000001,-81.61469488921396
-0.3517,-82.22302074815593
-0.3527000000000001,-82.746463929106
-0.3537,-83.22746577106011
-0.3547000000000001,-83.79335029100612
-0.3557,-84.52900016693594
-0.35670000000000013,-85.17976736487385
-0.3577,-85.84468167581042
-0.35870000000000013,-86.36812485676049
-0.3597,-87.01889205469841
-0.36070000000000013,-87.75454193062824
-0.3617,-88.54678025855264
-0.3626999999999999,-89.15510611749461
-0.3637,-89.76343197643658
-0.3646999999999999,-90.41419917437449
-0.3657,-91.16399616330297
-0.3666999999999999,-91.89964603923279
-0.3677,-92.4655305591788
-0.3686999999999999,-93.03141507912481
-0.36970000000000003,-93.73877072905732
-0.3706999999999999,-94.5168619439831
-0.37170000000000003,-95.26665893291157
-0.3726999999999999,-95.95986746984543
-0.37370000000000003,-96.5681933287874
-0.3746999999999999,-97.26140186572127
-0.37570000000000003,-98.13852287163759
-0.3766999999999999,-98.93076119956201
-0.37770000000000004,-99.66641107549184
-0.3786999999999999,-100.31717827342976
-0.37970000000000004,-101.06697526235823
-0.3806999999999999,-101.88750781627995
-0.38170000000000004,-102.72218748320032
-0.38269999999999993,-103.41539602013418
-0.38370000000000004,-104.02372187907615
-0.38469999999999993,-104.81596020700057
-0.38570000000000004,-105.63649276092228
-0.38669999999999993,-105.29696204895468
-0.38570000000000004,-102.89195283918411
-0.38469999999999993,-100.75573877638791
-0.38370000000000004,-98.93076119956201
-0.38269999999999993,-97.36043165671182
-0.38170000000000004,-95.87498479185354
-0.3806999999999999,-94.34709658799929
-0.37970000000000004,-92.81920838414506
-0.3786999999999999,-91.37620285828272
-0.37770000000000004,-90.11710980140283
-0.3766999999999999,-88.80142829252836
-0.37570000000000003,-87.37256987966467
-0.3746999999999999,-85.97200569279828
-0.37370000000000003,-84.6563241839238
-0.3726999999999999,-83.52455514403178
-0.37170000000000003,-82.35034476514379
-0.3706999999999999,-81.04881036926795
-0.36970000000000003,-79.73312886039348
-0.3686999999999999,-78.51647714250953
-0.3677,-77.38470810261751
-0.3666999999999999,-76.29538040172143
-0.3657,-75.06458157083884
-0.3646999999999999,-73.80548851395896
-0.3637,-72.63127813507097
-0.3626999999999999,-71.58439177317086
-0.3617,-70.53750541127073
-0.36070000000000013,-69.30670658038814
-0.3597,-68.13249620150016
-0.35870000000000013,-66.9582858226122
-0.3577,-65.99628213870396
-0.35670000000000013,-64.99183711579978
-0.3557,-63.860068075907755
-0.3547000000000001,-62.72829903601572
-0.3537,-61.63897133511965
-0.3527000000000001,-60.71940899020737
-0.3517,-59.757405306299155
-0.3507000000000001,-58.71051894439902
-0.3497,-57.62119124350295
-0.3487000000000001,-56.61674622059877
-0.3477,-55.65474253669055
-0.3467000000000001,-54.73518019177827
-0.3457,-53.68829382987814
-0.3447000000000001,-52.59896612898206
-0.3437,-51.65110955807249
-0.3427000000000001,-50.77398855215617
-0.3417,-49.939308885235796
-0.3407000000000001,-48.93486386233162
-0.3397,-47.8879775004315
-0.3387000000000001,-46.982562268517874
-0.3377,-46.147882601597495
-0.3367000000000001,-45.27076159568118
-0.3357,-44.3229050247716
-0.3347000000000001,-43.31846000186743
-0.3337,-42.4413389959511
-0.3327000000000001,-41.606659329030734
-0.3317,-40.828568114104954
-0.3307000000000001,-39.86656443019674
-0.3297,-38.90456074628851
-0.3287000000000001,-38.08402819236679
-0.3277,-37.334231203438314
-0.3267000000000001,-36.55613998851254
-0.3257,-35.721460321592176
-0.3247000000000001,-34.8018979766799
-0.3237,-33.98136542275818
-0.3227000000000001,-33.288156885824314
-0.3217,-32.53835989689585
-0.3207000000000001,-31.717827342974125
-0.3197,-30.8407063370578
-0.3187000000000001,-30.04846800913338
-0.3177,-29.39770081119546
-0.3167000000000001,-28.662050935265643
-0.3157,-27.827371268345274
-0.3147000000000001,-27.00683871442355
-0.3137,-26.257041725495082
-0.3127000000000001,-25.60627452755716
-0.3117,-24.997948668615198
-0.3107000000000001,-24.20571034069078
-0.3097,-23.385177786769056
-0.3087000000000001,-22.67782213683654
-0.3077,-22.069496277894572
-0.3067000000000001,-21.461170418952605
-0.30569999999999997,-20.72552054302279
-0.3047000000000001,-19.890840876102416
-0.30369999999999997,-19.2400736781645
-0.3027000000000001,-18.631747819222536
-0.30169999999999997,-18.06586329927652
-0.3007000000000001,-17.358507649344002
-0.29969999999999997,-16.665299112410132
-0.2987000000000001,-16.056973253468165
-0.29769999999999996,-15.533530072518102
-0.2967000000000001,-14.967645552572087
-0.29569999999999996,-14.30273124163552
-0.2947000000000001,-13.610937416001518
-0.29369999999999996,-12.99978213445982
-0.29270000000000007,-12.520195003805576
-0.29169999999999996,-11.996751822855511
-0.29070000000000007,-11.343155202317865
-0.28969999999999996,-10.644287820184536
-0.28870000000000007,-10.078403300238522
-0.28769999999999996,-9.641257508580225
-0.28670000000000007,-9.11781432763016
-0.28569999999999995,-8.55051509638428
-0.28470000000000006,-7.940774526142452
-0.28369999999999995,-7.37347529489657
-0.28270000000000006,-6.981600264833956
-0.28169999999999995,-6.500598422879844
-0.28070000000000006,-5.9347139029338285
-0.27969999999999995,-5.323558621392133
-0.27870000000000006,-4.843971490737885
-0.27769999999999995,-4.450681749375406
-0.27670000000000006,-4.014950669016974
-0.27569999999999995,-3.447651437771094
-0.27470000000000006,-2.8803522065252145
-0.27369999999999994,-2.4007650758709675
-0.27270000000000005,-2.052746096104168
-0.27169999999999994,-1.6594563547416883
-0.27070000000000005,-1.1362961160515976
-0.26969999999999994,-0.6128529351015338
-0.26870000000000005,-0.1330535977523067
-0.26769999999999994,0.21588494435940458
-0.26670000000000005,0.6084673300719523
