Dec. 18, 2024   16:10:41
Cyclic Voltammetry
File: c:/users/guazh/data/banditlqround7_x0exp667_r5/2024-12-16-exp692\exp692-2024-12-18t16_01_21-arkoh\exp692_cv_sr_50mvs_efin_-1500mv.bin
Data Source:  Experiment
Instrument Model:  CHI760E
Header: CV ran at 50 mVs
Note: 

Init E (V) = -1
High E (V) = -1
Low E (V) = -1.5
Final E (V) = -1
Init P/N = N
Scan Rate (V/s) = 0.05
Segment = 3
Sample Interval (V) = 0.001
Quiet Time (sec) = 2
Sensitivity (A/V) = 0.01
Comp R (ohm) = 1.2

Results:

Channel 1:
Segment 1:

Segment 2:

Segment 3:

Potential/V, Current/A

-1.000, -3.966e-4
-1.001, -3.681e-4
-1.002, -3.483e-4
-1.003, -3.296e-4
-1.004, -3.113e-4
-1.005, -2.957e-4
-1.006, -2.817e-4
-1.007, -2.687e-4
-1.008, -2.560e-4
-1.009, -2.439e-4
-1.010, -2.316e-4
-1.011, -2.212e-4
-1.012, -2.121e-4
-1.013, -2.016e-4
-1.014, -1.918e-4
-1.015, -1.817e-4
-1.016, -1.724e-4
-1.017, -1.643e-4
-1.018, -1.563e-4
-1.019, -1.476e-4
-1.020, -1.389e-4
-1.021, -1.303e-4
-1.022, -1.237e-4
-1.023, -1.163e-4
-1.024, -1.077e-4
-1.025, -9.982e-5
-1.026, -9.253e-5
-1.027, -8.643e-5
-1.028, -7.947e-5
-1.029, -7.226e-5
-1.030, -6.473e-5
-1.031, -5.814e-5
-1.032, -5.226e-5
-1.033, -4.594e-5
-1.034, -3.881e-5
-1.035, -3.204e-5
-1.036, -2.602e-5
-1.037, -2.042e-5
-1.038, -1.443e-5
-1.039, -7.648e-6
-1.040, -1.265e-6
-1.041, 4.773e-6
-1.042, 1.001e-5
-1.043, 1.601e-5
-1.044, 2.270e-5
-1.045, 2.892e-5
-1.046, 3.477e-5
-1.047, 4.015e-5
-1.048, 4.586e-5
-1.049, 5.213e-5
-1.050, 5.829e-5
-1.051, 6.362e-5
-1.052, 6.907e-5
-1.053, 7.449e-5
-1.054, 8.099e-5
-1.055, 8.736e-5
-1.056, 9.249e-5
-1.057, 9.764e-5
-1.058, 1.029e-4
-1.059, 1.093e-4
-1.060, 1.149e-4
-1.061, 1.202e-4
-1.062, 1.250e-4
-1.063, 1.308e-4
-1.064, 1.376e-4
-1.065, 1.437e-4
-1.066, 1.492e-4
-1.067, 1.537e-4
-1.068, 1.589e-4
-1.069, 1.655e-4
-1.070, 1.721e-4
-1.071, 1.771e-4
-1.072, 1.817e-4
-1.073, 1.870e-4
-1.074, 1.929e-4
-1.075, 1.997e-4
-1.076, 2.061e-4
-1.077, 2.110e-4
-1.078, 2.161e-4
-1.079, 2.224e-4
-1.080, 2.279e-4
-1.081, 2.335e-4
-1.082, 2.386e-4
-1.083, 2.437e-4
-1.084, 2.499e-4
-1.085, 2.563e-4
-1.086, 2.617e-4
-1.087, 2.673e-4
-1.088, 2.726e-4
-1.089, 2.790e-4
-1.090, 2.851e-4
-1.091, 2.909e-4
-1.092, 2.963e-4
-1.093, 3.017e-4
-1.094, 3.056e-4
-1.095, 3.139e-4
-1.096, 3.199e-4
-1.097, 3.261e-4
-1.098, 3.317e-4
-1.099, 3.378e-4
-1.100, 3.439e-4
-1.101, 3.496e-4
-1.102, 3.545e-4
-1.103, 3.593e-4
-1.104, 3.658e-4
-1.105, 3.729e-4
-1.106, 3.798e-4
-1.107, 3.836e-4
-1.108, 3.906e-4
-1.109, 3.968e-4
-1.110, 4.033e-4
-1.111, 4.092e-4
-1.112, 4.123e-4
-1.113, 4.197e-4
-1.114, 4.262e-4
-1.115, 4.324e-4
-1.116, 4.383e-4
-1.117, 4.440e-4
-1.118, 4.493e-4
-1.119, 4.564e-4
-1.120, 4.616e-4
-1.121, 4.698e-4
-1.122, 4.749e-4
-1.123, 4.796e-4
-1.124, 4.864e-4
-1.125, 4.937e-4
-1.126, 4.993e-4
-1.127, 5.058e-4
-1.128, 5.113e-4
-1.129, 5.175e-4
-1.130, 5.247e-4
-1.131, 5.302e-4
-1.132, 5.353e-4
-1.133, 5.391e-4
-1.134, 5.488e-4
-1.135, 5.580e-4
-1.136, 5.627e-4
-1.137, 5.708e-4
-1.138, 5.739e-4
-1.139, 5.806e-4
-1.140, 5.901e-4
-1.141, 5.968e-4
-1.142, 6.041e-4
-1.143, 6.034e-4
-1.144, 6.103e-4
-1.145, 6.205e-4
-1.146, 6.277e-4
-1.147, 6.332e-4
-1.148, 6.387e-4
-1.149, 6.476e-4
-1.150, 6.584e-4
-1.151, 6.629e-4
-1.152, 6.656e-4
-1.153, 6.695e-4
-1.154, 6.764e-4
-1.155, 6.840e-4
-1.156, 6.908e-4
-1.157, 7.013e-4
-1.158, 7.088e-4
-1.159, 7.158e-4
-1.160, 7.209e-4
-1.161, 7.255e-4
-1.162, 7.336e-4
-1.163, 7.403e-4
-1.164, 7.439e-4
-1.165, 7.530e-4
-1.166, 7.601e-4
-1.167, 7.671e-4
-1.168, 7.748e-4
-1.169, 7.791e-4
-1.170, 7.910e-4
-1.171, 7.987e-4
-1.172, 8.059e-4
-1.173, 8.130e-4
-1.174, 8.188e-4
-1.175, 8.252e-4
-1.176, 8.317e-4
-1.177, 8.369e-4
-1.178, 8.495e-4
-1.179, 8.564e-4
-1.180, 8.648e-4
-1.181, 8.716e-4
-1.182, 8.855e-4
-1.183, 8.858e-4
-1.184, 8.911e-4
-1.185, 8.989e-4
-1.186, 9.022e-4
-1.187, 9.184e-4
-1.188, 9.263e-4
-1.189, 9.343e-4
-1.190, 9.425e-4
-1.191, 9.505e-4
-1.192, 9.559e-4
-1.193, 9.611e-4
-1.194, 9.695e-4
-1.195, 9.788e-4
-1.196, 9.863e-4
-1.197, 9.954e-4
-1.198, 1.004e-3
-1.199, 1.014e-3
-1.200, 1.022e-3
-1.201, 1.027e-3
-1.202, 1.035e-3
-1.203, 1.040e-3
-1.204, 1.048e-3
-1.205, 1.056e-3
-1.206, 1.065e-3
-1.207, 1.076e-3
-1.208, 1.081e-3
-1.209, 1.090e-3
-1.210, 1.099e-3
-1.211, 1.104e-3
-1.212, 1.108e-3
-1.213, 1.118e-3
-1.214, 1.128e-3
-1.215, 1.137e-3
-1.216, 1.143e-3
-1.217, 1.147e-3
-1.218, 1.154e-3
-1.219, 1.168e-3
-1.220, 1.178e-3
-1.221, 1.183e-3
-1.222, 1.187e-3
-1.223, 1.195e-3
-1.224, 1.201e-3
-1.225, 1.205e-3
-1.226, 1.215e-3
-1.227, 1.221e-3
-1.228, 1.228e-3
-1.229, 1.238e-3
-1.230, 1.236e-3
-1.231, 1.252e-3
-1.232, 1.250e-3
-1.233, 1.257e-3
-1.234, 1.269e-3
-1.235, 1.272e-3
-1.236, 1.278e-3
-1.237, 1.285e-3
-1.238, 1.293e-3
-1.239, 1.298e-3
-1.240, 1.303e-3
-1.241, 1.309e-3
-1.242, 1.312e-3
-1.243, 1.313e-3
-1.244, 1.318e-3
-1.245, 1.326e-3
-1.246, 1.329e-3
-1.247, 1.332e-3
-1.248, 1.341e-3
-1.249, 1.346e-3
-1.250, 1.350e-3
-1.251, 1.354e-3
-1.252, 1.355e-3
-1.253, 1.357e-3
-1.254, 1.362e-3
-1.255, 1.364e-3
-1.256, 1.369e-3
-1.257, 1.370e-3
-1.258, 1.374e-3
-1.259, 1.379e-3
-1.260, 1.378e-3
-1.261, 1.380e-3
-1.262, 1.381e-3
-1.263, 1.385e-3
-1.264, 1.390e-3
-1.265, 1.387e-3
-1.266, 1.388e-3
-1.267, 1.386e-3
-1.268, 1.389e-3
-1.269, 1.387e-3
-1.270, 1.389e-3
-1.271, 1.389e-3
-1.272, 1.393e-3
-1.273, 1.392e-3
-1.274, 1.387e-3
-1.275, 1.397e-3
-1.276, 1.392e-3
-1.277, 1.394e-3
-1.278, 1.382e-3
-1.279, 1.388e-3
-1.280, 1.382e-3
-1.281, 1.385e-3
-1.282, 1.383e-3
-1.283, 1.385e-3
-1.284, 1.384e-3
-1.285, 1.383e-3
-1.286, 1.384e-3
-1.287, 1.369e-3
-1.288, 1.373e-3
-1.289, 1.375e-3
-1.290, 1.371e-3
-1.291, 1.371e-3
-1.292, 1.370e-3
-1.293, 1.367e-3
-1.294, 1.355e-3
-1.295, 1.358e-3
-1.296, 1.365e-3
-1.297, 1.359e-3
-1.298, 1.348e-3
-1.299, 1.342e-3
-1.300, 1.345e-3
-1.301, 1.351e-3
-1.302, 1.348e-3
-1.303, 1.342e-3
-1.304, 1.347e-3
-1.305, 1.338e-3
-1.306, 1.339e-3
-1.307, 1.333e-3
-1.308, 1.333e-3
-1.309, 1.329e-3
-1.310, 1.320e-3
-1.311, 1.331e-3
-1.312, 1.328e-3
-1.313, 1.332e-3
-1.314, 1.333e-3
-1.315, 1.330e-3
-1.316, 1.330e-3
-1.317, 1.321e-3
-1.318, 1.318e-3
-1.319, 1.318e-3
-1.320, 1.325e-3
-1.321, 1.329e-3
-1.322, 1.329e-3
-1.323, 1.328e-3
-1.324, 1.329e-3
-1.325, 1.324e-3
-1.326, 1.326e-3
-1.327, 1.325e-3
-1.328, 1.323e-3
-1.329, 1.329e-3
-1.330, 1.330e-3
-1.331, 1.333e-3
-1.332, 1.336e-3
-1.333, 1.341e-3
-1.334, 1.342e-3
-1.335, 1.343e-3
-1.336, 1.343e-3
-1.337, 1.344e-3
-1.338, 1.342e-3
-1.339, 1.352e-3
-1.340, 1.357e-3
-1.341, 1.361e-3
-1.342, 1.363e-3
-1.343, 1.362e-3
-1.344, 1.366e-3
-1.345, 1.370e-3
-1.346, 1.368e-3
-1.347, 1.377e-3
-1.348, 1.380e-3
-1.349, 1.380e-3
-1.350, 1.385e-3
-1.351, 1.393e-3
-1.352, 1.395e-3
-1.353, 1.398e-3
-1.354, 1.401e-3
-1.355, 1.403e-3
-1.356, 1.407e-3
-1.357, 1.412e-3
-1.358, 1.417e-3
-1.359, 1.421e-3
-1.360, 1.423e-3
-1.361, 1.428e-3
-1.362, 1.431e-3
-1.363, 1.431e-3
-1.364, 1.437e-3
-1.365, 1.448e-3
-1.366, 1.450e-3
-1.367, 1.453e-3
-1.368, 1.459e-3
-1.369, 1.459e-3
-1.370, 1.467e-3
-1.371, 1.466e-3
-1.372, 1.470e-3
-1.373, 1.473e-3
-1.374, 1.481e-3
-1.375, 1.482e-3
-1.376, 1.489e-3
-1.377, 1.488e-3
-1.378, 1.496e-3
-1.379, 1.501e-3
-1.380, 1.509e-3
-1.381, 1.510e-3
-1.382, 1.509e-3
-1.383, 1.508e-3
-1.384, 1.515e-3
-1.385, 1.524e-3
-1.386, 1.519e-3
-1.387, 1.518e-3
-1.388, 1.521e-3
-1.389, 1.528e-3
-1.390, 1.534e-3
-1.391, 1.542e-3
-1.392, 1.547e-3
-1.393, 1.541e-3
-1.394, 1.538e-3
-1.395, 1.538e-3
-1.396, 1.543e-3
-1.397, 1.550e-3
-1.398, 1.551e-3
-1.399, 1.554e-3
-1.400, 1.559e-3
-1.401, 1.561e-3
-1.402, 1.560e-3
-1.403, 1.564e-3
-1.404, 1.556e-3
-1.405, 1.557e-3
-1.406, 1.558e-3
-1.407, 1.562e-3
-1.408, 1.568e-3
-1.409, 1.563e-3
-1.410, 1.566e-3
-1.411, 1.570e-3
-1.412, 1.564e-3
-1.413, 1.562e-3
-1.414, 1.569e-3
-1.415, 1.565e-3
-1.416, 1.569e-3
-1.417, 1.571e-3
-1.418, 1.571e-3
-1.419, 1.570e-3
-1.420, 1.570e-3
-1.421, 1.570e-3
-1.422, 1.572e-3
-1.423, 1.578e-3
-1.424, 1.579e-3
-1.425, 1.583e-3
-1.426, 1.591e-3
-1.427, 1.596e-3
-1.428, 1.605e-3
-1.429, 1.614e-3
-1.430, 1.627e-3
-1.431, 1.635e-3
-1.432, 1.646e-3
-1.433, 1.661e-3
-1.434, 1.671e-3
-1.435, 1.681e-3
-1.436, 1.691e-3
-1.437, 1.701e-3
-1.438, 1.713e-3
-1.439, 1.732e-3
-1.440, 1.758e-3
-1.441, 1.778e-3
-1.442, 1.798e-3
-1.443, 1.824e-3
-1.444, 1.845e-3
-1.445, 1.888e-3
-1.446, 1.917e-3
-1.447, 1.960e-3
-1.448, 2.005e-3
-1.449, 2.060e-3
-1.450, 2.119e-3
-1.451, 2.179e-3
-1.452, 2.236e-3
-1.453, 2.310e-3
-1.454, 2.393e-3
-1.455, 2.479e-3
-1.456, 2.596e-3
-1.457, 2.693e-3
-1.458, 2.775e-3
-1.459, 2.878e-3
-1.460, 2.969e-3
-1.461, 3.079e-3
-1.462, 3.179e-3
-1.463, 3.279e-3
-1.464, 3.369e-3
-1.465, 3.469e-3
-1.466, 3.565e-3
-1.467, 3.656e-3
-1.468, 3.754e-3
-1.469, 3.838e-3
-1.470, 3.948e-3
-1.471, 4.035e-3
-1.472, 4.097e-3
-1.473, 4.177e-3
-1.474, 4.263e-3
-1.475, 4.347e-3
-1.476, 4.423e-3
-1.477, 4.486e-3
-1.478, 4.533e-3
-1.479, 4.572e-3
-1.480, 4.631e-3
-1.481, 4.680e-3
-1.482, 4.738e-3
-1.483, 4.784e-3
-1.484, 4.857e-3
-1.485, 4.877e-3
-1.486, 4.898e-3
-1.487, 4.945e-3
-1.488, 4.989e-3
-1.489, 5.045e-3
-1.490, 5.109e-3
-1.491, 5.148e-3
-1.492, 5.156e-3
-1.493, 5.202e-3
-1.494, 5.222e-3
-1.495, 5.280e-3
-1.496, 5.296e-3
-1.497, 5.305e-3
-1.498, 5.322e-3
-1.499, 5.356e-3
-1.500, 5.331e-3
-1.499, 5.280e-3
-1.498, 5.245e-3
-1.497, 5.169e-3
-1.496, 5.132e-3
-1.495, 5.076e-3
-1.494, 5.028e-3
-1.493, 4.955e-3
-1.492, 4.908e-3
-1.491, 4.862e-3
-1.490, 4.816e-3
-1.489, 4.763e-3
-1.488, 4.686e-3
-1.487, 4.652e-3
-1.486, 4.608e-3
-1.485, 4.561e-3
-1.484, 4.504e-3
-1.483, 4.446e-3
-1.482, 4.406e-3
-1.481, 4.357e-3
-1.480, 4.299e-3
-1.479, 4.241e-3
-1.478, 4.203e-3
-1.477, 4.134e-3
-1.476, 4.066e-3
-1.475, 4.010e-3
-1.474, 3.967e-3
-1.473, 3.922e-3
-1.472, 3.873e-3
-1.471, 3.846e-3
-1.470, 3.775e-3
-1.469, 3.744e-3
-1.468, 3.715e-3
-1.467, 3.726e-3
-1.466, 3.673e-3
-1.465, 3.620e-3
-1.464, 3.603e-3
-1.463, 3.530e-3
-1.462, 3.494e-3
-1.461, 3.452e-3
-1.460, 3.528e-3
-1.459, 3.499e-3
-1.458, 3.485e-3
-1.457, 3.439e-3
-1.456, 3.411e-3
-1.455, 3.365e-3
-1.454, 3.319e-3
-1.453, 3.267e-3
-1.452, 3.235e-3
-1.451, 3.234e-3
-1.450, 3.251e-3
-1.449, 3.202e-3
-1.448, 3.160e-3
-1.447, 3.101e-3
-1.446, 3.041e-3
-1.445, 3.066e-3
-1.444, 3.001e-3
-1.443, 2.960e-3
-1.442, 2.949e-3
-1.441, 2.886e-3
-1.440, 2.852e-3
-1.439, 2.813e-3
-1.438, 2.780e-3
-1.437, 2.742e-3
-1.436, 2.703e-3
-1.435, 2.658e-3
-1.434, 2.631e-3
-1.433, 2.623e-3
-1.432, 2.602e-3
-1.431, 2.608e-3
-1.430, 2.561e-3
-1.429, 2.537e-3
-1.428, 2.490e-3
-1.427, 2.483e-3
-1.426, 2.561e-3
-1.425, 2.498e-3
-1.424, 2.463e-3
-1.423, 2.416e-3
-1.422, 2.379e-3
-1.421, 2.338e-3
-1.420, 2.308e-3
-1.419, 2.292e-3
-1.418, 2.301e-3
-1.417, 2.239e-3
-1.416, 2.218e-3
-1.415, 2.183e-3
-1.414, 2.164e-3
-1.413, 2.172e-3
-1.412, 2.139e-3
-1.411, 2.099e-3
-1.410, 2.065e-3
-1.409, 2.044e-3
-1.408, 2.020e-3
-1.407, 1.994e-3
-1.406, 1.966e-3
-1.405, 1.947e-3
-1.404, 1.924e-3
-1.403, 1.902e-3
-1.402, 1.877e-3
-1.401, 1.854e-3
-1.400, 1.828e-3
-1.399, 1.815e-3
-1.398, 1.801e-3
-1.397, 1.801e-3
-1.396, 1.773e-3
-1.395, 1.769e-3
-1.394, 1.762e-3
-1.393, 1.749e-3
-1.392, 1.723e-3
-1.391, 1.721e-3
-1.390, 1.698e-3
-1.389, 1.659e-3
-1.388, 1.642e-3
-1.387, 1.618e-3
-1.386, 1.585e-3
-1.385, 1.560e-3
-1.384, 1.534e-3
-1.383, 1.505e-3
-1.382, 1.483e-3
-1.381, 1.456e-3
-1.380, 1.430e-3
-1.379, 1.409e-3
-1.378, 1.381e-3
-1.377, 1.357e-3
-1.376, 1.329e-3
-1.375, 1.304e-3
-1.374, 1.281e-3
-1.373, 1.260e-3
-1.372, 1.235e-3
-1.371, 1.213e-3
-1.370, 1.196e-3
-1.369, 1.173e-3
-1.368, 1.147e-3
-1.367, 1.131e-3
-1.366, 1.103e-3
-1.365, 1.080e-3
-1.364, 1.063e-3
-1.363, 1.044e-3
-1.362, 1.027e-3
-1.361, 1.006e-3
-1.360, 9.840e-4
-1.359, 9.604e-4
-1.358, 9.404e-4
-1.357, 9.259e-4
-1.356, 9.043e-4
-1.355, 8.841e-4
-1.354, 8.600e-4
-1.353, 8.505e-4
-1.352, 8.442e-4
-1.351, 8.189e-4
-1.350, 8.007e-4
-1.349, 7.775e-4
-1.348, 7.641e-4
-1.347, 7.453e-4
-1.346, 7.228e-4
-1.345, 7.047e-4
-1.344, 6.899e-4
-1.343, 6.757e-4
-1.342, 6.578e-4
-1.341, 6.584e-4
-1.340, 6.506e-4
-1.339, 6.241e-4
-1.338, 6.050e-4
-1.337, 5.876e-4
-1.336, 5.724e-4
-1.335, 5.542e-4
-1.334, 5.367e-4
-1.333, 5.166e-4
-1.332, 5.018e-4
-1.331, 4.860e-4
-1.330, 4.719e-4
-1.329, 4.589e-4
-1.328, 4.436e-4
-1.327, 4.291e-4
-1.326, 4.143e-4
-1.325, 3.985e-4
-1.324, 3.859e-4
-1.323, 3.708e-4
-1.322, 3.574e-4
-1.321, 3.414e-4
-1.320, 3.298e-4
-1.319, 3.174e-4
-1.318, 3.037e-4
-1.317, 2.910e-4
-1.316, 2.777e-4
-1.315, 2.663e-4
-1.314, 2.540e-4
-1.313, 2.480e-4
-1.312, 2.368e-4
-1.311, 2.215e-4
-1.310, 2.114e-4
-1.309, 1.993e-4
-1.308, 1.877e-4
-1.307, 1.750e-4
-1.306, 1.626e-4
-1.305, 1.523e-4
-1.304, 1.426e-4
-1.303, 1.310e-4
-1.302, 1.197e-4
-1.301, 1.100e-4
-1.300, 1.005e-4
-1.299, 9.087e-5
-1.298, 8.133e-5
-1.297, 7.038e-5
-1.296, 5.919e-5
-1.295, 4.930e-5
-1.294, 3.960e-5
-1.293, 3.198e-5
-1.292, 2.281e-5
-1.291, 1.332e-5
-1.290, 4.448e-6
-1.289, -4.452e-6
-1.288, -1.328e-5
-1.287, -2.245e-5
-1.286, -3.181e-5
-1.285, -4.023e-5
-1.284, -4.717e-5
-1.283, -5.383e-5
-1.282, -6.186e-5
-1.281, -7.140e-5
-1.280, -8.021e-5
-1.279, -8.811e-5
-1.278, -9.611e-5
-1.277, -1.031e-4
-1.276, -1.106e-4
-1.275, -1.185e-4
-1.274, -1.245e-4
-1.273, -1.321e-4
-1.272, -1.400e-4
-1.271, -1.475e-4
-1.270, -1.552e-4
-1.269, -1.606e-4
-1.268, -1.686e-4
-1.267, -1.752e-4
-1.266, -1.823e-4
-1.265, -1.885e-4
-1.264, -1.941e-4
-1.263, -2.008e-4
-1.262, -2.091e-4
-1.261, -2.152e-4
-1.260, -2.218e-4
-1.259, -2.275e-4
-1.258, -2.340e-4
-1.257, -2.403e-4
-1.256, -2.458e-4
-1.255, -2.519e-4
-1.254, -2.573e-4
-1.253, -2.626e-4
-1.252, -2.689e-4
-1.251, -2.751e-4
-1.250, -2.799e-4
-1.249, -2.855e-4
-1.248, -2.908e-4
-1.247, -2.959e-4
-1.246, -3.028e-4
-1.245, -3.080e-4
-1.244, -3.140e-4
-1.243, -3.183e-4
-1.242, -3.251e-4
-1.241, -3.305e-4
-1.240, -3.350e-4
-1.239, -3.405e-4
-1.238, -3.436e-4
-1.237, -3.512e-4
-1.236, -3.564e-4
-1.235, -3.616e-4
-1.234, -3.670e-4
-1.233, -3.730e-4
-1.232, -3.774e-4
-1.231, -3.831e-4
-1.230, -3.888e-4
-1.229, -3.940e-4
-1.228, -3.994e-4
-1.227, -4.024e-4
-1.226, -4.112e-4
-1.225, -4.167e-4
-1.224, -4.220e-4
-1.223, -4.298e-4
-1.222, -4.324e-4
-1.221, -4.368e-4
-1.220, -4.419e-4
-1.219, -4.458e-4
-1.218, -4.507e-4
-1.217, -4.583e-4
-1.216, -4.615e-4
-1.215, -4.692e-4
-1.214, -4.727e-4
-1.213, -4.773e-4
-1.212, -4.841e-4
-1.211, -4.885e-4
-1.210, -5.022e-4
-1.209, -5.077e-4
-1.208, -5.163e-4
-1.207, -5.203e-4
-1.206, -5.264e-4
-1.205, -5.294e-4
-1.204, -5.330e-4
-1.203, -5.371e-4
-1.202, -5.428e-4
-1.201, -5.482e-4
-1.200, -5.568e-4
-1.199, -5.551e-4
-1.198, -5.628e-4
-1.197, -5.647e-4
-1.196, -5.721e-4
-1.195, -5.768e-4
-1.194, -5.837e-4
-1.193, -5.890e-4
-1.192, -5.925e-4
-1.191, -6.022e-4
-1.190, -6.055e-4
-1.189, -6.097e-4
-1.188, -6.185e-4
-1.187, -6.269e-4
-1.186, -6.311e-4
-1.185, -6.389e-4
-1.184, -6.388e-4
-1.183, -6.413e-4
-1.182, -6.467e-4
-1.181, -6.561e-4
-1.180, -6.636e-4
-1.179, -6.686e-4
-1.178, -6.772e-4
-1.177, -6.813e-4
-1.176, -6.876e-4
-1.175, -6.945e-4
-1.174, -6.999e-4
-1.173, -7.028e-4
-1.172, -7.100e-4
-1.171, -7.178e-4
-1.170, -7.237e-4
-1.169, -7.344e-4
-1.168, -7.400e-4
-1.167, -7.479e-4
-1.166, -7.440e-4
-1.165, -7.564e-4
-1.164, -7.662e-4
-1.163, -7.762e-4
-1.162, -7.825e-4
-1.161, -7.876e-4
-1.160, -7.895e-4
-1.159, -7.981e-4
-1.158, -8.036e-4
-1.157, -8.068e-4
-1.156, -8.091e-4
-1.155, -8.195e-4
-1.154, -8.242e-4
-1.153, -8.363e-4
-1.152, -8.427e-4
-1.151, -8.508e-4
-1.150, -8.549e-4
-1.149, -8.579e-4
-1.148, -8.642e-4
-1.147, -8.848e-4
-1.146, -8.866e-4
-1.145, -8.891e-4
-1.144, -8.989e-4
-1.143, -9.022e-4
-1.142, -9.099e-4
-1.141, -9.122e-4
-1.140, -9.217e-4
-1.139, -9.233e-4
-1.138, -9.179e-4
-1.137, -9.285e-4
-1.136, -9.330e-4
-1.135, -9.479e-4
-1.134, -9.434e-4
-1.133, -9.504e-4
-1.132, -9.528e-4
-1.131, -9.561e-4
-1.130, -9.631e-4
-1.129, -9.662e-4
-1.128, -9.672e-4
-1.127, -9.764e-4
-1.126, -9.804e-4
-1.125, -9.893e-4
-1.124, -9.918e-4
-1.123, -9.928e-4
-1.122, -1.003e-3
-1.121, -1.007e-3
-1.120, -1.009e-3
-1.119, -1.014e-3
-1.118, -1.013e-3
-1.117, -1.020e-3
-1.116, -1.032e-3
-1.115, -1.029e-3
-1.114, -1.036e-3
-1.113, -1.030e-3
-1.112, -1.037e-3
-1.111, -1.056e-3
-1.110, -1.046e-3
-1.109, -1.051e-3
-1.108, -1.060e-3
-1.107, -1.056e-3
-1.106, -1.062e-3
-1.105, -1.062e-3
-1.104, -1.064e-3
-1.103, -1.067e-3
-1.102, -1.066e-3
-1.101, -1.070e-3
-1.100, -1.083e-3
-1.099, -1.087e-3
-1.098, -1.094e-3
-1.097, -1.094e-3
-1.096, -1.096e-3
-1.095, -1.093e-3
-1.094, -1.098e-3
-1.093, -1.102e-3
-1.092, -1.104e-3
-1.091, -1.105e-3
-1.090, -1.113e-3
-1.089, -1.112e-3
-1.088, -1.114e-3
-1.087, -1.116e-3
-1.086, -1.121e-3
-1.085, -1.124e-3
-1.084, -1.132e-3
-1.083, -1.123e-3
-1.082, -1.135e-3
-1.081, -1.145e-3
-1.080, -1.149e-3
-1.079, -1.155e-3
-1.078, -1.151e-3
-1.077, -1.161e-3
-1.076, -1.154e-3
-1.075, -1.154e-3
-1.074, -1.159e-3
-1.073, -1.167e-3
-1.072, -1.169e-3
-1.071, -1.171e-3
-1.070, -1.176e-3
-1.069, -1.168e-3
-1.068, -1.165e-3
-1.067, -1.170e-3
-1.066, -1.163e-3
-1.065, -1.171e-3
-1.064, -1.171e-3
-1.063, -1.174e-3
-1.062, -1.199e-3
-1.061, -1.186e-3
-1.060, -1.184e-3
-1.059, -1.184e-3
-1.058, -1.185e-3
-1.057, -1.180e-3
-1.056, -1.185e-3
-1.055, -1.186e-3
-1.054, -1.186e-3
-1.053, -1.190e-3
-1.052, -1.222e-3
-1.051, -1.223e-3
-1.050, -1.221e-3
-1.049, -1.216e-3
-1.048, -1.215e-3
-1.047, -1.230e-3
-1.046, -1.237e-3
-1.045, -1.231e-3
-1.044, -1.236e-3
-1.043, -1.234e-3
-1.042, -1.224e-3
-1.041, -1.221e-3
-1.040, -1.216e-3
-1.039, -1.214e-3
-1.038, -1.220e-3
-1.037, -1.223e-3
-1.036, -1.228e-3
-1.035, -1.219e-3
-1.034, -1.233e-3
-1.033, -1.239e-3
-1.032, -1.236e-3
-1.031, -1.240e-3
-1.030, -1.233e-3
-1.029, -1.226e-3
-1.028, -1.228e-3
-1.027, -1.224e-3
-1.026, -1.222e-3
-1.025, -1.229e-3
-1.024, -1.225e-3
-1.023, -1.230e-3
-1.022, -1.238e-3
-1.021, -1.238e-3
-1.020, -1.240e-3
-1.019, -1.229e-3
-1.018, -1.229e-3
-1.017, -1.228e-3
-1.016, -1.225e-3
-1.015, -1.225e-3
-1.014, -1.238e-3
-1.013, -1.241e-3
-1.012, -1.241e-3
-1.011, -1.235e-3
-1.010, -1.235e-3
-1.009, -1.228e-3
-1.008, -1.231e-3
-1.007, -1.228e-3
-1.006, -1.241e-3
-1.005, -1.242e-3
-1.004, -1.239e-3
-1.003, -1.234e-3
-1.002, -1.229e-3
-1.001, -1.228e-3
