Aug. 9, 2024   06:57:12
Linear Sweep Voltammetry
File: c:/users/guazh/data/20240802_batch_500/2024-08-02-exp61\post-regen1-2024-08-09t06_54_01-lsvinphos\post-regen1_lsv_50mvs_efin_-2300mv.bin
Data Source:  Experiment
Instrument Model:  CHI760E
Header: LSV ran at 50 mVs with Efin at -2300mV
Note: 

Init E (V) = -0.6
Final E (V) = -2.3
Scan Rate (V/s) = 0.05
Sample Interval (V) = 0.001
Quiet Time (sec) = 2
Sensitivity (A/V) = 1e-4
Comp R (ohm) = 8.0

Results:

Channel 1:
Ep = -2.143V
ip = 6.860e-4A
Ah = 8.527e-4C

Potential/V, Current/A

-0.600, 1.087e-6
-0.601, 1.145e-6
-0.602, 1.175e-6
-0.603, 1.196e-6
-0.604, 1.216e-6
-0.605, 1.235e-6
-0.606, 1.251e-6
-0.607, 1.266e-6
-0.608, 1.282e-6
-0.609, 1.299e-6
-0.610, 1.316e-6
-0.611, 1.331e-6
-0.612, 1.345e-6
-0.613, 1.360e-6
-0.614, 1.376e-6
-0.615, 1.394e-6
-0.616, 1.406e-6
-0.617, 1.420e-6
-0.618, 1.434e-6
-0.619, 1.450e-6
-0.620, 1.465e-6
-0.621, 1.480e-6
-0.622, 1.495e-6
-0.623, 1.508e-6
-0.624, 1.524e-6
-0.625, 1.540e-6
-0.626, 1.555e-6
-0.627, 1.570e-6
-0.628, 1.585e-6
-0.629, 1.599e-6
-0.630, 1.616e-6
-0.631, 1.631e-6
-0.632, 1.645e-6
-0.633, 1.660e-6
-0.634, 1.675e-6
-0.635, 1.692e-6
-0.636, 1.707e-6
-0.637, 1.721e-6
-0.638, 1.736e-6
-0.639, 1.753e-6
-0.640, 1.771e-6
-0.641, 1.786e-6
-0.642, 1.801e-6
-0.643, 1.817e-6
-0.644, 1.834e-6
-0.645, 1.852e-6
-0.646, 1.869e-6
-0.647, 1.883e-6
-0.648, 1.900e-6
-0.649, 1.917e-6
-0.650, 1.936e-6
-0.651, 1.952e-6
-0.652, 1.969e-6
-0.653, 1.985e-6
-0.654, 2.004e-6
-0.655, 2.023e-6
-0.656, 2.039e-6
-0.657, 2.057e-6
-0.658, 2.074e-6
-0.659, 2.094e-6
-0.660, 2.114e-6
-0.661, 2.131e-6
-0.662, 2.148e-6
-0.663, 2.166e-6
-0.664, 2.185e-6
-0.665, 2.205e-6
-0.666, 2.223e-6
-0.667, 2.241e-6
-0.668, 2.258e-6
-0.669, 2.278e-6
-0.670, 2.299e-6
-0.671, 2.318e-6
-0.672, 2.337e-6
-0.673, 2.357e-6
-0.674, 2.377e-6
-0.675, 2.399e-6
-0.676, 2.419e-6
-0.677, 2.439e-6
-0.678, 2.458e-6
-0.679, 2.478e-6
-0.680, 2.500e-6
-0.681, 2.520e-6
-0.682, 2.541e-6
-0.683, 2.562e-6
-0.684, 2.585e-6
-0.685, 2.608e-6
-0.686, 2.631e-6
-0.687, 2.651e-6
-0.688, 2.673e-6
-0.689, 2.696e-6
-0.690, 2.718e-6
-0.691, 2.741e-6
-0.692, 2.762e-6
-0.693, 2.786e-6
-0.694, 2.809e-6
-0.695, 2.834e-6
-0.696, 2.856e-6
-0.697, 2.879e-6
-0.698, 2.902e-6
-0.699, 2.927e-6
-0.700, 2.953e-6
-0.701, 2.976e-6
-0.702, 2.999e-6
-0.703, 3.022e-6
-0.704, 3.048e-6
-0.705, 3.075e-6
-0.706, 3.099e-6
-0.707, 3.125e-6
-0.708, 3.150e-6
-0.709, 3.175e-6
-0.710, 3.202e-6
-0.711, 3.227e-6
-0.712, 3.251e-6
-0.713, 3.276e-6
-0.714, 3.302e-6
-0.715, 3.330e-6
-0.716, 3.357e-6
-0.717, 3.384e-6
-0.718, 3.411e-6
-0.719, 3.438e-6
-0.720, 3.465e-6
-0.721, 3.493e-6
-0.722, 3.517e-6
-0.723, 3.545e-6
-0.724, 3.572e-6
-0.725, 3.602e-6
-0.726, 3.629e-6
-0.727, 3.657e-6
-0.728, 3.683e-6
-0.729, 3.713e-6
-0.730, 3.744e-6
-0.731, 3.772e-6
-0.732, 3.799e-6
-0.733, 3.827e-6
-0.734, 3.857e-6
-0.735, 3.887e-6
-0.736, 3.916e-6
-0.737, 3.944e-6
-0.738, 3.972e-6
-0.739, 4.001e-6
-0.740, 4.033e-6
-0.741, 4.062e-6
-0.742, 4.091e-6
-0.743, 4.121e-6
-0.744, 4.150e-6
-0.745, 4.181e-6
-0.746, 4.209e-6
-0.747, 4.237e-6
-0.748, 4.267e-6
-0.749, 4.297e-6
-0.750, 4.330e-6
-0.751, 4.360e-6
-0.752, 4.390e-6
-0.753, 4.420e-6
-0.754, 4.451e-6
-0.755, 4.484e-6
-0.756, 4.516e-6
-0.757, 4.548e-6
-0.758, 4.579e-6
-0.759, 4.609e-6
-0.760, 4.643e-6
-0.761, 4.676e-6
-0.762, 4.706e-6
-0.763, 4.737e-6
-0.764, 4.768e-6
-0.765, 4.801e-6
-0.766, 4.835e-6
-0.767, 4.864e-6
-0.768, 4.896e-6
-0.769, 4.929e-6
-0.770, 4.964e-6
-0.771, 4.997e-6
-0.772, 5.027e-6
-0.773, 5.059e-6
-0.774, 5.092e-6
-0.775, 5.126e-6
-0.776, 5.158e-6
-0.777, 5.189e-6
-0.778, 5.221e-6
-0.779, 5.253e-6
-0.780, 5.287e-6
-0.781, 5.321e-6
-0.782, 5.352e-6
-0.783, 5.383e-6
-0.784, 5.415e-6
-0.785, 5.449e-6
-0.786, 5.481e-6
-0.787, 5.514e-6
-0.788, 5.547e-6
-0.789, 5.579e-6
-0.790, 5.613e-6
-0.791, 5.645e-6
-0.792, 5.677e-6
-0.793, 5.709e-6
-0.794, 5.742e-6
-0.795, 5.775e-6
-0.796, 5.808e-6
-0.797, 5.840e-6
-0.798, 5.871e-6
-0.799, 5.900e-6
-0.800, 5.931e-6
-0.801, 5.964e-6
-0.802, 5.994e-6
-0.803, 6.026e-6
-0.804, 6.056e-6
-0.805, 6.090e-6
-0.806, 6.124e-6
-0.807, 6.153e-6
-0.808, 6.181e-6
-0.809, 6.210e-6
-0.810, 6.241e-6
-0.811, 6.272e-6
-0.812, 6.304e-6
-0.813, 6.333e-6
-0.814, 6.363e-6
-0.815, 6.395e-6
-0.816, 6.427e-6
-0.817, 6.456e-6
-0.818, 6.485e-6
-0.819, 6.517e-6
-0.820, 6.551e-6
-0.821, 6.580e-6
-0.822, 6.608e-6
-0.823, 6.638e-6
-0.824, 6.666e-6
-0.825, 6.697e-6
-0.826, 6.726e-6
-0.827, 6.753e-6
-0.828, 6.781e-6
-0.829, 6.810e-6
-0.830, 6.839e-6
-0.831, 6.868e-6
-0.832, 6.894e-6
-0.833, 6.920e-6
-0.834, 6.946e-6
-0.835, 6.974e-6
-0.836, 7.003e-6
-0.837, 7.028e-6
-0.838, 7.055e-6
-0.839, 7.080e-6
-0.840, 7.108e-6
-0.841, 7.136e-6
-0.842, 7.160e-6
-0.843, 7.186e-6
-0.844, 7.210e-6
-0.845, 7.238e-6
-0.846, 7.263e-6
-0.847, 7.286e-6
-0.848, 7.308e-6
-0.849, 7.333e-6
-0.850, 7.356e-6
-0.851, 7.382e-6
-0.852, 7.404e-6
-0.853, 7.426e-6
-0.854, 7.449e-6
-0.855, 7.473e-6
-0.856, 7.498e-6
-0.857, 7.519e-6
-0.858, 7.541e-6
-0.859, 7.563e-6
-0.860, 7.586e-6
-0.861, 7.609e-6
-0.862, 7.629e-6
-0.863, 7.649e-6
-0.864, 7.670e-6
-0.865, 7.693e-6
-0.866, 7.715e-6
-0.867, 7.735e-6
-0.868, 7.754e-6
-0.869, 7.773e-6
-0.870, 7.794e-6
-0.871, 7.815e-6
-0.872, 7.834e-6
-0.873, 7.853e-6
-0.874, 7.869e-6
-0.875, 7.889e-6
-0.876, 7.909e-6
-0.877, 7.926e-6
-0.878, 7.944e-6
-0.879, 7.961e-6
-0.880, 7.980e-6
-0.881, 7.998e-6
-0.882, 8.014e-6
-0.883, 8.031e-6
-0.884, 8.047e-6
-0.885, 8.063e-6
-0.886, 8.082e-6
-0.887, 8.096e-6
-0.888, 8.111e-6
-0.889, 8.125e-6
-0.890, 8.142e-6
-0.891, 8.161e-6
-0.892, 8.175e-6
-0.893, 8.190e-6
-0.894, 8.205e-6
-0.895, 8.221e-6
-0.896, 8.239e-6
-0.897, 8.253e-6
-0.898, 8.266e-6
-0.899, 8.282e-6
-0.900, 8.297e-6
-0.901, 8.311e-6
-0.902, 8.324e-6
-0.903, 8.336e-6
-0.904, 8.348e-6
-0.905, 8.361e-6
-0.906, 8.376e-6
-0.907, 8.387e-6
-0.908, 8.400e-6
-0.909, 8.412e-6
-0.910, 8.425e-6
-0.911, 8.438e-6
-0.912, 8.451e-6
-0.913, 8.463e-6
-0.914, 8.474e-6
-0.915, 8.486e-6
-0.916, 8.501e-6
-0.917, 8.511e-6
-0.918, 8.522e-6
-0.919, 8.532e-6
-0.920, 8.544e-6
-0.921, 8.557e-6
-0.922, 8.568e-6
-0.923, 8.578e-6
-0.924, 8.588e-6
-0.925, 8.599e-6
-0.926, 8.611e-6
-0.927, 8.621e-6
-0.928, 8.632e-6
-0.929, 8.641e-6
-0.930, 8.652e-6
-0.931, 8.663e-6
-0.932, 8.673e-6
-0.933, 8.682e-6
-0.934, 8.693e-6
-0.935, 8.705e-6
-0.936, 8.716e-6
-0.937, 8.726e-6
-0.938, 8.735e-6
-0.939, 8.745e-6
-0.940, 8.755e-6
-0.941, 8.768e-6
-0.942, 8.778e-6
-0.943, 8.788e-6
-0.944, 8.796e-6
-0.945, 8.805e-6
-0.946, 8.817e-6
-0.947, 8.827e-6
-0.948, 8.837e-6
-0.949, 8.846e-6
-0.950, 8.856e-6
-0.951, 8.866e-6
-0.952, 8.873e-6
-0.953, 8.883e-6
-0.954, 8.891e-6
-0.955, 8.902e-6
-0.956, 8.912e-6
-0.957, 8.921e-6
-0.958, 8.930e-6
-0.959, 8.937e-6
-0.960, 8.949e-6
-0.961, 8.961e-6
-0.962, 8.971e-6
-0.963, 8.979e-6
-0.964, 8.988e-6
-0.965, 8.997e-6
-0.966, 9.009e-6
-0.967, 9.019e-6
-0.968, 9.027e-6
-0.969, 9.037e-6
-0.970, 9.047e-6
-0.971, 9.058e-6
-0.972, 9.066e-6
-0.973, 9.078e-6
-0.974, 9.087e-6
-0.975, 9.096e-6
-0.976, 9.108e-6
-0.977, 9.117e-6
-0.978, 9.124e-6
-0.979, 9.135e-6
-0.980, 9.144e-6
-0.981, 9.155e-6
-0.982, 9.164e-6
-0.983, 9.174e-6
-0.984, 9.184e-6
-0.985, 9.195e-6
-0.986, 9.207e-6
-0.987, 9.217e-6
-0.988, 9.226e-6
-0.989, 9.235e-6
-0.990, 9.246e-6
-0.991, 9.256e-6
-0.992, 9.270e-6
-0.993, 9.279e-6
-0.994, 9.289e-6
-0.995, 9.300e-6
-0.996, 9.312e-6
-0.997, 9.323e-6
-0.998, 9.332e-6
-0.999, 9.342e-6
-1.000, 9.351e-6
-1.001, 9.363e-6
-1.002, 9.373e-6
-1.003, 9.384e-6
-1.004, 9.393e-6
-1.005, 9.404e-6
-1.006, 9.416e-6
-1.007, 9.427e-6
-1.008, 9.436e-6
-1.009, 9.446e-6
-1.010, 9.455e-6
-1.011, 9.470e-6
-1.012, 9.482e-6
-1.013, 9.492e-6
-1.014, 9.503e-6
-1.015, 9.514e-6
-1.016, 9.526e-6
-1.017, 9.539e-6
-1.018, 9.548e-6
-1.019, 9.560e-6
-1.020, 9.571e-6
-1.021, 9.585e-6
-1.022, 9.597e-6
-1.023, 9.608e-6
-1.024, 9.620e-6
-1.025, 9.632e-6
-1.026, 9.645e-6
-1.027, 9.657e-6
-1.028, 9.667e-6
-1.029, 9.677e-6
-1.030, 9.690e-6
-1.031, 9.703e-6
-1.032, 9.716e-6
-1.033, 9.728e-6
-1.034, 9.740e-6
-1.035, 9.755e-6
-1.036, 9.769e-6
-1.037, 9.784e-6
-1.038, 9.795e-6
-1.039, 9.807e-6
-1.040, 9.819e-6
-1.041, 9.833e-6
-1.042, 9.846e-6
-1.043, 9.861e-6
-1.044, 9.875e-6
-1.045, 9.888e-6
-1.046, 9.901e-6
-1.047, 9.915e-6
-1.048, 9.927e-6
-1.049, 9.941e-6
-1.050, 9.954e-6
-1.051, 9.968e-6
-1.052, 9.982e-6
-1.053, 9.994e-6
-1.054, 1.001e-5
-1.055, 1.002e-5
-1.056, 1.004e-5
-1.057, 1.005e-5
-1.058, 1.006e-5
-1.059, 1.008e-5
-1.060, 1.009e-5
-1.061, 1.011e-5
-1.062, 1.012e-5
-1.063, 1.013e-5
-1.064, 1.015e-5
-1.065, 1.016e-5
-1.066, 1.018e-5
-1.067, 1.019e-5
-1.068, 1.020e-5
-1.069, 1.021e-5
-1.070, 1.023e-5
-1.071, 1.024e-5
-1.072, 1.026e-5
-1.073, 1.028e-5
-1.074, 1.029e-5
-1.075, 1.030e-5
-1.076, 1.032e-5
-1.077, 1.033e-5
-1.078, 1.034e-5
-1.079, 1.036e-5
-1.080, 1.037e-5
-1.081, 1.039e-5
-1.082, 1.040e-5
-1.083, 1.041e-5
-1.084, 1.043e-5
-1.085, 1.044e-5
-1.086, 1.046e-5
-1.087, 1.048e-5
-1.088, 1.049e-5
-1.089, 1.051e-5
-1.090, 1.052e-5
-1.091, 1.054e-5
-1.092, 1.055e-5
-1.093, 1.057e-5
-1.094, 1.058e-5
-1.095, 1.060e-5
-1.096, 1.061e-5
-1.097, 1.063e-5
-1.098, 1.064e-5
-1.099, 1.066e-5
-1.100, 1.067e-5
-1.101, 1.069e-5
-1.102, 1.071e-5
-1.103, 1.072e-5
-1.104, 1.074e-5
-1.105, 1.076e-5
-1.106, 1.077e-5
-1.107, 1.079e-5
-1.108, 1.083e-5
-1.109, 1.085e-5
-1.110, 1.087e-5
-1.111, 1.089e-5
-1.112, 1.091e-5
-1.113, 1.092e-5
-1.114, 1.094e-5
-1.115, 1.096e-5
-1.116, 1.098e-5
-1.117, 1.099e-5
-1.118, 1.101e-5
-1.119, 1.103e-5
-1.120, 1.104e-5
-1.121, 1.106e-5
-1.122, 1.108e-5
-1.123, 1.109e-5
-1.124, 1.111e-5
-1.125, 1.112e-5
-1.126, 1.114e-5
-1.127, 1.116e-5
-1.128, 1.118e-5
-1.129, 1.119e-5
-1.130, 1.121e-5
-1.131, 1.123e-5
-1.132, 1.125e-5
-1.133, 1.126e-5
-1.134, 1.128e-5
-1.135, 1.131e-5
-1.136, 1.133e-5
-1.137, 1.135e-5
-1.138, 1.137e-5
-1.139, 1.139e-5
-1.140, 1.140e-5
-1.141, 1.142e-5
-1.142, 1.144e-5
-1.143, 1.149e-5
-1.144, 1.151e-5
-1.145, 1.153e-5
-1.146, 1.155e-5
-1.147, 1.157e-5
-1.148, 1.158e-5
-1.149, 1.160e-5
-1.150, 1.162e-5
-1.151, 1.164e-5
-1.152, 1.166e-5
-1.153, 1.168e-5
-1.154, 1.170e-5
-1.155, 1.172e-5
-1.156, 1.174e-5
-1.157, 1.176e-5
-1.158, 1.177e-5
-1.159, 1.179e-5
-1.160, 1.181e-5
-1.161, 1.183e-5
-1.162, 1.185e-5
-1.163, 1.187e-5
-1.164, 1.189e-5
-1.165, 1.190e-5
-1.166, 1.193e-5
-1.167, 1.195e-5
-1.168, 1.196e-5
-1.169, 1.198e-5
-1.170, 1.200e-5
-1.171, 1.202e-5
-1.172, 1.206e-5
-1.173, 1.208e-5
-1.174, 1.209e-5
-1.175, 1.212e-5
-1.176, 1.216e-5
-1.177, 1.218e-5
-1.178, 1.220e-5
-1.179, 1.222e-5
-1.180, 1.223e-5
-1.181, 1.225e-5
-1.182, 1.228e-5
-1.183, 1.230e-5
-1.184, 1.232e-5
-1.185, 1.234e-5
-1.186, 1.236e-5
-1.187, 1.238e-5
-1.188, 1.241e-5
-1.189, 1.244e-5
-1.190, 1.246e-5
-1.191, 1.248e-5
-1.192, 1.250e-5
-1.193, 1.252e-5
-1.194, 1.254e-5
-1.195, 1.256e-5
-1.196, 1.258e-5
-1.197, 1.261e-5
-1.198, 1.262e-5
-1.199, 1.264e-5
-1.200, 1.266e-5
-1.201, 1.269e-5
-1.202, 1.271e-5
-1.203, 1.273e-5
-1.204, 1.275e-5
-1.205, 1.277e-5
-1.206, 1.279e-5
-1.207, 1.282e-5
-1.208, 1.284e-5
-1.209, 1.286e-5
-1.210, 1.288e-5
-1.211, 1.290e-5
-1.212, 1.292e-5
-1.213, 1.294e-5
-1.214, 1.296e-5
-1.215, 1.299e-5
-1.216, 1.301e-5
-1.217, 1.304e-5
-1.218, 1.306e-5
-1.219, 1.309e-5
-1.220, 1.311e-5
-1.221, 1.313e-5
-1.222, 1.316e-5
-1.223, 1.318e-5
-1.224, 1.322e-5
-1.225, 1.324e-5
-1.226, 1.325e-5
-1.227, 1.327e-5
-1.228, 1.329e-5
-1.229, 1.332e-5
-1.230, 1.334e-5
-1.231, 1.336e-5
-1.232, 1.338e-5
-1.233, 1.340e-5
-1.234, 1.342e-5
-1.235, 1.344e-5
-1.236, 1.346e-5
-1.237, 1.348e-5
-1.238, 1.350e-5
-1.239, 1.352e-5
-1.240, 1.354e-5
-1.241, 1.357e-5
-1.242, 1.359e-5
-1.243, 1.361e-5
-1.244, 1.363e-5
-1.245, 1.366e-5
-1.246, 1.369e-5
-1.247, 1.371e-5
-1.248, 1.373e-5
-1.249, 1.375e-5
-1.250, 1.377e-5
-1.251, 1.380e-5
-1.252, 1.382e-5
-1.253, 1.385e-5
-1.254, 1.387e-5
-1.255, 1.389e-5
-1.256, 1.392e-5
-1.257, 1.394e-5
-1.258, 1.396e-5
-1.259, 1.398e-5
-1.260, 1.400e-5
-1.261, 1.403e-5
-1.262, 1.406e-5
-1.263, 1.408e-5
-1.264, 1.411e-5
-1.265, 1.413e-5
-1.266, 1.416e-5
-1.267, 1.419e-5
-1.268, 1.422e-5
-1.269, 1.424e-5
-1.270, 1.436e-5
-1.271, 1.442e-5
-1.272, 1.444e-5
-1.273, 1.447e-5
-1.274, 1.449e-5
-1.275, 1.452e-5
-1.276, 1.454e-5
-1.277, 1.457e-5
-1.278, 1.459e-5
-1.279, 1.462e-5
-1.280, 1.465e-5
-1.281, 1.467e-5
-1.282, 1.470e-5
-1.283, 1.472e-5
-1.284, 1.475e-5
-1.285, 1.477e-5
-1.286, 1.483e-5
-1.287, 1.493e-5
-1.288, 1.497e-5
-1.289, 1.500e-5
-1.290, 1.504e-5
-1.291, 1.507e-5
-1.292, 1.510e-5
-1.293, 1.513e-5
-1.294, 1.515e-5
-1.295, 1.518e-5
-1.296, 1.521e-5
-1.297, 1.523e-5
-1.298, 1.527e-5
-1.299, 1.532e-5
-1.300, 1.535e-5
-1.301, 1.544e-5
-1.302, 1.551e-5
-1.303, 1.555e-5
-1.304, 1.559e-5
-1.305, 1.562e-5
-1.306, 1.566e-5
-1.307, 1.570e-5
-1.308, 1.573e-5
-1.309, 1.575e-5
-1.310, 1.578e-5
-1.311, 1.584e-5
-1.312, 1.589e-5
-1.313, 1.592e-5
-1.314, 1.596e-5
-1.315, 1.600e-5
-1.316, 1.608e-5
-1.317, 1.613e-5
-1.318, 1.617e-5
-1.319, 1.621e-5
-1.320, 1.624e-5
-1.321, 1.628e-5
-1.322, 1.631e-5
-1.323, 1.635e-5
-1.324, 1.638e-5
-1.325, 1.642e-5
-1.326, 1.645e-5
-1.327, 1.649e-5
-1.328, 1.652e-5
-1.329, 1.655e-5
-1.330, 1.659e-5
-1.331, 1.662e-5
-1.332, 1.666e-5
-1.333, 1.671e-5
-1.334, 1.676e-5
-1.335, 1.679e-5
-1.336, 1.683e-5
-1.337, 1.687e-5
-1.338, 1.690e-5
-1.339, 1.694e-5
-1.340, 1.697e-5
-1.341, 1.701e-5
-1.342, 1.704e-5
-1.343, 1.708e-5
-1.344, 1.712e-5
-1.345, 1.716e-5
-1.346, 1.720e-5
-1.347, 1.724e-5
-1.348, 1.728e-5
-1.349, 1.732e-5
-1.350, 1.736e-5
-1.351, 1.740e-5
-1.352, 1.744e-5
-1.353, 1.748e-5
-1.354, 1.753e-5
-1.355, 1.757e-5
-1.356, 1.761e-5
-1.357, 1.766e-5
-1.358, 1.770e-5
-1.359, 1.774e-5
-1.360, 1.779e-5
-1.361, 1.783e-5
-1.362, 1.788e-5
-1.363, 1.793e-5
-1.364, 1.797e-5
-1.365, 1.802e-5
-1.366, 1.807e-5
-1.367, 1.812e-5
-1.368, 1.818e-5
-1.369, 1.822e-5
-1.370, 1.827e-5
-1.371, 1.832e-5
-1.372, 1.837e-5
-1.373, 1.842e-5
-1.374, 1.848e-5
-1.375, 1.853e-5
-1.376, 1.858e-5
-1.377, 1.864e-5
-1.378, 1.869e-5
-1.379, 1.875e-5
-1.380, 1.883e-5
-1.381, 1.889e-5
-1.382, 1.894e-5
-1.383, 1.900e-5
-1.384, 1.905e-5
-1.385, 1.911e-5
-1.386, 1.916e-5
-1.387, 1.922e-5
-1.388, 1.928e-5
-1.389, 1.934e-5
-1.390, 1.939e-5
-1.391, 1.945e-5
-1.392, 1.951e-5
-1.393, 1.957e-5
-1.394, 1.963e-5
-1.395, 1.972e-5
-1.396, 1.980e-5
-1.397, 1.987e-5
-1.398, 1.993e-5
-1.399, 1.999e-5
-1.400, 2.005e-5
-1.401, 2.012e-5
-1.402, 2.018e-5
-1.403, 2.025e-5
-1.404, 2.031e-5
-1.405, 2.037e-5
-1.406, 2.044e-5
-1.407, 2.051e-5
-1.408, 2.058e-5
-1.409, 2.064e-5
-1.410, 2.071e-5
-1.411, 2.077e-5
-1.412, 2.084e-5
-1.413, 2.091e-5
-1.414, 2.098e-5
-1.415, 2.105e-5
-1.416, 2.112e-5
-1.417, 2.120e-5
-1.418, 2.128e-5
-1.419, 2.136e-5
-1.420, 2.143e-5
-1.421, 2.150e-5
-1.422, 2.158e-5
-1.423, 2.165e-5
-1.424, 2.172e-5
-1.425, 2.179e-5
-1.426, 2.187e-5
-1.427, 2.194e-5
-1.428, 2.201e-5
-1.429, 2.209e-5
-1.430, 2.216e-5
-1.431, 2.224e-5
-1.432, 2.231e-5
-1.433, 2.239e-5
-1.434, 2.247e-5
-1.435, 2.255e-5
-1.436, 2.262e-5
-1.437, 2.270e-5
-1.438, 2.277e-5
-1.439, 2.285e-5
-1.440, 2.293e-5
-1.441, 2.300e-5
-1.442, 2.307e-5
-1.443, 2.315e-5
-1.444, 2.323e-5
-1.445, 2.331e-5
-1.446, 2.338e-5
-1.447, 2.346e-5
-1.448, 2.354e-5
-1.449, 2.362e-5
-1.450, 2.370e-5
-1.451, 2.378e-5
-1.452, 2.385e-5
-1.453, 2.393e-5
-1.454, 2.401e-5
-1.455, 2.410e-5
-1.456, 2.419e-5
-1.457, 2.427e-5
-1.458, 2.432e-5
-1.459, 2.439e-5
-1.460, 2.447e-5
-1.461, 2.455e-5
-1.462, 2.462e-5
-1.463, 2.470e-5
-1.464, 2.478e-5
-1.465, 2.486e-5
-1.466, 2.494e-5
-1.467, 2.502e-5
-1.468, 2.510e-5
-1.469, 2.517e-5
-1.470, 2.525e-5
-1.471, 2.533e-5
-1.472, 2.540e-5
-1.473, 2.548e-5
-1.474, 2.556e-5
-1.475, 2.564e-5
-1.476, 2.571e-5
-1.477, 2.579e-5
-1.478, 2.587e-5
-1.479, 2.594e-5
-1.480, 2.601e-5
-1.481, 2.609e-5
-1.482, 2.617e-5
-1.483, 2.624e-5
-1.484, 2.632e-5
-1.485, 2.639e-5
-1.486, 2.647e-5
-1.487, 2.654e-5
-1.488, 2.661e-5
-1.489, 2.669e-5
-1.490, 2.676e-5
-1.491, 2.684e-5
-1.492, 2.692e-5
-1.493, 2.700e-5
-1.494, 2.707e-5
-1.495, 2.714e-5
-1.496, 2.722e-5
-1.497, 2.725e-5
-1.498, 2.731e-5
-1.499, 2.740e-5
-1.500, 2.747e-5
-1.501, 2.754e-5
-1.502, 2.761e-5
-1.503, 2.769e-5
-1.504, 2.777e-5
-1.505, 2.784e-5
-1.506, 2.791e-5
-1.507, 2.799e-5
-1.508, 2.807e-5
-1.509, 2.815e-5
-1.510, 2.824e-5
-1.511, 2.832e-5
-1.512, 2.840e-5
-1.513, 2.848e-5
-1.514, 2.856e-5
-1.515, 2.864e-5
-1.516, 2.871e-5
-1.517, 2.879e-5
-1.518, 2.886e-5
-1.519, 2.894e-5
-1.520, 2.902e-5
-1.521, 2.909e-5
-1.522, 2.918e-5
-1.523, 2.926e-5
-1.524, 2.934e-5
-1.525, 2.941e-5
-1.526, 2.949e-5
-1.527, 2.957e-5
-1.528, 2.966e-5
-1.529, 2.975e-5
-1.530, 2.983e-5
-1.531, 2.991e-5
-1.532, 2.999e-5
-1.533, 3.009e-5
-1.534, 3.017e-5
-1.535, 3.025e-5
-1.536, 3.034e-5
-1.537, 3.044e-5
-1.538, 3.053e-5
-1.539, 3.062e-5
-1.540, 3.072e-5
-1.541, 3.081e-5
-1.542, 3.091e-5
-1.543, 3.101e-5
-1.544, 3.111e-5
-1.545, 3.121e-5
-1.546, 3.131e-5
-1.547, 3.141e-5
-1.548, 3.152e-5
-1.549, 3.163e-5
-1.550, 3.174e-5
-1.551, 3.185e-5
-1.552, 3.196e-5
-1.553, 3.208e-5
-1.554, 3.219e-5
-1.555, 3.230e-5
-1.556, 3.242e-5
-1.557, 3.253e-5
-1.558, 3.265e-5
-1.559, 3.277e-5
-1.560, 3.289e-5
-1.561, 3.301e-5
-1.562, 3.313e-5
-1.563, 3.326e-5
-1.564, 3.340e-5
-1.565, 3.352e-5
-1.566, 3.365e-5
-1.567, 3.379e-5
-1.568, 3.393e-5
-1.569, 3.407e-5
-1.570, 3.421e-5
-1.571, 3.435e-5
-1.572, 3.450e-5
-1.573, 3.465e-5
-1.574, 3.480e-5
-1.575, 3.495e-5
-1.576, 3.510e-5
-1.577, 3.527e-5
-1.578, 3.544e-5
-1.579, 3.560e-5
-1.580, 3.574e-5
-1.581, 3.589e-5
-1.582, 3.606e-5
-1.583, 3.623e-5
-1.584, 3.640e-5
-1.585, 3.658e-5
-1.586, 3.675e-5
-1.587, 3.694e-5
-1.588, 3.712e-5
-1.589, 3.731e-5
-1.590, 3.749e-5
-1.591, 3.768e-5
-1.592, 3.786e-5
-1.593, 3.805e-5
-1.594, 3.825e-5
-1.595, 3.845e-5
-1.596, 3.865e-5
-1.597, 3.885e-5
-1.598, 3.906e-5
-1.599, 3.927e-5
-1.600, 3.948e-5
-1.601, 3.970e-5
-1.602, 3.992e-5
-1.603, 4.014e-5
-1.604, 4.036e-5
-1.605, 4.058e-5
-1.606, 4.081e-5
-1.607, 4.104e-5
-1.608, 4.127e-5
-1.609, 4.151e-5
-1.610, 4.174e-5
-1.611, 4.197e-5
-1.612, 4.221e-5
-1.613, 4.246e-5
-1.614, 4.271e-5
-1.615, 4.295e-5
-1.616, 4.320e-5
-1.617, 4.344e-5
-1.618, 4.368e-5
-1.619, 4.394e-5
-1.620, 4.419e-5
-1.621, 4.445e-5
-1.622, 4.470e-5
-1.623, 4.496e-5
-1.624, 4.522e-5
-1.625, 4.549e-5
-1.626, 4.574e-5
-1.627, 4.600e-5
-1.628, 4.627e-5
-1.629, 4.654e-5
-1.630, 4.681e-5
-1.631, 4.708e-5
-1.632, 4.735e-5
-1.633, 4.763e-5
-1.634, 4.791e-5
-1.635, 4.819e-5
-1.636, 4.847e-5
-1.637, 4.874e-5
-1.638, 4.903e-5
-1.639, 4.932e-5
-1.640, 4.960e-5
-1.641, 4.987e-5
-1.642, 5.015e-5
-1.643, 5.044e-5
-1.644, 5.072e-5
-1.645, 5.099e-5
-1.646, 5.131e-5
-1.647, 5.164e-5
-1.648, 5.197e-5
-1.649, 5.229e-5
-1.650, 5.258e-5
-1.651, 5.287e-5
-1.652, 5.314e-5
-1.653, 5.342e-5
-1.654, 5.370e-5
-1.655, 5.398e-5
-1.656, 5.426e-5
-1.657, 5.453e-5
-1.658, 5.481e-5
-1.659, 5.510e-5
-1.660, 5.537e-5
-1.661, 5.566e-5
-1.662, 5.593e-5
-1.663, 5.620e-5
-1.664, 5.648e-5
-1.665, 5.675e-5
-1.666, 5.701e-5
-1.667, 5.727e-5
-1.668, 5.753e-5
-1.669, 5.781e-5
-1.670, 5.807e-5
-1.671, 5.833e-5
-1.672, 5.859e-5
-1.673, 5.885e-5
-1.674, 5.912e-5
-1.675, 5.937e-5
-1.676, 5.961e-5
-1.677, 5.986e-5
-1.678, 6.012e-5
-1.679, 6.038e-5
-1.680, 6.062e-5
-1.681, 6.087e-5
-1.682, 6.111e-5
-1.683, 6.136e-5
-1.684, 6.160e-5
-1.685, 6.184e-5
-1.686, 6.207e-5
-1.687, 6.230e-5
-1.688, 6.254e-5
-1.689, 6.277e-5
-1.690, 6.300e-5
-1.691, 6.323e-5
-1.692, 6.346e-5
-1.693, 6.368e-5
-1.694, 6.391e-5
-1.695, 6.413e-5
-1.696, 6.434e-5
-1.697, 6.455e-5
-1.698, 6.476e-5
-1.699, 6.497e-5
-1.700, 6.516e-5
-1.701, 6.535e-5
-1.702, 6.555e-5
-1.703, 6.574e-5
-1.704, 6.594e-5
-1.705, 6.614e-5
-1.706, 6.632e-5
-1.707, 6.651e-5
-1.708, 6.670e-5
-1.709, 6.689e-5
-1.710, 6.708e-5
-1.711, 6.725e-5
-1.712, 6.743e-5
-1.713, 6.760e-5
-1.714, 6.778e-5
-1.715, 6.796e-5
-1.716, 6.813e-5
-1.717, 6.830e-5
-1.718, 6.847e-5
-1.719, 6.863e-5
-1.720, 6.880e-5
-1.721, 6.896e-5
-1.722, 6.912e-5
-1.723, 6.931e-5
-1.724, 6.954e-5
-1.725, 6.972e-5
-1.726, 6.990e-5
-1.727, 7.006e-5
-1.728, 7.022e-5
-1.729, 7.039e-5
-1.730, 7.053e-5
-1.731, 7.068e-5
-1.732, 7.083e-5
-1.733, 7.098e-5
-1.734, 7.114e-5
-1.735, 7.129e-5
-1.736, 7.143e-5
-1.737, 7.158e-5
-1.738, 7.171e-5
-1.739, 7.185e-5
-1.740, 7.199e-5
-1.741, 7.212e-5
-1.742, 7.227e-5
-1.743, 7.241e-5
-1.744, 7.256e-5
-1.745, 7.269e-5
-1.746, 7.283e-5
-1.747, 7.296e-5
-1.748, 7.308e-5
-1.749, 7.320e-5
-1.750, 7.333e-5
-1.751, 7.345e-5
-1.752, 7.358e-5
-1.753, 7.371e-5
-1.754, 7.383e-5
-1.755, 7.396e-5
-1.756, 7.409e-5
-1.757, 7.422e-5
-1.758, 7.435e-5
-1.759, 7.448e-5
-1.760, 7.460e-5
-1.761, 7.473e-5
-1.762, 7.486e-5
-1.763, 7.499e-5
-1.764, 7.513e-5
-1.765, 7.525e-5
-1.766, 7.537e-5
-1.767, 7.550e-5
-1.768, 7.563e-5
-1.769, 7.577e-5
-1.770, 7.590e-5
-1.771, 7.604e-5
-1.772, 7.617e-5
-1.773, 7.631e-5
-1.774, 7.646e-5
-1.775, 7.661e-5
-1.776, 7.675e-5
-1.777, 7.689e-5
-1.778, 7.704e-5
-1.779, 7.719e-5
-1.780, 7.735e-5
-1.781, 7.749e-5
-1.782, 7.765e-5
-1.783, 7.780e-5
-1.784, 7.797e-5
-1.785, 7.814e-5
-1.786, 7.830e-5
-1.787, 7.846e-5
-1.788, 7.862e-5
-1.789, 7.878e-5
-1.790, 7.895e-5
-1.791, 7.912e-5
-1.792, 7.929e-5
-1.793, 7.947e-5
-1.794, 7.964e-5
-1.795, 7.983e-5
-1.796, 8.001e-5
-1.797, 8.020e-5
-1.798, 8.039e-5
-1.799, 8.057e-5
-1.800, 8.077e-5
-1.801, 8.095e-5
-1.802, 8.113e-5
-1.803, 8.132e-5
-1.804, 8.153e-5
-1.805, 8.173e-5
-1.806, 8.194e-5
-1.807, 8.216e-5
-1.808, 8.237e-5
-1.809, 8.260e-5
-1.810, 8.284e-5
-1.811, 8.305e-5
-1.812, 8.328e-5
-1.813, 8.350e-5
-1.814, 8.374e-5
-1.815, 8.397e-5
-1.816, 8.420e-5
-1.817, 8.442e-5
-1.818, 8.467e-5
-1.819, 8.493e-5
-1.820, 8.515e-5
-1.821, 8.538e-5
-1.822, 8.552e-5
-1.823, 8.573e-5
-1.824, 8.600e-5
-1.825, 8.628e-5
-1.826, 8.653e-5
-1.827, 8.683e-5
-1.828, 8.719e-5
-1.829, 8.749e-5
-1.830, 8.779e-5
-1.831, 8.810e-5
-1.832, 8.841e-5
-1.833, 8.872e-5
-1.834, 8.905e-5
-1.835, 8.937e-5
-1.836, 8.969e-5
-1.837, 9.002e-5
-1.838, 9.035e-5
-1.839, 9.069e-5
-1.840, 9.104e-5
-1.841, 9.141e-5
-1.842, 9.178e-5
-1.843, 9.215e-5
-1.844, 9.254e-5
-1.845, 9.291e-5
-1.846, 9.329e-5
-1.847, 9.367e-5
-1.848, 9.407e-5
-1.849, 9.449e-5
-1.850, 9.489e-5
-1.851, 9.530e-5
-1.852, 9.570e-5
-1.853, 9.611e-5
-1.854, 9.656e-5
-1.855, 9.699e-5
-1.856, 9.741e-5
-1.857, 9.785e-5
-1.858, 9.829e-5
-1.859, 9.875e-5
-1.860, 9.919e-5
-1.861, 9.963e-5
-1.862, 1.001e-4
-1.863, 1.005e-4
-1.864, 1.010e-4
-1.865, 1.014e-4
-1.866, 1.019e-4
-1.867, 1.024e-4
-1.868, 1.029e-4
-1.869, 1.034e-4
-1.870, 1.039e-4
-1.871, 1.044e-4
-1.872, 1.049e-4
-1.873, 1.055e-4
-1.874, 1.060e-4
-1.875, 1.065e-4
-1.876, 1.072e-4
-1.877, 1.077e-4
-1.878, 1.082e-4
-1.879, 1.089e-4
-1.880, 1.095e-4
-1.881, 1.101e-4
-1.882, 1.106e-4
-1.883, 1.110e-4
-1.884, 1.116e-4
-1.885, 1.122e-4
-1.886, 1.128e-4
-1.887, 1.134e-4
-1.888, 1.140e-4
-1.889, 1.147e-4
-1.890, 1.155e-4
-1.891, 1.162e-4
-1.892, 1.168e-4
-1.893, 1.175e-4
-1.894, 1.182e-4
-1.895, 1.189e-4
-1.896, 1.196e-4
-1.897, 1.202e-4
-1.898, 1.211e-4
-1.899, 1.218e-4
-1.900, 1.226e-4
-1.901, 1.234e-4
-1.902, 1.240e-4
-1.903, 1.248e-4
-1.904, 1.256e-4
-1.905, 1.264e-4
-1.906, 1.272e-4
-1.907, 1.280e-4
-1.908, 1.289e-4
-1.909, 1.298e-4
-1.910, 1.306e-4
-1.911, 1.315e-4
-1.912, 1.324e-4
-1.913, 1.332e-4
-1.914, 1.338e-4
-1.915, 1.346e-4
-1.916, 1.355e-4
-1.917, 1.364e-4
-1.918, 1.372e-4
-1.919, 1.381e-4
-1.920, 1.391e-4
-1.921, 1.401e-4
-1.922, 1.410e-4
-1.923, 1.420e-4
-1.924, 1.428e-4
-1.925, 1.434e-4
-1.926, 1.442e-4
-1.927, 1.453e-4
-1.928, 1.462e-4
-1.929, 1.472e-4
-1.930, 1.481e-4
-1.931, 1.490e-4
-1.932, 1.500e-4
-1.933, 1.511e-4
-1.934, 1.523e-4
-1.935, 1.535e-4
-1.936, 1.545e-4
-1.937, 1.556e-4
-1.938, 1.568e-4
-1.939, 1.579e-4
-1.940, 1.591e-4
-1.941, 1.601e-4
-1.942, 1.613e-4
-1.943, 1.625e-4
-1.944, 1.638e-4
-1.945, 1.650e-4
-1.946, 1.661e-4
-1.947, 1.674e-4
-1.948, 1.679e-4
-1.949, 1.689e-4
-1.950, 1.702e-4
-1.951, 1.713e-4
-1.952, 1.724e-4
-1.953, 1.735e-4
-1.954, 1.750e-4
-1.955, 1.762e-4
-1.956, 1.774e-4
-1.957, 1.788e-4
-1.958, 1.801e-4
-1.959, 1.812e-4
-1.960, 1.825e-4
-1.961, 1.842e-4
-1.962, 1.858e-4
-1.963, 1.873e-4
-1.964, 1.888e-4
-1.965, 1.905e-4
-1.966, 1.921e-4
-1.967, 1.936e-4
-1.968, 1.953e-4
-1.969, 1.968e-4
-1.970, 1.982e-4
-1.971, 1.998e-4
-1.972, 2.006e-4
-1.973, 2.021e-4
-1.974, 2.038e-4
-1.975, 2.053e-4
-1.976, 2.068e-4
-1.977, 2.086e-4
-1.978, 2.105e-4
-1.979, 2.124e-4
-1.980, 2.140e-4
-1.981, 2.157e-4
-1.982, 2.173e-4
-1.983, 2.189e-4
-1.984, 2.206e-4
-1.985, 2.225e-4
-1.986, 2.245e-4
-1.987, 2.265e-4
-1.988, 2.282e-4
-1.989, 2.299e-4
-1.990, 2.320e-4
-1.991, 2.342e-4
-1.992, 2.364e-4
-1.993, 2.385e-4
-1.994, 2.407e-4
-1.995, 2.428e-4
-1.996, 2.450e-4
-1.997, 2.472e-4
-1.998, 2.495e-4
-1.999, 2.515e-4
-2.000, 2.538e-4
-2.001, 2.560e-4
-2.002, 2.582e-4
-2.003, 2.608e-4
-2.004, 2.633e-4
-2.005, 2.651e-4
-2.006, 2.680e-4
-2.007, 2.710e-4
-2.008, 2.736e-4
-2.009, 2.764e-4
-2.010, 2.788e-4
-2.011, 2.814e-4
-2.012, 2.836e-4
-2.013, 2.862e-4
-2.014, 2.889e-4
-2.015, 2.915e-4
-2.016, 2.941e-4
-2.017, 2.971e-4
-2.018, 2.997e-4
-2.019, 3.024e-4
-2.020, 3.053e-4
-2.021, 3.088e-4
-2.022, 3.116e-4
-2.023, 3.147e-4
-2.024, 3.176e-4
-2.025, 3.206e-4
-2.026, 3.239e-4
-2.027, 3.271e-4
-2.028, 3.301e-4
-2.029, 3.333e-4
-2.030, 3.366e-4
-2.031, 3.401e-4
-2.032, 3.435e-4
-2.033, 3.467e-4
-2.034, 3.502e-4
-2.035, 3.535e-4
-2.036, 3.574e-4
-2.037, 3.608e-4
-2.038, 3.644e-4
-2.039, 3.684e-4
-2.040, 3.722e-4
-2.041, 3.760e-4
-2.042, 3.798e-4
-2.043, 3.835e-4
-2.044, 3.871e-4
-2.045, 3.906e-4
-2.046, 3.945e-4
-2.047, 3.984e-4
-2.048, 4.025e-4
-2.049, 4.065e-4
-2.050, 4.105e-4
-2.051, 4.151e-4
-2.052, 4.196e-4
-2.053, 4.239e-4
-2.054, 4.276e-4
-2.055, 4.320e-4
-2.056, 4.361e-4
-2.057, 4.406e-4
-2.058, 4.450e-4
-2.059, 4.498e-4
-2.060, 4.543e-4
-2.061, 4.586e-4
-2.062, 4.634e-4
-2.063, 4.684e-4
-2.064, 4.735e-4
-2.065, 4.784e-4
-2.066, 4.831e-4
-2.067, 4.883e-4
-2.068, 4.934e-4
-2.069, 4.980e-4
-2.070, 5.023e-4
-2.071, 5.073e-4
-2.072, 5.126e-4
-2.073, 5.171e-4
-2.074, 5.229e-4
-2.075, 5.284e-4
-2.076, 5.339e-4
-2.077, 5.396e-4
-2.078, 5.448e-4
-2.079, 5.501e-4
-2.080, 5.557e-4
-2.081, 5.615e-4
-2.082, 5.670e-4
-2.083, 5.725e-4
-2.084, 5.783e-4
-2.085, 5.835e-4
-2.086, 5.893e-4
-2.087, 5.954e-4
-2.088, 6.016e-4
-2.089, 6.073e-4
-2.090, 6.131e-4
-2.091, 6.193e-4
-2.092, 6.261e-4
-2.093, 6.327e-4
-2.094, 6.391e-4
-2.095, 6.454e-4
-2.096, 6.516e-4
-2.097, 6.579e-4
-2.098, 6.644e-4
-2.099, 6.708e-4
-2.100, 6.779e-4
-2.101, 6.848e-4
-2.102, 6.918e-4
-2.103, 6.986e-4
-2.104, 7.052e-4
-2.105, 7.122e-4
-2.106, 7.193e-4
-2.107, 7.261e-4
-2.108, 7.333e-4
-2.109, 7.406e-4
-2.110, 7.482e-4
-2.111, 7.556e-4
-2.112, 7.633e-4
-2.113, 7.703e-4
-2.114, 7.776e-4
-2.115, 7.854e-4
-2.116, 7.933e-4
-2.117, 8.010e-4
-2.118, 8.087e-4
-2.119, 8.167e-4
-2.120, 8.243e-4
-2.121, 8.326e-4
-2.122, 8.403e-4
-2.123, 8.480e-4
-2.124, 8.557e-4
-2.125, 8.641e-4
-2.126, 8.728e-4
-2.127, 8.802e-4
-2.128, 8.882e-4
-2.129, 8.965e-4
-2.130, 9.047e-4
-2.131, 9.133e-4
-2.132, 9.213e-4
-2.133, 9.296e-4
-2.134, 9.382e-4
-2.135, 9.463e-4
-2.136, 9.547e-4
-2.137, 9.633e-4
-2.138, 9.718e-4
-2.139, 9.806e-4
-2.140, 9.895e-4
-2.141, 9.986e-4
-2.142, 1.007e-3
-2.143, 1.011e-3
-2.144, 1.011e-3
-2.145, 1.011e-3
-2.146, 1.011e-3
-2.147, 1.011e-3
-2.148, 1.011e-3
-2.149, 1.011e-3
-2.150, 1.011e-3
-2.151, 1.011e-3
-2.152, 1.011e-3
-2.153, 1.011e-3
-2.154, 1.011e-3
-2.155, 1.011e-3
-2.156, 1.011e-3
-2.157, 1.011e-3
-2.158, 1.011e-3
-2.159, 1.011e-3
-2.160, 1.011e-3
-2.161, 1.011e-3
-2.162, 1.011e-3
-2.163, 1.011e-3
-2.164, 1.011e-3
-2.165, 1.011e-3
-2.166, 1.011e-3
-2.167, 1.011e-3
-2.168, 1.011e-3
-2.169, 1.011e-3
-2.170, 1.011e-3
-2.171, 1.011e-3
-2.172, 1.011e-3
-2.173, 1.011e-3
-2.174, 1.011e-3
-2.175, 1.011e-3
-2.176, 1.011e-3
-2.177, 1.011e-3
-2.178, 1.011e-3
-2.179, 1.011e-3
-2.180, 1.011e-3
-2.181, 1.011e-3
-2.182, 1.011e-3
-2.183, 1.011e-3
-2.184, 1.011e-3
-2.185, 1.011e-3
-2.186, 1.011e-3
-2.187, 1.011e-3
-2.188, 1.011e-3
-2.189, 1.011e-3
-2.190, 1.011e-3
-2.191, 1.011e-3
-2.192, 1.011e-3
-2.193, 1.011e-3
-2.194, 1.011e-3
-2.195, 1.011e-3
-2.196, 1.011e-3
-2.197, 1.011e-3
-2.198, 1.011e-3
-2.199, 1.011e-3
-2.200, 1.011e-3
-2.201, 1.011e-3
-2.202, 1.011e-3
-2.203, 1.011e-3
-2.204, 1.011e-3
-2.205, 1.011e-3
-2.206, 1.011e-3
-2.207, 1.011e-3
-2.208, 1.011e-3
-2.209, 1.011e-3
-2.210, 1.011e-3
-2.211, 1.011e-3
-2.212, 1.011e-3
-2.213, 1.011e-3
-2.214, 1.011e-3
-2.215, 1.011e-3
-2.216, 1.011e-3
-2.217, 1.011e-3
-2.218, 1.011e-3
-2.219, 1.011e-3
-2.220, 1.011e-3
-2.221, 1.011e-3
-2.222, 1.011e-3
-2.223, 1.011e-3
-2.224, 1.011e-3
-2.225, 1.011e-3
-2.226, 1.011e-3
-2.227, 1.011e-3
-2.228, 1.011e-3
-2.229, 1.011e-3
-2.230, 1.011e-3
-2.231, 1.011e-3
-2.232, 1.011e-3
-2.233, 1.011e-3
-2.234, 1.011e-3
-2.235, 1.011e-3
-2.236, 1.011e-3
-2.237, 1.011e-3
-2.238, 1.011e-3
-2.239, 1.011e-3
-2.240, 1.011e-3
-2.241, 1.011e-3
-2.242, 1.011e-3
-2.243, 1.011e-3
-2.244, 1.011e-3
-2.245, 1.011e-3
-2.246, 1.011e-3
-2.247, 1.011e-3
-2.248, 1.011e-3
-2.249, 1.011e-3
-2.250, 1.011e-3
-2.251, 1.011e-3
-2.252, 1.011e-3
-2.253, 1.011e-3
-2.254, 1.011e-3
-2.255, 1.011e-3
-2.256, 1.011e-3
-2.257, 1.011e-3
-2.258, 1.011e-3
-2.259, 1.011e-3
-2.260, 1.011e-3
-2.261, 1.011e-3
-2.262, 1.011e-3
-2.263, 1.011e-3
-2.264, 1.011e-3
-2.265, 1.011e-3
-2.266, 1.011e-3
-2.267, 1.011e-3
-2.268, 1.011e-3
-2.269, 1.011e-3
-2.270, 1.011e-3
-2.271, 1.011e-3
-2.272, 1.011e-3
-2.273, 1.011e-3
-2.274, 1.011e-3
-2.275, 1.011e-3
-2.276, 1.011e-3
-2.277, 1.011e-3
-2.278, 1.011e-3
-2.279, 1.011e-3
-2.280, 1.011e-3
-2.281, 1.011e-3
-2.282, 1.011e-3
-2.283, 1.011e-3
-2.284, 1.011e-3
-2.285, 1.011e-3
-2.286, 1.011e-3
-2.287, 1.011e-3
-2.288, 1.011e-3
-2.289, 1.011e-3
-2.290, 1.011e-3
-2.291, 1.011e-3
-2.292, 1.011e-3
-2.293, 1.011e-3
-2.294, 1.011e-3
-2.295, 1.011e-3
-2.296, 1.011e-3
-2.297, 1.011e-3
-2.298, 1.011e-3
-2.299, 1.011e-3
