Potential V vs RHE, Current mA cm-2
0.05339999999999995,-0.07594170257675517
0.05239999999999995,-0.07796473973556219
0.051399999999999946,-0.07877112517648524
0.050399999999999945,-0.07936530392242855
0.049399999999999944,-0.07987459999037998
0.04839999999999994,-0.08035560183233408
0.04739999999999994,-0.08082245656128956
0.04639999999999994,-0.08124686995124906
0.04539999999999994,-0.08171372468020452
0.04439999999999994,-0.08219472652215863
0.04339999999999994,-0.08257669857312219
0.04239999999999994,-0.0829728177370844
0.04139999999999994,-0.08335478978804794
0.040399999999999936,-0.08373676183901152
0.039399999999999935,-0.08417532234196969
0.038399999999999934,-0.08454314727993459
0.03739999999999993,-0.0849109722178995
0.03639999999999993,-0.08529294426886307
0.03539999999999993,-0.08568906343282526
0.03439999999999993,-0.08608518259678749
0.03339999999999993,-0.08643886042175375
0.03239999999999993,-0.08679253824672
0.03139999999999993,-0.08714621607168627
0.030399999999999927,-0.08747159967065522
0.029399999999999926,-0.08785357172161878
0.028399999999999925,-0.08817895532058774
0.027399999999999924,-0.0885043389195567
0.026399999999999924,-0.0889004580835189
0.025399999999999923,-0.08929657724748112
0.024399999999999922,-0.08966440218544602
0.02339999999999992,-0.09000393289741364
0.02239999999999992,-0.09028687515738665
0.02139999999999992,-0.09065470009535155
0.020399999999999918,-0.09098008369432051
0.019399999999999917,-0.09133376151928675
0.018399999999999916,-0.09165914511825574
0.017399999999999916,-0.09195623449122738
0.016399999999999915,-0.0922674709771977
0.015399999999999914,-0.09259285457616664
0.014399999999999913,-0.0929182381751356
0.013399999999999912,-0.09322947466110591
0.012399999999999911,-0.09351241692107892
0.01139999999999991,-0.09378121206805329
0.01039999999999991,-0.09413488989301955
0.009399999999999908,-0.09444612637898986
0.008399999999999908,-0.09470077441296555
0.007399999999999907,-0.09501201089893586
0.006399999999999906,-0.09535154161090346
0.005399999999999905,-0.09566277809687378
0.004399999999999904,-0.09598816169584275
0.003399999999999903,-0.09621451550382115
0.002399999999999902,-0.09646916353779686
0.0013999999999999013,-0.09669551734577525
0.00039999999999990044,-0.09696431249274962
-0.0006000000000001005,-0.09726140186572127
-0.0016000000000001013,-0.09745946144770237
-0.0026000000000001022,-0.09767166814268213
-0.003600000000000103,-0.0978838748376619
-0.004600000000000104,-0.09812437575863896
-0.005600000000000105,-0.09837902379261465
-0.006600000000000106,-0.09860537760059306
-0.007600000000000107,-0.09877514295657686
-0.008600000000000108,-0.09900149676455527
-0.009600000000000108,-0.09921370345953502
-0.01060000000000011,-0.09942591015451478
-0.01160000000000011,-0.09963811684949454
-0.012600000000000111,-0.09985032354447429
-0.013600000000000112,-0.10003423601345675
-0.014600000000000113,-0.1002464427084365
-0.015600000000000114,-0.1004445022904176
-0.016600000000000115,-0.1006142676464014
-0.017600000000000116,-0.10076988588938657
-0.018600000000000116,-0.10093965124537037
-0.019600000000000117,-0.10113771082735147
-0.020600000000000118,-0.10130747618333527
-0.02160000000000012,-0.10149138865231773
-0.02260000000000012,-0.10163285978230424
-0.02360000000000012,-0.1017601837992921
-0.024600000000000122,-0.10195824338127318
-0.025600000000000123,-0.102128008737257
-0.026600000000000124,-0.10222703852824755
-0.027600000000000124,-0.10239680388423136
-0.028600000000000125,-0.10250998078822056
-0.029600000000000126,-0.10267974614420436
-0.030600000000000127,-0.10280707016119221
-0.03160000000000013,-0.10292024706518142
-0.03260000000000013,-0.10303342396917063
-0.03360000000000013,-0.10311830664716252
-0.03460000000000002,-0.10324563066415038
-0.03560000000000002,-0.10338710179413689
-0.03660000000000002,-0.10348613158512744
-0.03760000000000002,-0.10357101426311933
-0.03860000000000002,-0.10365589694111124
-0.039600000000000024,-0.10371248539310583
-0.040600000000000025,-0.10382566229709504
-0.041600000000000026,-0.10386810363609099
-0.04260000000000003,-0.10393883920108424
-0.04360000000000003,-0.10400957476607749
-0.04460000000000003,-0.10410860455706805
-0.04560000000000003,-0.10419348723505996
-0.04660000000000003,-0.1042076343480586
-0.04760000000000003,-0.10423592857405589
-0.04860000000000003,-0.10427836991305185
-0.04960000000000003,-0.10430666413904917
-0.050600000000000034,-0.10439154681704105
-0.051600000000000035,-0.10439154681704105
-0.052600000000000036,-0.10439154681704105
-0.053600000000000037,-0.10441984104303836
-0.05460000000000004,-0.10444813526903567
-0.05560000000000004,-0.10449057660803161
-0.05660000000000004,-0.10449057660803161
-0.05760000000000004,-0.10446228238203431
-0.05860000000000004,-0.10447642949503295
-0.05960000000000004,-0.10450472372103026
-0.06060000000000004,-0.10453301794702756
-0.061600000000000044,-0.10451887083402892
-0.06260000000000004,-0.10450472372103026
-0.06360000000000005,-0.10449057660803161
-0.06460000000000005,-0.10449057660803161
-0.06560000000000005,-0.10449057660803161
-0.06660000000000005,-0.10446228238203431
-0.06760000000000005,-0.104433988156037
-0.06860000000000005,-0.1044056939300397
-0.06960000000000005,-0.1044056939300397
-0.07060000000000005,-0.10439154681704105
-0.07160000000000005,-0.10433495836504646
-0.07260000000000005,-0.10427836991305185
-0.07360000000000005,-0.1042076343480586
-0.07460000000000006,-0.10419348723505996
-0.07560000000000006,-0.10419348723505996
-0.07660000000000006,-0.10410860455706805
-0.07760000000000006,-0.10405201610507345
-0.07860000000000006,-0.10400957476607749
-0.07960000000000006,-0.1039529863140829
-0.08060000000000006,-0.1039246920880856
-0.08160000000000006,-0.1038398094100937
-0.08260000000000006,-0.10376907384510045
-0.08360000000000006,-0.1036983382801072
-0.08460000000000006,-0.10361345560211528
-0.08560000000000006,-0.10358516137611798
-0.08660000000000007,-0.10347198447212877
-0.08760000000000007,-0.10338710179413689
-0.08860000000000007,-0.10328807200314633
-0.08960000000000007,-0.10323148355115172
-0.09060000000000007,-0.10318904221215577
-0.09160000000000007,-0.10307586530816658
-0.09260000000000007,-0.10293439417818008
-0.09360000000000007,-0.10286365861318682
-0.09460000000000007,-0.10277877593519492
-0.09560000000000007,-0.10270804037020166
-0.09660000000000007,-0.10263730480520841
-0.09760000000000008,-0.10250998078822056
-0.09860000000000008,-0.10241095099723
-0.09960000000000008,-0.10234021543223674
-0.10060000000000008,-0.1022411856412462
-0.10160000000000008,-0.10214215585025564
-0.10260000000000008,-0.1020148318332678
-0.10360000000000008,-0.1019016549292786
-0.10460000000000008,-0.10181677225128669
-0.10560000000000008,-0.10173188957329479
-0.10660000000000008,-0.10160456555630692
-0.10760000000000008,-0.10149138865231773
-0.10860000000000009,-0.10134991752233123
-0.10960000000000009,-0.10125088773134068
-0.11060000000000009,-0.10118015216634743
-0.11160000000000009,-0.10102453392336228
-0.11260000000000009,-0.10089720990637441
-0.11360000000000009,-0.10076988588938657
-0.11460000000000009,-0.10069915032439332
-0.11560000000000009,-0.1006142676464014
-0.11660000000000009,-0.1004445022904176
-0.1176000000000001,-0.10031717827342976
-0.1186000000000001,-0.10020400136944055
-0.1196000000000001,-0.10010497157845
-0.1206000000000001,-0.10003423601345675
-0.1216000000000001,-0.09989276488347024
-0.1226000000000001,-0.09975129375348374
-0.1236000000000001,-0.09960982262349724
-0.1246000000000001,-0.09951079283250668
-0.1256000000000001,-0.09945420438051207
-0.1266000000000001,-0.09929858613752693
-0.1276000000000001,-0.09917126212053906
-0.1286000000000001,-0.09907223232954852
-0.1296000000000001,-0.09895905542555931
-0.1306000000000001,-0.09884587852157012
-0.1316000000000001,-0.09871855450458226
-0.1326000000000001,-0.09857708337459577
-0.1336000000000001,-0.09846390647060656
-0.1346000000000001,-0.098364876679616
-0.1356000000000001,-0.0982516997756268
-0.1366000000000001,-0.09813852287163759
-0.1376000000000001,-0.09795461040265514
-0.1386000000000001,-0.09782728638566728
-0.1396000000000001,-0.0977424037076754
-0.1406000000000001,-0.09761507969068753
-0.14160000000000011,-0.09750190278669833
-0.14260000000000012,-0.09737457876971047
-0.14360000000000012,-0.09721896052672531
-0.14460000000000012,-0.09714822496173206
-0.14560000000000012,-0.09703504805774286
-0.14660000000000012,-0.09689357692775637
-0.14760000000000012,-0.09673795868477121
-0.14860000000000012,-0.09656819332878741
-0.14960000000000012,-0.09645501642479819
-0.15060000000000012,-0.09637013374680631
-0.15160000000000012,-0.09621451550382115
-0.15260000000000012,-0.09611548571283059
-0.15360000000000013,-0.09598816169584275
-0.15460000000000013,-0.09587498479185352
-0.15560000000000013,-0.09581839633985893
-0.15660000000000013,-0.09567692520987243
-0.15760000000000013,-0.09553545407988592
-0.15860000000000013,-0.09540813006289808
-0.15960000000000002,-0.09529495315890889
-0.16060000000000002,-0.09522421759391562
-0.16160000000000002,-0.09506859935093047
-0.16260000000000002,-0.09492712822094396
-0.16360000000000002,-0.09481395131695476
-0.16460000000000002,-0.09471492152596421
-0.16560000000000002,-0.09470077441296555
-0.16660000000000003,-0.09472906863896285
-0.16760000000000003,-0.0945451561699804
-0.16860000000000003,-0.0944036850399939
-0.16960000000000003,-0.09429050813600469
-0.17060000000000003,-0.09419147834501414
-0.17160000000000003,-0.09409244855402359
-0.17260000000000003,-0.09395097742403709
-0.17360000000000003,-0.09383780052004788
-0.17460000000000003,-0.09371047650306003
-0.17560000000000003,-0.09362559382506812
-0.17660000000000003,-0.09351241692107892
-0.17760000000000004,-0.09342753424308703
-0.17860000000000004,-0.09332850445209646
-0.17960000000000004,-0.09324362177410456
-0.18060000000000004,-0.09315873909611266
-0.18160000000000004,-0.09304556219212347
-0.18260000000000004,-0.09288994394913831
-0.18360000000000004,-0.0927484728191518
-0.18460000000000004,-0.09267773725415854
-0.18560000000000004,-0.09259285457616664
-0.18660000000000004,-0.09247967767217745
-0.18760000000000004,-0.0924372363331815
-0.18860000000000005,-0.09256456035016934
-0.18960000000000005,-0.09246553055917879
-0.19060000000000005,-0.09230991231619365
-0.19160000000000005,-0.09215429407320849
-0.19260000000000005,-0.09205526428221794
-0.19360000000000005,-0.09191379315223143
-0.19460000000000005,-0.09181476336124088
-0.19560000000000005,-0.09177232202224493
-0.19660000000000005,-0.09164499800525706
-0.19760000000000005,-0.09156011532726518
-0.19860000000000005,-0.09143279131027732
-0.19960000000000006,-0.09129132018029082
-0.20060000000000006,-0.09123473172829621
-0.20160000000000006,-0.09116399616330297
-0.20260000000000006,-0.09107911348531106
-0.20360000000000006,-0.09099423080731917
-0.20460000000000006,-0.0909234952423259
-0.20560000000000006,-0.09090934812932726
-0.20660000000000006,-0.09079617122533806
-0.20760000000000006,-0.09071128854734616
-0.20860000000000006,-0.0906405529823529
-0.20960000000000006,-0.0905839645303583
-0.21060000000000006,-0.0905839645303583
-0.21160000000000007,-0.0904990818523664
-0.21260000000000007,-0.09037175783537854
-0.21360000000000007,-0.09028687515738665
-0.21460000000000007,-0.09018784536639608
-0.21560000000000007,-0.09015955114039878
-0.21660000000000007,-0.09010296268840419
-0.21760000000000007,-0.09001808001041228
-0.21860000000000007,-0.08993319733242039
-0.21960000000000007,-0.08994734444541903
-0.22060000000000007,-0.08994734444541903
-0.22160000000000007,-0.08990490310642309
-0.22260000000000008,-0.08984831465442847
-0.22360000000000008,-0.08976343197643659
-0.22460000000000008,-0.08976343197643659
-0.22560000000000008,-0.08972099063744063
-0.22660000000000008,-0.08970684352444197
-0.22760000000000008,-0.08966440218544602
-0.22860000000000008,-0.08962196084645008
-0.22960000000000008,-0.08957951950745412
-0.23060000000000008,-0.08959366662045277
-0.23160000000000008,-0.08952293105545953
-0.23260000000000008,-0.08948048971646357
-0.23360000000000009,-0.08945219549046628
-0.2346000000000001,-0.08942390126446896
-0.2356000000000001,-0.08945219549046628
-0.2366000000000001,-0.08938145992547303
-0.2376000000000001,-0.08933901858647707
-0.2386000000000001,-0.08928243013448246
-0.2396000000000001,-0.08922584168248787
-0.2406000000000001,-0.08926828302148382
-0.2416000000000001,-0.08921169456948921
-0.2426000000000001,-0.08919754745649056
-0.2436000000000001,-0.08914095900449596
-0.2446000000000001,-0.0890985176655
-0.2456000000000001,-0.08905607632650406
-0.2466000000000001,-0.08899948787450947
-0.2476000000000001,-0.08894289942251486
-0.2486000000000001,-0.08894289942251486
-0.2496000000000001,-0.0889570465355135
-0.2506000000000001,-0.08897119364851215
-0.2516000000000001,-0.08887216385752161
-0.2526000000000001,-0.088815575405527
-0.2536000000000001,-0.08878728117952969
-0.2546000000000001,-0.08887216385752161
-0.2556000000000001,-0.08887216385752161
-0.2566000000000001,-0.08884386963152431
-0.2576000000000001,-0.0887589869535324
-0.2586000000000001,-0.0887589869535324
-0.2596000000000001,-0.08877313406653106
-0.2606000000000001,-0.08874483984053375
-0.2616000000000001,-0.0886741042755405
-0.2626000000000001,-0.08863166293654455
-0.2636000000000001,-0.08860336871054725
-0.2646000000000001,-0.08863166293654455
-0.2656000000000001,-0.08865995716254185
-0.2666000000000001,-0.08863166293654455
-0.2676000000000001,-0.08861751582354589
-0.2686000000000001,-0.08860336871054725
-0.2696000000000001,-0.08860336871054725
-0.2706000000000001,-0.08861751582354589
-0.2716000000000001,-0.08860336871054725
-0.2726000000000001,-0.08861751582354589
-0.2736000000000001,-0.0886458100495432
-0.2746000000000001,-0.08868825138853914
-0.2756000000000001,-0.08874483984053375
-0.2766000000000001,-0.08868825138853914
-0.2776000000000001,-0.08868825138853914
-0.2786000000000001,-0.08868825138853914
-0.2796000000000001,-0.08871654561453644
-0.2806000000000001,-0.0887589869535324
-0.28160000000000013,-0.08873069272753512
-0.28260000000000013,-0.08873069272753512
-0.28360000000000013,-0.08865995716254185
-0.2846,-0.08868825138853914
-0.2856,-0.0887023985015378
-0.2866,-0.08873069272753512
-0.2876,-0.08873069272753512
-0.2886,-0.08871654561453644
-0.2896,-0.08882972251852565
-0.2906,-0.08891460519651756
-0.2916,-0.08885801674452294
-0.2926,-0.08888631097052026
-0.2936,-0.08894289942251486
-0.29460000000000003,-0.08897119364851215
-0.29560000000000003,-0.08897119364851215
-0.29660000000000003,-0.08898534076151081
-0.29760000000000003,-0.08901363498750811
-0.29860000000000003,-0.0890985176655
-0.29960000000000003,-0.08918340034349191
-0.30060000000000003,-0.08926828302148382
-0.30160000000000003,-0.08929657724748112
-0.30260000000000004,-0.08936731281247437
-0.30360000000000004,-0.08943804837746762
-0.30460000000000004,-0.08972099063744063
-0.30560000000000004,-0.08979172620243389
-0.30660000000000004,-0.08983416754142984
-0.30760000000000004,-0.08989075599342443
-0.30860000000000004,-0.08996149155841768
-0.30960000000000004,-0.09008881557540553
-0.31060000000000004,-0.09008881557540553
-0.31160000000000004,-0.09010296268840419
-0.31260000000000004,-0.09013125691440148
-0.31360000000000005,-0.0902161395923934
-0.31460000000000005,-0.09038590494837719
-0.31560000000000005,-0.09052737607836371
-0.31660000000000005,-0.09052737607836371
-0.31760000000000005,-0.090555670304361
-0.31860000000000005,-0.09059811164335696
-0.31960000000000005,-0.0907254356603448
-0.32060000000000005,-0.09089520101632861
-0.32160000000000005,-0.09096593658132186
-0.32260000000000005,-0.09102252503331647
-0.32360000000000005,-0.09122058461529756
-0.32460000000000006,-0.09129132018029082
-0.32560000000000006,-0.09130546729328948
-0.32660000000000006,-0.09134790863228542
-0.32760000000000006,-0.09146108553627462
-0.32860000000000006,-0.09154596821426653
-0.32960000000000006,-0.09164499800525706
-0.33060000000000006,-0.09189964603923279
-0.33160000000000006,-0.09199867583022334
-0.33260000000000006,-0.09215429407320849
-0.33360000000000006,-0.09229576520319499
-0.33460000000000006,-0.09242308922018284
-0.33560000000000006,-0.09259285457616664
-0.33660000000000007,-0.09276261993215046
-0.33760000000000007,-0.09293238528813427
-0.33860000000000007,-0.09304556219212347
-0.33960000000000007,-0.09315873909611266
-0.34060000000000007,-0.09328606311310052
-0.34160000000000007,-0.09344168135608567
-0.34260000000000007,-0.09362559382506812
-0.34360000000000007,-0.09375291784205599
-0.3446000000000001,-0.09399341876303305
-0.3456000000000001,-0.09410659566702224
-0.3466000000000001,-0.09416318411901684
-0.34759999999999996,-0.09436124370099794
-0.3486000000000001,-0.09451686194398311
-0.34959999999999997,-0.09481395131695476
-0.3506000000000001,-0.09508274646392911
-0.35159999999999997,-0.09537983583690077
-0.3526000000000001,-0.09564863098387513
-0.35359999999999997,-0.09574766077486568
-0.3546000000000001,-0.09597401458284409
-0.35559999999999997,-0.09615792705182655
-0.3566000000000001,-0.09629939818181305
-0.3576,-0.09655404621578875
-0.3586000000000001,-0.0967662529107685
-0.3596,-0.09697845960574826
-0.3606000000000001,-0.09726140186572127
-0.3616,-0.09738872588270912
-0.3626000000000001,-0.09762922680368619
-0.3636,-0.09782728638566728
-0.3646000000000001,-0.09811022864564029
-0.3656,-0.09837902379261465
-0.3666000000000001,-0.09856293626159711
-0.3676,-0.09884587852157012
-0.3686000000000001,-0.09915711500754042
-0.3696,-0.09949664571950805
-0.3706000000000001,-0.09982202931847699
-0.3716,-0.10002008890045809
-0.3726000000000001,-0.10017570714344325
-0.3736,-0.1005010907424122
-0.3746000000000001,-0.10075573877638791
-0.3756,-0.10106697526235821
-0.3766000000000001,-0.10133577040933257
-0.3776,-0.10160456555630692
-0.3786000000000001,-0.10184506647728399
-0.3796,-0.10217045007625294
-0.3806000000000001,-0.10245339233622595
-0.3816,-0.10266559903120571
-0.3826000000000001,-0.10293439417818008
-0.3836,-0.10324563066415038
-0.3846000000000001,-0.10355686715012069
-0.3856,-0.10386810363609099
-0.3866000000000001,-0.10419348723505996
-0.3876,-0.10449057660803161
-0.3886000000000001,-0.10481596020700056
-0.3896,-0.10518378514496549
-0.3906000000000001,-0.10552331585693309
-0.3916,-0.1059477292468926
-0.3926000000000001,-0.10620237728086832
-0.3936,-0.10649946665383996
-0.3946000000000001,-0.10689558581780217
-0.3956,-0.10726341075576709
-0.3966000000000001,-0.10756050012873873
-0.3976,-0.10801320774469556
-0.3986000000000001,-0.10838103268266046
-0.3996,-0.10873471050762673
-0.4006000000000001,-0.10915912389758622
-0.4016,-0.10955524306154844
-0.4026000000000001,-0.1099089208865147
-0.4036,-0.11029089293747825
-0.4046000000000001,-0.11072945344043642
-0.4056,-0.11109727837840132
-0.40660000000000013,-0.11139436775137299
-0.4076,-0.1117904869153352
-0.40860000000000013,-0.11227148875728932
-0.4096,-0.11266760792125154
-0.41060000000000013,-0.11307787419821237
-0.4116,-0.11350228758817188
-0.41260000000000013,-0.1138984067521341
-0.4136,-0.11443599704608282
-0.41460000000000014,-0.11491699888803693
-0.4156,-0.11534141227799644
-0.41660000000000014,-0.1157799727809546
-0.4176,-0.1161195034929222
-0.41860000000000014,-0.11648732843088712
-0.41960000000000003,-0.11706736006383177
-0.42060000000000014,-0.11752006767978859
-0.42160000000000003,-0.11804351086073867
-0.42260000000000014,-0.11851036558969412
-0.42360000000000003,-0.11875086651067117
-0.42460000000000014,-0.11930260391761856
-0.42560000000000003,-0.11976945864657401
-0.42660000000000015,-0.12029290182752407
-0.42760000000000004,-0.12078805078247684
-0.42860000000000015,-0.12115587572044173
-0.42960000000000004,-0.12160858333639855
-0.43060000000000015,-0.12214617363034727
-0.43160000000000004,-0.12259888124630408
-0.43260000000000015,-0.12295255907127035
-0.43360000000000004,-0.12334867823523256
-0.43460000000000015,-0.12392870986817722
-0.43560000000000004,-0.12470680108310296
-0.43660000000000015,-0.12513121447306247
