Mar. 6, 2025   01:31:28
Cyclic Voltammetry
File: c:/users/guazh/data/banditlqround7_x0exp169_r20_3/2025-03-03-exp883\exp883-2025-03-06t01_20_33-h2koh\exp883_cv_sr_500mvs_efin_-1500mv.bin
Data Source:  Experiment
Instrument Model:  CHI760E
Header: CV ran at 500 mVs
Note: 

Init E (V) = -1
High E (V) = -1
Low E (V) = -1.5
Final E (V) = -1
Init P/N = N
Scan Rate (V/s) = 0.5
Segment = 3
Sample Interval (V) = 0.001
Quiet Time (sec) = 2
Sensitivity (A/V) = 0.01
Comp R (ohm) = 1.3

Results:

Channel 1:
Segment 1:

Segment 2:

Segment 3:

Potential/V, Current/A

-1.000, 2.790e-5
-1.001, 9.573e-5
-1.002, 1.296e-4
-1.003, 1.543e-4
-1.004, 1.697e-4
-1.005, 1.790e-4
-1.006, 1.851e-4
-1.007, 1.913e-4
-1.008, 1.944e-4
-1.009, 1.975e-4
-1.010, 2.006e-4
-1.011, 2.036e-4
-1.012, 2.067e-4
-1.013, 2.067e-4
-1.014, 2.098e-4
-1.015, 2.098e-4
-1.016, 2.098e-4
-1.017, 2.098e-4
-1.018, 2.129e-4
-1.019, 2.129e-4
-1.020, 2.191e-4
-1.021, 2.160e-4
-1.022, 2.160e-4
-1.023, 2.160e-4
-1.024, 2.160e-4
-1.025, 2.160e-4
-1.026, 2.191e-4
-1.027, 2.191e-4
-1.028, 2.221e-4
-1.029, 2.221e-4
-1.030, 2.221e-4
-1.031, 2.221e-4
-1.032, 2.221e-4
-1.033, 2.221e-4
-1.034, 2.221e-4
-1.035, 2.221e-4
-1.036, 2.252e-4
-1.037, 2.252e-4
-1.038, 2.252e-4
-1.039, 2.252e-4
-1.040, 2.221e-4
-1.041, 2.221e-4
-1.042, 2.252e-4
-1.043, 2.252e-4
-1.044, 2.283e-4
-1.045, 2.283e-4
-1.046, 2.283e-4
-1.047, 2.283e-4
-1.048, 2.252e-4
-1.049, 2.252e-4
-1.050, 2.252e-4
-1.051, 2.283e-4
-1.052, 2.283e-4
-1.053, 2.283e-4
-1.054, 2.314e-4
-1.055, 2.314e-4
-1.056, 2.314e-4
-1.057, 2.314e-4
-1.058, 2.314e-4
-1.059, 2.314e-4
-1.060, 2.345e-4
-1.061, 2.345e-4
-1.062, 2.345e-4
-1.063, 2.345e-4
-1.064, 2.345e-4
-1.065, 2.314e-4
-1.066, 2.314e-4
-1.067, 2.314e-4
-1.068, 2.345e-4
-1.069, 2.345e-4
-1.070, 2.376e-4
-1.071, 2.376e-4
-1.072, 2.376e-4
-1.073, 2.376e-4
-1.074, 2.345e-4
-1.075, 2.376e-4
-1.076, 2.376e-4
-1.077, 2.406e-4
-1.078, 2.406e-4
-1.079, 2.406e-4
-1.080, 2.406e-4
-1.081, 2.376e-4
-1.082, 2.376e-4
-1.083, 2.376e-4
-1.084, 2.376e-4
-1.085, 2.406e-4
-1.086, 2.406e-4
-1.087, 2.437e-4
-1.088, 2.437e-4
-1.089, 2.437e-4
-1.090, 2.406e-4
-1.091, 2.406e-4
-1.092, 2.406e-4
-1.093, 2.406e-4
-1.094, 2.437e-4
-1.095, 2.437e-4
-1.096, 2.468e-4
-1.097, 2.437e-4
-1.098, 2.437e-4
-1.099, 2.437e-4
-1.100, 2.437e-4
-1.101, 2.437e-4
-1.102, 2.468e-4
-1.103, 2.468e-4
-1.104, 2.468e-4
-1.105, 2.468e-4
-1.106, 2.468e-4
-1.107, 2.468e-4
-1.108, 2.468e-4
-1.109, 2.468e-4
-1.110, 2.499e-4
-1.111, 2.499e-4
-1.112, 2.499e-4
-1.113, 2.530e-4
-1.114, 2.499e-4
-1.115, 2.499e-4
-1.116, 2.499e-4
-1.117, 2.499e-4
-1.118, 2.530e-4
-1.119, 2.530e-4
-1.120, 2.530e-4
-1.121, 2.561e-4
-1.122, 2.530e-4
-1.123, 2.530e-4
-1.124, 2.530e-4
-1.125, 2.530e-4
-1.126, 2.530e-4
-1.127, 2.561e-4
-1.128, 2.591e-4
-1.129, 2.591e-4
-1.130, 2.591e-4
-1.131, 2.561e-4
-1.132, 2.561e-4
-1.133, 2.561e-4
-1.134, 2.561e-4
-1.135, 2.591e-4
-1.136, 2.591e-4
-1.137, 2.622e-4
-1.138, 2.591e-4
-1.139, 2.591e-4
-1.140, 2.591e-4
-1.141, 2.591e-4
-1.142, 2.591e-4
-1.143, 2.622e-4
-1.144, 2.622e-4
-1.145, 2.653e-4
-1.146, 2.653e-4
-1.147, 2.653e-4
-1.148, 2.653e-4
-1.149, 2.622e-4
-1.150, 2.653e-4
-1.151, 2.653e-4
-1.152, 2.684e-4
-1.153, 2.684e-4
-1.154, 2.684e-4
-1.155, 2.684e-4
-1.156, 2.684e-4
-1.157, 2.684e-4
-1.158, 2.684e-4
-1.159, 2.684e-4
-1.160, 2.715e-4
-1.161, 2.746e-4
-1.162, 2.746e-4
-1.163, 2.746e-4
-1.164, 2.746e-4
-1.165, 2.715e-4
-1.166, 2.715e-4
-1.167, 2.746e-4
-1.168, 2.746e-4
-1.169, 2.776e-4
-1.170, 2.807e-4
-1.171, 2.807e-4
-1.172, 2.776e-4
-1.173, 2.776e-4
-1.174, 2.776e-4
-1.175, 2.776e-4
-1.176, 2.776e-4
-1.177, 2.807e-4
-1.178, 2.838e-4
-1.179, 2.838e-4
-1.180, 2.838e-4
-1.181, 2.838e-4
-1.182, 2.838e-4
-1.183, 2.838e-4
-1.184, 2.838e-4
-1.185, 2.869e-4
-1.186, 2.900e-4
-1.187, 2.869e-4
-1.188, 2.869e-4
-1.189, 2.869e-4
-1.190, 2.900e-4
-1.191, 2.869e-4
-1.192, 2.869e-4
-1.193, 2.900e-4
-1.194, 2.931e-4
-1.195, 2.931e-4
-1.196, 2.961e-4
-1.197, 2.931e-4
-1.198, 2.931e-4
-1.199, 2.931e-4
-1.200, 2.931e-4
-1.201, 2.931e-4
-1.202, 2.961e-4
-1.203, 2.961e-4
-1.204, 2.992e-4
-1.205, 2.992e-4
-1.206, 2.992e-4
-1.207, 2.992e-4
-1.208, 2.992e-4
-1.209, 2.992e-4
-1.210, 2.992e-4
-1.211, 3.023e-4
-1.212, 3.054e-4
-1.213, 3.054e-4
-1.214, 3.023e-4
-1.215, 3.023e-4
-1.216, 3.023e-4
-1.217, 3.023e-4
-1.218, 3.054e-4
-1.219, 3.054e-4
-1.220, 3.085e-4
-1.221, 3.085e-4
-1.222, 3.085e-4
-1.223, 3.085e-4
-1.224, 3.085e-4
-1.225, 3.085e-4
-1.226, 3.115e-4
-1.227, 3.146e-4
-1.228, 3.146e-4
-1.229, 3.177e-4
-1.230, 3.177e-4
-1.231, 3.146e-4
-1.232, 3.146e-4
-1.233, 3.146e-4
-1.234, 3.146e-4
-1.235, 3.177e-4
-1.236, 3.208e-4
-1.237, 3.208e-4
-1.238, 3.208e-4
-1.239, 3.208e-4
-1.240, 3.208e-4
-1.241, 3.208e-4
-1.242, 3.208e-4
-1.243, 3.239e-4
-1.244, 3.270e-4
-1.245, 3.270e-4
-1.246, 3.270e-4
-1.247, 3.270e-4
-1.248, 3.270e-4
-1.249, 3.270e-4
-1.250, 3.270e-4
-1.251, 3.300e-4
-1.252, 3.331e-4
-1.253, 3.331e-4
-1.254, 3.362e-4
-1.255, 3.362e-4
-1.256, 3.362e-4
-1.257, 3.362e-4
-1.258, 3.362e-4
-1.259, 3.393e-4
-1.260, 3.393e-4
-1.261, 3.424e-4
-1.262, 3.455e-4
-1.263, 3.455e-4
-1.264, 3.455e-4
-1.265, 3.455e-4
-1.266, 3.485e-4
-1.267, 3.485e-4
-1.268, 3.516e-4
-1.269, 3.547e-4
-1.270, 3.578e-4
-1.271, 3.578e-4
-1.272, 3.578e-4
-1.273, 3.609e-4
-1.274, 3.578e-4
-1.275, 3.609e-4
-1.276, 3.640e-4
-1.277, 3.670e-4
-1.278, 3.701e-4
-1.279, 3.732e-4
-1.280, 3.763e-4
-1.281, 3.763e-4
-1.282, 3.763e-4
-1.283, 3.794e-4
-1.284, 3.825e-4
-1.285, 3.855e-4
-1.286, 3.886e-4
-1.287, 3.917e-4
-1.288, 3.948e-4
-1.289, 3.948e-4
-1.290, 3.979e-4
-1.291, 4.010e-4
-1.292, 4.040e-4
-1.293, 4.102e-4
-1.294, 4.133e-4
-1.295, 4.164e-4
-1.296, 4.195e-4
-1.297, 4.225e-4
-1.298, 4.256e-4
-1.299, 4.287e-4
-1.300, 4.318e-4
-1.301, 4.349e-4
-1.302, 4.410e-4
-1.303, 4.472e-4
-1.304, 4.503e-4
-1.305, 4.534e-4
-1.306, 4.595e-4
-1.307, 4.626e-4
-1.308, 4.657e-4
-1.309, 4.719e-4
-1.310, 4.780e-4
-1.311, 4.842e-4
-1.312, 4.904e-4
-1.313, 4.965e-4
-1.314, 4.996e-4
-1.315, 5.027e-4
-1.316, 5.120e-4
-1.317, 5.150e-4
-1.318, 5.243e-4
-1.319, 5.305e-4
-1.320, 5.397e-4
-1.321, 5.459e-4
-1.322, 5.520e-4
-1.323, 5.582e-4
-1.324, 5.644e-4
-1.325, 5.736e-4
-1.326, 5.798e-4
-1.327, 5.890e-4
-1.328, 5.983e-4
-1.329, 6.075e-4
-1.330, 6.168e-4
-1.331, 6.260e-4
-1.332, 6.353e-4
-1.333, 6.445e-4
-1.334, 6.569e-4
-1.335, 6.661e-4
-1.336, 6.784e-4
-1.337, 6.908e-4
-1.338, 7.000e-4
-1.339, 7.124e-4
-1.340, 7.216e-4
-1.341, 7.339e-4
-1.342, 7.494e-4
-1.343, 7.617e-4
-1.344, 7.771e-4
-1.345, 7.925e-4
-1.346, 8.048e-4
-1.347, 8.203e-4
-1.348, 8.357e-4
-1.349, 8.511e-4
-1.350, 8.665e-4
-1.351, 8.850e-4
-1.352, 9.035e-4
-1.353, 9.220e-4
-1.354, 9.405e-4
-1.355, 9.590e-4
-1.356, 9.806e-4
-1.357, 1.002e-3
-1.358, 1.024e-3
-1.359, 1.048e-3
-1.360, 1.073e-3
-1.361, 1.098e-3
-1.362, 1.122e-3
-1.363, 1.150e-3
-1.364, 1.175e-3
-1.365, 1.203e-3
-1.366, 1.233e-3
-1.367, 1.264e-3
-1.368, 1.301e-3
-1.369, 1.335e-3
-1.370, 1.369e-3
-1.371, 1.406e-3
-1.372, 1.443e-3
-1.373, 1.480e-3
-1.374, 1.523e-3
-1.375, 1.566e-3
-1.376, 1.613e-3
-1.377, 1.662e-3
-1.378, 1.711e-3
-1.379, 1.767e-3
-1.380, 1.822e-3
-1.381, 1.878e-3
-1.382, 1.936e-3
-1.383, 1.998e-3
-1.384, 2.063e-3
-1.385, 2.131e-3
-1.386, 2.201e-3
-1.387, 2.275e-3
-1.388, 2.353e-3
-1.389, 2.430e-3
-1.390, 2.510e-3
-1.391, 2.590e-3
-1.392, 2.673e-3
-1.393, 2.756e-3
-1.394, 2.843e-3
-1.395, 2.932e-3
-1.396, 3.022e-3
-1.397, 3.111e-3
-1.398, 3.200e-3
-1.399, 3.290e-3
-1.400, 3.379e-3
-1.401, 3.472e-3
-1.402, 3.564e-3
-1.403, 3.654e-3
-1.404, 3.743e-3
-1.405, 3.829e-3
-1.406, 3.916e-3
-1.407, 4.005e-3
-1.408, 4.088e-3
-1.409, 4.175e-3
-1.410, 4.255e-3
-1.411, 4.338e-3
-1.412, 4.412e-3
-1.413, 4.486e-3
-1.414, 4.557e-3
-1.415, 4.622e-3
-1.416, 4.696e-3
-1.417, 4.776e-3
-1.418, 4.862e-3
-1.419, 4.945e-3
-1.420, 5.026e-3
-1.421, 5.103e-3
-1.422, 5.186e-3
-1.423, 5.269e-3
-1.424, 5.352e-3
-1.425, 5.426e-3
-1.426, 5.500e-3
-1.427, 5.574e-3
-1.428, 5.645e-3
-1.429, 5.713e-3
-1.430, 5.772e-3
-1.431, 5.830e-3
-1.432, 5.898e-3
-1.433, 5.969e-3
-1.434, 6.040e-3
-1.435, 6.111e-3
-1.436, 6.182e-3
-1.437, 6.253e-3
-1.438, 6.333e-3
-1.439, 6.419e-3
-1.440, 6.502e-3
-1.441, 6.586e-3
-1.442, 6.669e-3
-1.443, 6.746e-3
-1.444, 6.823e-3
-1.445, 6.903e-3
-1.446, 6.977e-3
-1.447, 7.048e-3
-1.448, 7.116e-3
-1.449, 7.187e-3
-1.450, 7.258e-3
-1.451, 7.332e-3
-1.452, 7.406e-3
-1.453, 7.480e-3
-1.454, 7.557e-3
-1.455, 7.631e-3
-1.456, 7.705e-3
-1.457, 7.776e-3
-1.458, 7.850e-3
-1.459, 7.918e-3
-1.460, 7.976e-3
-1.461, 8.041e-3
-1.462, 8.106e-3
-1.463, 8.177e-3
-1.464, 8.247e-3
-1.465, 8.318e-3
-1.466, 8.389e-3
-1.467, 8.442e-3
-1.468, 8.506e-3
-1.469, 8.568e-3
-1.470, 8.636e-3
-1.471, 8.704e-3
-1.472, 8.772e-3
-1.473, 8.852e-3
-1.474, 8.926e-3
-1.475, 9.000e-3
-1.476, 9.071e-3
-1.477, 9.148e-3
-1.478, 9.228e-3
-1.479, 9.305e-3
-1.480, 9.385e-3
-1.481, 9.468e-3
-1.482, 9.545e-3
-1.483, 9.616e-3
-1.484, 9.709e-3
-1.485, 9.795e-3
-1.486, 9.875e-3
-1.487, 9.946e-3
-1.488, 1.002e-2
-1.489, 1.008e-2
-1.490, 1.016e-2
-1.491, 1.023e-2
-1.492, 1.032e-2
-1.493, 1.039e-2
-1.494, 1.048e-2
-1.495, 1.055e-2
-1.496, 1.064e-2
-1.497, 1.072e-2
-1.498, 1.080e-2
-1.499, 1.087e-2
-1.500, 1.088e-2
-1.499, 1.078e-2
-1.498, 1.069e-2
-1.497, 1.060e-2
-1.496, 1.050e-2
-1.495, 1.041e-2
-1.494, 1.033e-2
-1.493, 1.025e-2
-1.492, 1.018e-2
-1.491, 1.009e-2
-1.490, 1.002e-2
-1.489, 9.937e-3
-1.488, 9.851e-3
-1.487, 9.767e-3
-1.486, 9.675e-3
-1.485, 9.586e-3
-1.484, 9.490e-3
-1.483, 9.397e-3
-1.482, 9.308e-3
-1.481, 9.222e-3
-1.480, 9.138e-3
-1.479, 9.064e-3
-1.478, 8.994e-3
-1.477, 8.917e-3
-1.476, 8.833e-3
-1.475, 8.741e-3
-1.474, 8.651e-3
-1.473, 8.574e-3
-1.472, 8.485e-3
-1.471, 8.392e-3
-1.470, 8.300e-3
-1.469, 8.217e-3
-1.468, 8.127e-3
-1.467, 8.050e-3
-1.466, 7.967e-3
-1.465, 7.890e-3
-1.464, 7.834e-3
-1.463, 7.776e-3
-1.462, 7.714e-3
-1.461, 7.649e-3
-1.460, 7.572e-3
-1.459, 7.486e-3
-1.458, 7.390e-3
-1.457, 7.301e-3
-1.456, 7.199e-3
-1.455, 7.097e-3
-1.454, 7.020e-3
-1.453, 6.956e-3
-1.452, 6.897e-3
-1.451, 6.842e-3
-1.450, 6.783e-3
-1.449, 6.724e-3
-1.448, 6.666e-3
-1.447, 6.598e-3
-1.446, 6.524e-3
-1.445, 6.444e-3
-1.444, 6.373e-3
-1.443, 6.293e-3
-1.442, 6.228e-3
-1.441, 6.154e-3
-1.440, 6.086e-3
-1.439, 6.031e-3
-1.438, 5.978e-3
-1.437, 5.917e-3
-1.436, 5.849e-3
-1.435, 5.781e-3
-1.434, 5.707e-3
-1.433, 5.630e-3
-1.432, 5.547e-3
-1.431, 5.467e-3
-1.430, 5.393e-3
-1.429, 5.328e-3
-1.428, 5.260e-3
-1.427, 5.198e-3
-1.426, 5.134e-3
-1.425, 5.069e-3
-1.424, 5.013e-3
-1.423, 4.970e-3
-1.422, 4.905e-3
-1.421, 4.847e-3
-1.420, 4.782e-3
-1.419, 4.717e-3
-1.418, 4.649e-3
-1.417, 4.582e-3
-1.416, 4.520e-3
-1.415, 4.455e-3
-1.414, 4.397e-3
-1.413, 4.338e-3
-1.412, 4.276e-3
-1.411, 4.215e-3
-1.410, 4.156e-3
-1.409, 4.095e-3
-1.408, 4.036e-3
-1.407, 3.984e-3
-1.406, 3.925e-3
-1.405, 3.866e-3
-1.404, 3.808e-3
-1.403, 3.752e-3
-1.402, 3.694e-3
-1.401, 3.638e-3
-1.400, 3.586e-3
-1.399, 3.530e-3
-1.398, 3.475e-3
-1.397, 3.422e-3
-1.396, 3.370e-3
-1.395, 3.314e-3
-1.394, 3.262e-3
-1.393, 3.207e-3
-1.392, 3.151e-3
-1.391, 3.102e-3
-1.390, 3.046e-3
-1.389, 2.997e-3
-1.388, 2.945e-3
-1.387, 2.895e-3
-1.386, 2.855e-3
-1.385, 2.803e-3
-1.384, 2.756e-3
-1.383, 2.707e-3
-1.382, 2.664e-3
-1.381, 2.618e-3
-1.380, 2.571e-3
-1.379, 2.525e-3
-1.378, 2.482e-3
-1.377, 2.436e-3
-1.376, 2.390e-3
-1.375, 2.349e-3
-1.374, 2.303e-3
-1.373, 2.263e-3
-1.372, 2.220e-3
-1.371, 2.180e-3
-1.370, 2.140e-3
-1.369, 2.097e-3
-1.368, 2.057e-3
-1.367, 2.013e-3
-1.366, 1.973e-3
-1.365, 1.936e-3
-1.364, 1.896e-3
-1.363, 1.856e-3
-1.362, 1.816e-3
-1.361, 1.779e-3
-1.360, 1.742e-3
-1.359, 1.705e-3
-1.358, 1.668e-3
-1.357, 1.634e-3
-1.356, 1.600e-3
-1.355, 1.566e-3
-1.354, 1.532e-3
-1.353, 1.499e-3
-1.352, 1.465e-3
-1.351, 1.431e-3
-1.350, 1.400e-3
-1.349, 1.369e-3
-1.348, 1.335e-3
-1.347, 1.307e-3
-1.346, 1.277e-3
-1.345, 1.246e-3
-1.344, 1.215e-3
-1.343, 1.187e-3
-1.342, 1.159e-3
-1.341, 1.132e-3
-1.340, 1.104e-3
-1.339, 1.079e-3
-1.338, 1.051e-3
-1.337, 1.024e-3
-1.336, 9.991e-4
-1.335, 9.713e-4
-1.334, 9.467e-4
-1.333, 9.220e-4
-1.332, 9.004e-4
-1.331, 8.788e-4
-1.330, 8.542e-4
-1.329, 8.357e-4
-1.328, 8.110e-4
-1.327, 7.863e-4
-1.326, 7.648e-4
-1.325, 7.432e-4
-1.324, 7.216e-4
-1.323, 7.031e-4
-1.322, 6.846e-4
-1.321, 6.661e-4
-1.320, 6.476e-4
-1.319, 6.291e-4
-1.318, 6.075e-4
-1.317, 5.890e-4
-1.316, 5.705e-4
-1.315, 5.551e-4
-1.314, 5.397e-4
-1.313, 5.212e-4
-1.312, 5.058e-4
-1.311, 4.873e-4
-1.310, 4.719e-4
-1.309, 4.565e-4
-1.308, 4.410e-4
-1.307, 4.256e-4
-1.306, 4.133e-4
-1.305, 4.010e-4
-1.304, 3.855e-4
-1.303, 3.701e-4
-1.302, 3.547e-4
-1.301, 3.424e-4
-1.300, 3.300e-4
-1.299, 3.177e-4
-1.298, 3.054e-4
-1.297, 2.931e-4
-1.296, 2.838e-4
-1.295, 2.715e-4
-1.294, 2.591e-4
-1.293, 2.468e-4
-1.292, 2.376e-4
-1.291, 2.283e-4
-1.290, 2.191e-4
-1.289, 2.098e-4
-1.288, 2.006e-4
-1.287, 1.882e-4
-1.286, 1.821e-4
-1.285, 1.697e-4
-1.284, 1.605e-4
-1.283, 1.512e-4
-1.282, 1.451e-4
-1.281, 1.389e-4
-1.280, 1.296e-4
-1.279, 1.204e-4
-1.278, 1.142e-4
-1.277, 1.050e-4
-1.276, 9.882e-5
-1.275, 8.957e-5
-1.274, 8.340e-5
-1.273, 7.723e-5
-1.272, 7.415e-5
-1.271, 6.490e-5
-1.270, 5.873e-5
-1.269, 5.257e-5
-1.268, 4.640e-5
-1.267, 4.024e-5
-1.266, 3.407e-5
-1.265, 3.099e-5
-1.264, 2.482e-5
-1.263, 2.174e-5
-1.262, 1.249e-5
-1.261, 6.322e-6
-1.260, 1.559e-7
-1.259, -2.927e-6
-1.258, -9.093e-6
-1.257, -1.218e-5
-1.256, -1.526e-5
-1.255, -2.143e-5
-1.254, -2.451e-5
-1.253, -2.759e-5
-1.252, -3.376e-5
-1.251, -3.684e-5
-1.250, -4.301e-5
-1.249, -4.609e-5
-1.248, -4.917e-5
-1.247, -5.226e-5
-1.246, -5.534e-5
-1.245, -6.151e-5
-1.244, -6.459e-5
-1.243, -6.767e-5
-1.242, -7.076e-5
-1.241, -7.384e-5
-1.240, -7.692e-5
-1.239, -8.000e-5
-1.238, -8.309e-5
-1.237, -8.617e-5
-1.236, -8.925e-5
-1.235, -9.234e-5
-1.234, -9.542e-5
-1.233, -9.850e-5
-1.232, -1.016e-4
-1.231, -1.016e-4
-1.230, -1.047e-4
-1.229, -1.078e-4
-1.228, -1.108e-4
-1.227, -1.139e-4
-1.226, -1.170e-4
-1.225, -1.201e-4
-1.224, -1.201e-4
-1.223, -1.232e-4
-1.222, -1.232e-4
-1.221, -1.263e-4
-1.220, -1.293e-4
-1.219, -1.324e-4
-1.218, -1.324e-4
-1.217, -1.355e-4
-1.216, -1.355e-4
-1.215, -1.386e-4
-1.214, -1.386e-4
-1.213, -1.417e-4
-1.212, -1.448e-4
-1.211, -1.478e-4
-1.210, -1.478e-4
-1.209, -1.509e-4
-1.208, -1.509e-4
-1.207, -1.509e-4
-1.206, -1.540e-4
-1.205, -1.540e-4
-1.204, -1.571e-4
-1.203, -1.602e-4
-1.202, -1.602e-4
-1.201, -1.632e-4
-1.200, -1.632e-4
-1.199, -1.663e-4
-1.198, -1.663e-4
-1.197, -1.663e-4
-1.196, -1.694e-4
-1.195, -1.694e-4
-1.194, -1.725e-4
-1.193, -1.756e-4
-1.192, -1.756e-4
-1.191, -1.787e-4
-1.190, -1.787e-4
-1.189, -1.787e-4
-1.188, -1.787e-4
-1.187, -1.787e-4
-1.186, -1.817e-4
-1.185, -1.848e-4
-1.184, -1.848e-4
-1.183, -1.879e-4
-1.182, -1.879e-4
-1.181, -1.879e-4
-1.180, -1.879e-4
-1.179, -1.910e-4
-1.178, -1.941e-4
-1.177, -1.941e-4
-1.176, -1.972e-4
-1.175, -1.972e-4
-1.174, -1.972e-4
-1.173, -1.972e-4
-1.172, -1.972e-4
-1.171, -1.972e-4
-1.170, -2.002e-4
-1.169, -2.033e-4
-1.168, -2.033e-4
-1.167, -2.064e-4
-1.166, -2.064e-4
-1.165, -2.064e-4
-1.164, -2.064e-4
-1.163, -2.064e-4
-1.162, -2.064e-4
-1.161, -2.095e-4
-1.160, -2.157e-4
-1.159, -2.157e-4
-1.158, -2.157e-4
-1.157, -2.157e-4
-1.156, -2.126e-4
-1.155, -2.126e-4
-1.154, -2.157e-4
-1.153, -2.157e-4
-1.152, -2.187e-4
-1.151, -2.218e-4
-1.150, -2.218e-4
-1.149, -2.218e-4
-1.148, -2.218e-4
-1.147, -2.218e-4
-1.146, -2.218e-4
-1.145, -2.218e-4
-1.144, -2.249e-4
-1.143, -2.280e-4
-1.142, -2.280e-4
-1.141, -2.280e-4
-1.140, -2.280e-4
-1.139, -2.280e-4
-1.138, -2.280e-4
-1.137, -2.311e-4
-1.136, -2.311e-4
-1.135, -2.342e-4
-1.134, -2.342e-4
-1.133, -2.342e-4
-1.132, -2.342e-4
-1.131, -2.342e-4
-1.130, -2.372e-4
-1.129, -2.342e-4
-1.128, -2.372e-4
-1.127, -2.403e-4
-1.126, -2.403e-4
-1.125, -2.403e-4
-1.124, -2.403e-4
-1.123, -2.403e-4
-1.122, -2.403e-4
-1.121, -2.403e-4
-1.120, -2.434e-4
-1.119, -2.434e-4
-1.118, -2.465e-4
-1.117, -2.465e-4
-1.116, -2.465e-4
-1.115, -2.465e-4
-1.114, -2.465e-4
-1.113, -2.465e-4
-1.112, -2.465e-4
-1.111, -2.496e-4
-1.110, -2.527e-4
-1.109, -2.527e-4
-1.108, -2.527e-4
-1.107, -2.496e-4
-1.106, -2.496e-4
-1.105, -2.527e-4
-1.104, -2.496e-4
-1.103, -2.527e-4
-1.102, -2.557e-4
-1.101, -2.557e-4
-1.100, -2.588e-4
-1.099, -2.557e-4
-1.098, -2.557e-4
-1.097, -2.557e-4
-1.096, -2.557e-4
-1.095, -2.557e-4
-1.094, -2.588e-4
-1.093, -2.619e-4
-1.092, -2.619e-4
-1.091, -2.619e-4
-1.090, -2.619e-4
-1.089, -2.619e-4
-1.088, -2.588e-4
-1.087, -2.619e-4
-1.086, -2.619e-4
-1.085, -2.650e-4
-1.084, -2.650e-4
-1.083, -2.650e-4
-1.082, -2.650e-4
-1.081, -2.650e-4
-1.080, -2.650e-4
-1.079, -2.650e-4
-1.078, -2.681e-4
-1.077, -2.681e-4
-1.076, -2.712e-4
-1.075, -2.712e-4
-1.074, -2.712e-4
-1.073, -2.712e-4
-1.072, -2.681e-4
-1.071, -2.681e-4
-1.070, -2.712e-4
-1.069, -2.712e-4
-1.068, -2.742e-4
-1.067, -2.742e-4
-1.066, -2.742e-4
-1.065, -2.742e-4
-1.064, -2.712e-4
-1.063, -2.742e-4
-1.062, -2.742e-4
-1.061, -2.742e-4
-1.060, -2.742e-4
-1.059, -2.773e-4
-1.058, -2.773e-4
-1.057, -2.773e-4
-1.056, -2.773e-4
-1.055, -2.773e-4
-1.054, -2.773e-4
-1.053, -2.773e-4
-1.052, -2.804e-4
-1.051, -2.804e-4
-1.050, -2.835e-4
-1.049, -2.804e-4
-1.048, -2.804e-4
-1.047, -2.804e-4
-1.046, -2.804e-4
-1.045, -2.804e-4
-1.044, -2.835e-4
-1.043, -2.835e-4
-1.042, -2.866e-4
-1.041, -2.866e-4
-1.040, -2.835e-4
-1.039, -2.835e-4
-1.038, -2.866e-4
-1.037, -2.866e-4
-1.036, -2.866e-4
-1.035, -2.897e-4
-1.034, -2.897e-4
-1.033, -2.897e-4
-1.032, -2.897e-4
-1.031, -2.897e-4
-1.030, -2.866e-4
-1.029, -2.866e-4
-1.028, -2.897e-4
-1.027, -2.927e-4
-1.026, -2.927e-4
-1.025, -2.927e-4
-1.024, -2.958e-4
-1.023, -2.927e-4
-1.022, -2.927e-4
-1.021, -2.927e-4
-1.020, -2.958e-4
-1.019, -2.958e-4
-1.018, -2.989e-4
-1.017, -2.989e-4
-1.016, -2.989e-4
-1.015, -2.989e-4
-1.014, -2.989e-4
-1.013, -2.989e-4
-1.012, -3.020e-4
-1.011, -3.020e-4
-1.010, -3.051e-4
-1.009, -3.051e-4
-1.008, -3.051e-4
-1.007, -3.051e-4
-1.006, -3.051e-4
-1.005, -3.051e-4
-1.004, -3.051e-4
-1.003, -3.051e-4
-1.002, -3.082e-4
-1.001, -3.112e-4
