Mar. 7, 2025   21:33:33
Cyclic Voltammetry
File: c:/users/guazh/data/banditlqround7_x0exp169_r20_3/2025-03-03-exp902\exp902-2025-03-07t21_22_15-arkoh\exp902_cv_sr_600mvs_efin_-1500mv.bin
Data Source:  Experiment
Instrument Model:  CHI760E
Header: CV ran at 600 mVs
Note: 

Init E (V) = -1
High E (V) = -1
Low E (V) = -1.5
Final E (V) = -1
Init P/N = N
Scan Rate (V/s) = 0.6
Segment = 3
Sample Interval (V) = 0.001
Quiet Time (sec) = 2
Sensitivity (A/V) = 0.01
Comp R (ohm) = 1.1

Results:

Channel 1:
Segment 1:
Ep = -1.395V
ip = 3.707e-3A
Ah = 7.383e-4C

Segment 2:

Segment 3:

Potential/V, Current/A

-1.000, -1.064e-3
-1.001, -9.371e-4
-1.002, -8.200e-4
-1.003, -7.059e-4
-1.004, -6.011e-4
-1.005, -4.993e-4
-1.006, -4.006e-4
-1.007, -3.051e-4
-1.008, -2.187e-4
-1.009, -1.293e-4
-1.010, -4.917e-5
-1.011, 2.790e-5
-1.012, 1.019e-4
-1.013, 1.759e-4
-1.014, 2.437e-4
-1.015, 3.146e-4
-1.016, 3.855e-4
-1.017, 4.503e-4
-1.018, 5.150e-4
-1.019, 5.767e-4
-1.020, 6.353e-4
-1.021, 6.908e-4
-1.022, 7.463e-4
-1.023, 7.987e-4
-1.024, 8.542e-4
-1.025, 9.097e-4
-1.026, 9.590e-4
-1.027, 1.014e-3
-1.028, 1.064e-3
-1.029, 1.110e-3
-1.030, 1.156e-3
-1.031, 1.199e-3
-1.032, 1.243e-3
-1.033, 1.286e-3
-1.034, 1.326e-3
-1.035, 1.369e-3
-1.036, 1.412e-3
-1.037, 1.455e-3
-1.038, 1.499e-3
-1.039, 1.539e-3
-1.040, 1.573e-3
-1.041, 1.610e-3
-1.042, 1.643e-3
-1.043, 1.680e-3
-1.044, 1.717e-3
-1.045, 1.754e-3
-1.046, 1.788e-3
-1.047, 1.825e-3
-1.048, 1.862e-3
-1.049, 1.896e-3
-1.050, 1.927e-3
-1.051, 1.958e-3
-1.052, 1.989e-3
-1.053, 2.017e-3
-1.054, 2.044e-3
-1.055, 2.078e-3
-1.056, 2.109e-3
-1.057, 2.140e-3
-1.058, 2.171e-3
-1.059, 2.205e-3
-1.060, 2.232e-3
-1.061, 2.260e-3
-1.062, 2.285e-3
-1.063, 2.309e-3
-1.064, 2.334e-3
-1.065, 2.365e-3
-1.066, 2.399e-3
-1.067, 2.430e-3
-1.068, 2.457e-3
-1.069, 2.485e-3
-1.070, 2.510e-3
-1.071, 2.538e-3
-1.072, 2.562e-3
-1.073, 2.587e-3
-1.074, 2.612e-3
-1.075, 2.639e-3
-1.076, 2.667e-3
-1.077, 2.695e-3
-1.078, 2.723e-3
-1.079, 2.750e-3
-1.080, 2.775e-3
-1.081, 2.800e-3
-1.082, 2.821e-3
-1.083, 2.846e-3
-1.084, 2.874e-3
-1.085, 2.898e-3
-1.086, 2.923e-3
-1.087, 2.951e-3
-1.088, 2.978e-3
-1.089, 3.009e-3
-1.090, 3.034e-3
-1.091, 3.056e-3
-1.092, 3.074e-3
-1.093, 3.099e-3
-1.094, 3.126e-3
-1.095, 3.157e-3
-1.096, 3.188e-3
-1.097, 3.216e-3
-1.098, 3.244e-3
-1.099, 3.271e-3
-1.100, 3.296e-3
-1.101, 3.321e-3
-1.102, 3.345e-3
-1.103, 3.370e-3
-1.104, 3.395e-3
-1.105, 3.422e-3
-1.106, 3.450e-3
-1.107, 3.481e-3
-1.108, 3.509e-3
-1.109, 3.540e-3
-1.110, 3.567e-3
-1.111, 3.595e-3
-1.112, 3.620e-3
-1.113, 3.644e-3
-1.114, 3.669e-3
-1.115, 3.700e-3
-1.116, 3.731e-3
-1.117, 3.762e-3
-1.118, 3.789e-3
-1.119, 3.817e-3
-1.120, 3.845e-3
-1.121, 3.876e-3
-1.122, 3.903e-3
-1.123, 3.937e-3
-1.124, 3.965e-3
-1.125, 3.996e-3
-1.126, 4.027e-3
-1.127, 4.058e-3
-1.128, 4.091e-3
-1.129, 4.122e-3
-1.130, 4.147e-3
-1.131, 4.175e-3
-1.132, 4.202e-3
-1.133, 4.230e-3
-1.134, 4.261e-3
-1.135, 4.292e-3
-1.136, 4.326e-3
-1.137, 4.360e-3
-1.138, 4.391e-3
-1.139, 4.424e-3
-1.140, 4.461e-3
-1.141, 4.492e-3
-1.142, 4.517e-3
-1.143, 4.542e-3
-1.144, 4.572e-3
-1.145, 4.612e-3
-1.146, 4.653e-3
-1.147, 4.693e-3
-1.148, 4.723e-3
-1.149, 4.757e-3
-1.150, 4.791e-3
-1.151, 4.825e-3
-1.152, 4.859e-3
-1.153, 4.893e-3
-1.154, 4.927e-3
-1.155, 4.958e-3
-1.156, 4.995e-3
-1.157, 5.029e-3
-1.158, 5.069e-3
-1.159, 5.106e-3
-1.160, 5.140e-3
-1.161, 5.174e-3
-1.162, 5.208e-3
-1.163, 5.248e-3
-1.164, 5.288e-3
-1.165, 5.322e-3
-1.166, 5.356e-3
-1.167, 5.389e-3
-1.168, 5.426e-3
-1.169, 5.476e-3
-1.170, 5.519e-3
-1.171, 5.556e-3
-1.172, 5.593e-3
-1.173, 5.627e-3
-1.174, 5.664e-3
-1.175, 5.707e-3
-1.176, 5.750e-3
-1.177, 5.790e-3
-1.178, 5.827e-3
-1.179, 5.864e-3
-1.180, 5.901e-3
-1.181, 5.941e-3
-1.182, 5.975e-3
-1.183, 6.012e-3
-1.184, 6.052e-3
-1.185, 6.102e-3
-1.186, 6.148e-3
-1.187, 6.188e-3
-1.188, 6.222e-3
-1.189, 6.256e-3
-1.190, 6.299e-3
-1.191, 6.345e-3
-1.192, 6.391e-3
-1.193, 6.435e-3
-1.194, 6.475e-3
-1.195, 6.515e-3
-1.196, 6.558e-3
-1.197, 6.604e-3
-1.198, 6.650e-3
-1.199, 6.700e-3
-1.200, 6.740e-3
-1.201, 6.777e-3
-1.202, 6.814e-3
-1.203, 6.857e-3
-1.204, 6.909e-3
-1.205, 6.962e-3
-1.206, 7.011e-3
-1.207, 7.051e-3
-1.208, 7.091e-3
-1.209, 7.138e-3
-1.210, 7.187e-3
-1.211, 7.239e-3
-1.212, 7.286e-3
-1.213, 7.329e-3
-1.214, 7.372e-3
-1.215, 7.418e-3
-1.216, 7.467e-3
-1.217, 7.517e-3
-1.218, 7.563e-3
-1.219, 7.612e-3
-1.220, 7.656e-3
-1.221, 7.702e-3
-1.222, 7.745e-3
-1.223, 7.788e-3
-1.224, 7.837e-3
-1.225, 7.893e-3
-1.226, 7.951e-3
-1.227, 8.007e-3
-1.228, 8.050e-3
-1.229, 8.096e-3
-1.230, 8.143e-3
-1.231, 8.198e-3
-1.232, 8.257e-3
-1.233, 8.309e-3
-1.234, 8.358e-3
-1.235, 8.408e-3
-1.236, 8.460e-3
-1.237, 8.516e-3
-1.238, 8.568e-3
-1.239, 8.614e-3
-1.240, 8.664e-3
-1.241, 8.716e-3
-1.242, 8.775e-3
-1.243, 8.827e-3
-1.244, 8.873e-3
-1.245, 8.917e-3
-1.246, 8.966e-3
-1.247, 9.028e-3
-1.248, 9.095e-3
-1.249, 9.160e-3
-1.250, 9.212e-3
-1.251, 9.265e-3
-1.252, 9.314e-3
-1.253, 9.364e-3
-1.254, 9.419e-3
-1.255, 9.478e-3
-1.256, 9.533e-3
-1.257, 9.589e-3
-1.258, 9.641e-3
-1.259, 9.693e-3
-1.260, 9.746e-3
-1.261, 9.801e-3
-1.262, 9.860e-3
-1.263, 9.925e-3
-1.264, 9.989e-3
-1.265, 1.005e-2
-1.266, 1.010e-2
-1.267, 1.014e-2
-1.268, 1.020e-2
-1.269, 1.026e-2
-1.270, 1.033e-2
-1.271, 1.040e-2
-1.272, 1.046e-2
-1.273, 1.052e-2
-1.274, 1.057e-2
-1.275, 1.063e-2
-1.276, 1.070e-2
-1.277, 1.076e-2
-1.278, 1.082e-2
-1.279, 1.087e-2
-1.280, 1.093e-2
-1.281, 1.099e-2
-1.282, 1.104e-2
-1.283, 1.111e-2
-1.284, 1.116e-2
-1.285, 1.122e-2
-1.286, 1.129e-2
-1.287, 1.136e-2
-1.288, 1.143e-2
-1.289, 1.150e-2
-1.290, 1.155e-2
-1.291, 1.160e-2
-1.292, 1.165e-2
-1.293, 1.172e-2
-1.294, 1.180e-2
-1.295, 1.187e-2
-1.296, 1.193e-2
-1.297, 1.200e-2
-1.298, 1.206e-2
-1.299, 1.212e-2
-1.300, 1.219e-2
-1.301, 1.225e-2
-1.302, 1.231e-2
-1.303, 1.236e-2
-1.304, 1.242e-2
-1.305, 1.248e-2
-1.306, 1.255e-2
-1.307, 1.261e-2
-1.308, 1.268e-2
-1.309, 1.275e-2
-1.310, 1.282e-2
-1.311, 1.288e-2
-1.312, 1.293e-2
-1.313, 1.300e-2
-1.314, 1.307e-2
-1.315, 1.314e-2
-1.316, 1.320e-2
-1.317, 1.326e-2
-1.318, 1.332e-2
-1.319, 1.339e-2
-1.320, 1.347e-2
-1.321, 1.354e-2
-1.322, 1.361e-2
-1.323, 1.367e-2
-1.324, 1.373e-2
-1.325, 1.380e-2
-1.326, 1.386e-2
-1.327, 1.393e-2
-1.328, 1.399e-2
-1.329, 1.404e-2
-1.330, 1.410e-2
-1.331, 1.416e-2
-1.332, 1.422e-2
-1.333, 1.428e-2
-1.334, 1.434e-2
-1.335, 1.440e-2
-1.336, 1.445e-2
-1.337, 1.452e-2
-1.338, 1.460e-2
-1.339, 1.466e-2
-1.340, 1.471e-2
-1.341, 1.475e-2
-1.342, 1.480e-2
-1.343, 1.487e-2
-1.344, 1.494e-2
-1.345, 1.501e-2
-1.346, 1.507e-2
-1.347, 1.513e-2
-1.348, 1.518e-2
-1.349, 1.524e-2
-1.350, 1.530e-2
-1.351, 1.536e-2
-1.352, 1.541e-2
-1.353, 1.546e-2
-1.354, 1.551e-2
-1.355, 1.555e-2
-1.356, 1.561e-2
-1.357, 1.567e-2
-1.358, 1.574e-2
-1.359, 1.579e-2
-1.360, 1.583e-2
-1.361, 1.586e-2
-1.362, 1.590e-2
-1.363, 1.595e-2
-1.364, 1.601e-2
-1.365, 1.607e-2
-1.366, 1.611e-2
-1.367, 1.614e-2
-1.368, 1.618e-2
-1.369, 1.622e-2
-1.370, 1.626e-2
-1.371, 1.630e-2
-1.372, 1.633e-2
-1.373, 1.636e-2
-1.374, 1.639e-2
-1.375, 1.642e-2
-1.376, 1.645e-2
-1.377, 1.648e-2
-1.378, 1.651e-2
-1.379, 1.654e-2
-1.380, 1.658e-2
-1.381, 1.662e-2
-1.382, 1.666e-2
-1.383, 1.666e-2
-1.384, 1.666e-2
-1.385, 1.666e-2
-1.386, 1.669e-2
-1.387, 1.673e-2
-1.388, 1.677e-2
-1.389, 1.678e-2
-1.390, 1.678e-2
-1.391, 1.678e-2
-1.392, 1.679e-2
-1.393, 1.680e-2
-1.394, 1.681e-2
-1.395, 1.682e-2
-1.396, 1.681e-2
-1.397, 1.680e-2
-1.398, 1.679e-2
-1.399, 1.680e-2
-1.400, 1.680e-2
-1.401, 1.679e-2
-1.402, 1.679e-2
-1.403, 1.678e-2
-1.404, 1.677e-2
-1.405, 1.674e-2
-1.406, 1.674e-2
-1.407, 1.675e-2
-1.408, 1.675e-2
-1.409, 1.673e-2
-1.410, 1.670e-2
-1.411, 1.666e-2
-1.412, 1.665e-2
-1.413, 1.666e-2
-1.414, 1.666e-2
-1.415, 1.665e-2
-1.416, 1.663e-2
-1.417, 1.661e-2
-1.418, 1.659e-2
-1.419, 1.657e-2
-1.420, 1.655e-2
-1.421, 1.653e-2
-1.422, 1.652e-2
-1.423, 1.649e-2
-1.424, 1.648e-2
-1.425, 1.647e-2
-1.426, 1.645e-2
-1.427, 1.645e-2
-1.428, 1.645e-2
-1.429, 1.646e-2
-1.430, 1.646e-2
-1.431, 1.645e-2
-1.432, 1.642e-2
-1.433, 1.641e-2
-1.434, 1.641e-2
-1.435, 1.643e-2
-1.436, 1.645e-2
-1.437, 1.646e-2
-1.438, 1.645e-2
-1.439, 1.645e-2
-1.440, 1.645e-2
-1.441, 1.647e-2
-1.442, 1.648e-2
-1.443, 1.648e-2
-1.444, 1.648e-2
-1.445, 1.649e-2
-1.446, 1.653e-2
-1.447, 1.655e-2
-1.448, 1.656e-2
-1.449, 1.656e-2
-1.450, 1.656e-2
-1.451, 1.658e-2
-1.452, 1.662e-2
-1.453, 1.665e-2
-1.454, 1.666e-2
-1.455, 1.667e-2
-1.456, 1.667e-2
-1.457, 1.669e-2
-1.458, 1.672e-2
-1.459, 1.674e-2
-1.460, 1.676e-2
-1.461, 1.676e-2
-1.462, 1.677e-2
-1.463, 1.679e-2
-1.464, 1.681e-2
-1.465, 1.683e-2
-1.466, 1.686e-2
-1.467, 1.688e-2
-1.468, 1.690e-2
-1.469, 1.692e-2
-1.470, 1.694e-2
-1.471, 1.697e-2
-1.472, 1.700e-2
-1.473, 1.703e-2
-1.474, 1.703e-2
-1.475, 1.704e-2
-1.476, 1.706e-2
-1.477, 1.710e-2
-1.478, 1.715e-2
-1.479, 1.720e-2
-1.480, 1.722e-2
-1.481, 1.723e-2
-1.482, 1.725e-2
-1.483, 1.727e-2
-1.484, 1.730e-2
-1.485, 1.734e-2
-1.486, 1.737e-2
-1.487, 1.740e-2
-1.488, 1.743e-2
-1.489, 1.746e-2
-1.490, 1.749e-2
-1.491, 1.752e-2
-1.492, 1.756e-2
-1.493, 1.760e-2
-1.494, 1.764e-2
-1.495, 1.768e-2
-1.496, 1.771e-2
-1.497, 1.775e-2
-1.498, 1.781e-2
-1.499, 1.787e-2
-1.500, 1.781e-2
-1.499, 1.757e-2
-1.498, 1.736e-2
-1.497, 1.718e-2
-1.496, 1.702e-2
-1.495, 1.687e-2
-1.494, 1.671e-2
-1.493, 1.654e-2
-1.492, 1.638e-2
-1.491, 1.622e-2
-1.490, 1.607e-2
-1.489, 1.592e-2
-1.488, 1.576e-2
-1.487, 1.562e-2
-1.486, 1.547e-2
-1.485, 1.533e-2
-1.484, 1.518e-2
-1.483, 1.505e-2
-1.482, 1.492e-2
-1.481, 1.479e-2
-1.480, 1.466e-2
-1.479, 1.453e-2
-1.478, 1.440e-2
-1.477, 1.425e-2
-1.476, 1.411e-2
-1.475, 1.398e-2
-1.474, 1.387e-2
-1.473, 1.376e-2
-1.472, 1.364e-2
-1.471, 1.351e-2
-1.470, 1.338e-2
-1.469, 1.326e-2
-1.468, 1.313e-2
-1.467, 1.301e-2
-1.466, 1.288e-2
-1.465, 1.277e-2
-1.464, 1.265e-2
-1.463, 1.253e-2
-1.462, 1.240e-2
-1.461, 1.227e-2
-1.460, 1.216e-2
-1.459, 1.206e-2
-1.458, 1.195e-2
-1.457, 1.183e-2
-1.456, 1.171e-2
-1.455, 1.160e-2
-1.454, 1.148e-2
-1.453, 1.138e-2
-1.452, 1.127e-2
-1.451, 1.116e-2
-1.450, 1.105e-2
-1.449, 1.094e-2
-1.448, 1.083e-2
-1.447, 1.072e-2
-1.446, 1.062e-2
-1.445, 1.051e-2
-1.444, 1.041e-2
-1.443, 1.031e-2
-1.442, 1.021e-2
-1.441, 1.011e-2
-1.440, 1.000e-2
-1.439, 9.900e-3
-1.438, 9.808e-3
-1.437, 9.715e-3
-1.436, 9.613e-3
-1.435, 9.505e-3
-1.434, 9.401e-3
-1.433, 9.308e-3
-1.432, 9.222e-3
-1.431, 9.138e-3
-1.430, 9.046e-3
-1.429, 8.950e-3
-1.428, 8.849e-3
-1.427, 8.750e-3
-1.426, 8.651e-3
-1.425, 8.556e-3
-1.424, 8.469e-3
-1.423, 8.374e-3
-1.422, 8.278e-3
-1.421, 8.180e-3
-1.420, 8.090e-3
-1.419, 8.004e-3
-1.418, 7.914e-3
-1.417, 7.822e-3
-1.416, 7.723e-3
-1.415, 7.634e-3
-1.414, 7.551e-3
-1.413, 7.474e-3
-1.412, 7.393e-3
-1.411, 7.307e-3
-1.410, 7.218e-3
-1.409, 7.125e-3
-1.408, 7.042e-3
-1.407, 6.959e-3
-1.406, 6.872e-3
-1.405, 6.789e-3
-1.404, 6.706e-3
-1.403, 6.623e-3
-1.402, 6.543e-3
-1.401, 6.459e-3
-1.400, 6.376e-3
-1.399, 6.296e-3
-1.398, 6.219e-3
-1.397, 6.145e-3
-1.396, 6.062e-3
-1.395, 5.975e-3
-1.394, 5.892e-3
-1.393, 5.818e-3
-1.392, 5.753e-3
-1.391, 5.682e-3
-1.390, 5.608e-3
-1.389, 5.528e-3
-1.388, 5.448e-3
-1.387, 5.368e-3
-1.386, 5.294e-3
-1.385, 5.223e-3
-1.384, 5.152e-3
-1.383, 5.081e-3
-1.382, 5.004e-3
-1.381, 4.930e-3
-1.380, 4.856e-3
-1.379, 4.782e-3
-1.378, 4.711e-3
-1.377, 4.646e-3
-1.376, 4.575e-3
-1.375, 4.501e-3
-1.374, 4.431e-3
-1.373, 4.363e-3
-1.372, 4.298e-3
-1.371, 4.236e-3
-1.370, 4.172e-3
-1.369, 4.101e-3
-1.368, 4.033e-3
-1.367, 3.959e-3
-1.366, 3.894e-3
-1.365, 3.832e-3
-1.364, 3.768e-3
-1.363, 3.706e-3
-1.362, 3.641e-3
-1.361, 3.577e-3
-1.360, 3.515e-3
-1.359, 3.450e-3
-1.358, 3.388e-3
-1.357, 3.330e-3
-1.356, 3.265e-3
-1.355, 3.207e-3
-1.354, 3.145e-3
-1.353, 3.086e-3
-1.352, 3.031e-3
-1.351, 2.975e-3
-1.350, 2.917e-3
-1.349, 2.858e-3
-1.348, 2.800e-3
-1.347, 2.741e-3
-1.346, 2.682e-3
-1.345, 2.627e-3
-1.344, 2.575e-3
-1.343, 2.519e-3
-1.342, 2.467e-3
-1.341, 2.411e-3
-1.340, 2.356e-3
-1.339, 2.300e-3
-1.338, 2.245e-3
-1.337, 2.189e-3
-1.336, 2.137e-3
-1.335, 2.087e-3
-1.334, 2.038e-3
-1.333, 1.989e-3
-1.332, 1.939e-3
-1.331, 1.893e-3
-1.330, 1.844e-3
-1.329, 1.791e-3
-1.328, 1.739e-3
-1.327, 1.690e-3
-1.326, 1.640e-3
-1.325, 1.597e-3
-1.324, 1.551e-3
-1.323, 1.508e-3
-1.322, 1.462e-3
-1.321, 1.415e-3
-1.320, 1.369e-3
-1.319, 1.323e-3
-1.318, 1.277e-3
-1.317, 1.233e-3
-1.316, 1.187e-3
-1.315, 1.147e-3
-1.314, 1.104e-3
-1.313, 1.064e-3
-1.312, 1.024e-3
-1.311, 9.837e-4
-1.310, 9.405e-4
-1.309, 8.973e-4
-1.308, 8.542e-4
-1.307, 8.141e-4
-1.306, 7.740e-4
-1.305, 7.370e-4
-1.304, 6.969e-4
-1.303, 6.599e-4
-1.302, 6.229e-4
-1.301, 5.859e-4
-1.300, 5.489e-4
-1.299, 5.120e-4
-1.298, 4.719e-4
-1.297, 4.349e-4
-1.296, 3.979e-4
-1.295, 3.640e-4
-1.294, 3.393e-4
-1.293, 3.146e-4
-1.292, 2.807e-4
-1.291, 2.437e-4
-1.290, 2.067e-4
-1.289, 1.697e-4
-1.288, 1.327e-4
-1.287, 9.573e-5
-1.286, 6.182e-5
-1.285, 2.790e-5
-1.284, -2.927e-6
-1.283, -3.376e-5
-1.282, -6.459e-5
-1.281, -9.542e-5
-1.280, -1.263e-4
-1.279, -1.602e-4
-1.278, -1.910e-4
-1.277, -2.218e-4
-1.276, -2.557e-4
-1.275, -2.835e-4
-1.274, -3.082e-4
-1.273, -3.390e-4
-1.272, -3.637e-4
-1.271, -3.914e-4
-1.270, -4.191e-4
-1.269, -4.500e-4
-1.268, -4.808e-4
-1.267, -5.086e-4
-1.266, -5.363e-4
-1.265, -5.610e-4
-1.264, -5.856e-4
-1.263, -6.134e-4
-1.262, -6.380e-4
-1.261, -6.627e-4
-1.260, -6.874e-4
-1.259, -7.151e-4
-1.258, -7.429e-4
-1.257, -7.706e-4
-1.256, -7.953e-4
-1.255, -8.230e-4
-1.254, -8.446e-4
-1.253, -8.662e-4
-1.252, -8.878e-4
-1.251, -9.124e-4
-1.250, -9.371e-4
-1.249, -9.618e-4
-1.248, -9.895e-4
-1.247, -1.014e-3
-1.246, -1.039e-3
-1.245, -1.060e-3
-1.244, -1.082e-3
-1.243, -1.101e-3
-1.242, -1.125e-3
-1.241, -1.147e-3
-1.240, -1.171e-3
-1.239, -1.196e-3
-1.238, -1.221e-3
-1.237, -1.242e-3
-1.236, -1.267e-3
-1.235, -1.289e-3
-1.234, -1.310e-3
-1.233, -1.329e-3
-1.232, -1.350e-3
-1.231, -1.369e-3
-1.230, -1.390e-3
-1.229, -1.418e-3
-1.228, -1.446e-3
-1.227, -1.467e-3
-1.226, -1.492e-3
-1.225, -1.514e-3
-1.224, -1.529e-3
-1.223, -1.551e-3
-1.222, -1.572e-3
-1.221, -1.591e-3
-1.220, -1.612e-3
-1.219, -1.634e-3
-1.218, -1.659e-3
-1.217, -1.683e-3
-1.216, -1.705e-3
-1.215, -1.726e-3
-1.214, -1.745e-3
-1.213, -1.763e-3
-1.212, -1.785e-3
-1.211, -1.807e-3
-1.210, -1.831e-3
-1.209, -1.856e-3
-1.208, -1.877e-3
-1.207, -1.899e-3
-1.206, -1.921e-3
-1.205, -1.942e-3
-1.204, -1.964e-3
-1.203, -1.982e-3
-1.202, -2.004e-3
-1.201, -2.022e-3
-1.200, -2.047e-3
-1.199, -2.072e-3
-1.198, -2.096e-3
-1.197, -2.118e-3
-1.196, -2.143e-3
-1.195, -2.164e-3
-1.194, -2.189e-3
-1.193, -2.214e-3
-1.192, -2.232e-3
-1.191, -2.251e-3
-1.190, -2.272e-3
-1.189, -2.300e-3
-1.188, -2.328e-3
-1.187, -2.352e-3
-1.186, -2.380e-3
-1.185, -2.402e-3
-1.184, -2.423e-3
-1.183, -2.445e-3
-1.182, -2.469e-3
-1.181, -2.494e-3
-1.180, -2.519e-3
-1.179, -2.543e-3
-1.178, -2.571e-3
-1.177, -2.596e-3
-1.176, -2.624e-3
-1.175, -2.651e-3
-1.174, -2.676e-3
-1.173, -2.698e-3
-1.172, -2.719e-3
-1.171, -2.741e-3
-1.170, -2.768e-3
-1.169, -2.799e-3
-1.168, -2.830e-3
-1.167, -2.858e-3
-1.166, -2.886e-3
-1.165, -2.910e-3
-1.164, -2.935e-3
-1.163, -2.960e-3
-1.162, -2.990e-3
-1.161, -3.018e-3
-1.160, -3.046e-3
-1.159, -3.074e-3
-1.158, -3.105e-3
-1.157, -3.132e-3
-1.156, -3.166e-3
-1.155, -3.197e-3
-1.154, -3.231e-3
-1.153, -3.256e-3
-1.152, -3.280e-3
-1.151, -3.308e-3
-1.150, -3.339e-3
-1.149, -3.376e-3
-1.148, -3.413e-3
-1.147, -3.447e-3
-1.146, -3.481e-3
-1.145, -3.512e-3
-1.144, -3.539e-3
-1.143, -3.570e-3
-1.142, -3.601e-3
-1.141, -3.632e-3
-1.140, -3.669e-3
-1.139, -3.706e-3
-1.138, -3.743e-3
-1.137, -3.780e-3
-1.136, -3.811e-3
-1.135, -3.841e-3
-1.134, -3.872e-3
-1.133, -3.909e-3
-1.132, -3.952e-3
-1.131, -3.989e-3
-1.130, -4.026e-3
-1.129, -4.063e-3
-1.128, -4.100e-3
-1.127, -4.140e-3
-1.126, -4.184e-3
-1.125, -4.221e-3
-1.124, -4.258e-3
-1.123, -4.292e-3
-1.122, -4.329e-3
-1.121, -4.369e-3
-1.120, -4.412e-3
-1.119, -4.452e-3
-1.118, -4.495e-3
-1.117, -4.538e-3
-1.116, -4.581e-3
-1.115, -4.621e-3
-1.114, -4.662e-3
-1.113, -4.702e-3
-1.112, -4.742e-3
-1.111, -4.788e-3
-1.110, -4.834e-3
-1.109, -4.877e-3
-1.108, -4.917e-3
-1.107, -4.957e-3
-1.106, -5.007e-3
-1.105, -5.056e-3
-1.104, -5.099e-3
-1.103, -5.146e-3
-1.102, -5.186e-3
-1.101, -5.229e-3
-1.100, -5.272e-3
-1.099, -5.315e-3
-1.098, -5.361e-3
-1.097, -5.405e-3
-1.096, -5.448e-3
-1.095, -5.494e-3
-1.094, -5.537e-3
-1.093, -5.580e-3
-1.092, -5.617e-3
-1.091, -5.657e-3
-1.090, -5.704e-3
-1.089, -5.759e-3
-1.088, -5.812e-3
-1.087, -5.864e-3
-1.086, -5.910e-3
-1.085, -5.953e-3
-1.084, -5.996e-3
-1.083, -6.043e-3
-1.082, -6.089e-3
-1.081, -6.135e-3
-1.080, -6.185e-3
-1.079, -6.231e-3
-1.078, -6.283e-3
-1.077, -6.329e-3
-1.076, -6.379e-3
-1.075, -6.428e-3
-1.074, -6.477e-3
-1.073, -6.530e-3
-1.072, -6.576e-3
-1.071, -6.629e-3
-1.070, -6.678e-3
-1.069, -6.727e-3
-1.068, -6.780e-3
-1.067, -6.832e-3
-1.066, -6.888e-3
-1.065, -6.946e-3
-1.064, -6.995e-3
-1.063, -7.039e-3
-1.062, -7.085e-3
-1.061, -7.137e-3
-1.060, -7.199e-3
-1.059, -7.264e-3
-1.058, -7.322e-3
-1.057, -7.375e-3
-1.056, -7.424e-3
-1.055, -7.473e-3
-1.054, -7.529e-3
-1.053, -7.584e-3
-1.052, -7.637e-3
-1.051, -7.680e-3
-1.050, -7.729e-3
-1.049, -7.782e-3
-1.048, -7.837e-3
-1.047, -7.893e-3
-1.046, -7.951e-3
-1.045, -8.004e-3
-1.044, -8.053e-3
-1.043, -8.102e-3
-1.042, -8.158e-3
-1.041, -8.216e-3
-1.040, -8.272e-3
-1.039, -8.321e-3
-1.038, -8.370e-3
-1.037, -8.423e-3
-1.036, -8.481e-3
-1.035, -8.540e-3
-1.034, -8.602e-3
-1.033, -8.657e-3
-1.032, -8.707e-3
-1.031, -8.762e-3
-1.030, -8.818e-3
-1.029, -8.873e-3
-1.028, -8.935e-3
-1.027, -8.990e-3
-1.026, -9.046e-3
-1.025, -9.098e-3
-1.024, -9.151e-3
-1.023, -9.203e-3
-1.022, -9.258e-3
-1.021, -9.314e-3
-1.020, -9.376e-3
-1.019, -9.431e-3
-1.018, -9.496e-3
-1.017, -9.551e-3
-1.016, -9.598e-3
-1.015, -9.650e-3
-1.014, -9.709e-3
-1.013, -9.773e-3
-1.012, -9.835e-3
-1.011, -9.881e-3
-1.010, -9.924e-3
-1.009, -9.977e-3
-1.008, -1.004e-2
-1.007, -1.012e-2
-1.006, -1.019e-2
-1.005, -1.025e-2
-1.004, -1.029e-2
-1.003, -1.034e-2
-1.002, -1.040e-2
-1.001, -1.046e-2
