Sept. 17, 2024   18:05:15
Cyclic Voltammetry
File: c:/users/guazh/data/20240903_batch_252_500/2024-09-03-exp381\exp381-2024-09-17t17_56_32-arkoh\exp381_cv_50mvs_efin_-1600mv.bin
Data Source:  Experiment
Instrument Model:  CHI760E
Header: CV ran at 50 mVs
Note: 

Init E (V) = -1
High E (V) = -1
Low E (V) = -1.6
Final E (V) = -1
Init P/N = N
Scan Rate (V/s) = 0.05
Segment = 7
Sample Interval (V) = 0.001
Quiet Time (sec) = 60
Sensitivity (A/V) = 0.001
Comp R (ohm) = 2.2

Results:

Channel 1:
Segment 1:

Segment 2:

Segment 3:

Segment 4:

Segment 5:

Segment 6:

Segment 7:

Potential/V, Current/A

-1.000, 1.399e-7
-1.001, 1.665e-7
-1.002, 1.823e-7
-1.003, 1.764e-7
-1.004, 2.040e-7
-1.005, 2.662e-7
-1.006, 2.435e-7
-1.007, 2.948e-7
-1.008, 2.455e-7
-1.009, 3.047e-7
-1.010, 2.978e-7
-1.011, 3.550e-7
-1.012, 3.402e-7
-1.013, 3.175e-7
-1.014, 3.333e-7
-1.015, 3.757e-7
-1.016, 3.451e-7
-1.017, 3.599e-7
-1.018, 3.816e-7
-1.019, 3.935e-7
-1.020, 3.846e-7
-1.021, 4.201e-7
-1.022, 4.013e-7
-1.023, 4.073e-7
-1.024, 4.477e-7
-1.025, 4.536e-7
-1.026, 4.536e-7
-1.027, 4.517e-7
-1.028, 4.507e-7
-1.029, 4.556e-7
-1.030, 4.734e-7
-1.031, 4.961e-7
-1.032, 5.079e-7
-1.033, 4.872e-7
-1.034, 4.862e-7
-1.035, 5.336e-7
-1.036, 5.345e-7
-1.037, 5.030e-7
-1.038, 5.414e-7
-1.039, 5.286e-7
-1.040, 5.375e-7
-1.041, 5.405e-7
-1.042, 5.839e-7
-1.043, 5.651e-7
-1.044, 5.829e-7
-1.045, 6.075e-7
-1.046, 5.789e-7
-1.047, 5.878e-7
-1.048, 5.858e-7
-1.049, 6.352e-7
-1.050, 6.056e-7
-1.051, 6.273e-7
-1.052, 6.569e-7
-1.053, 6.204e-7
-1.054, 6.164e-7
-1.055, 6.480e-7
-1.056, 6.539e-7
-1.057, 6.510e-7
-1.058, 6.312e-7
-1.059, 6.756e-7
-1.060, 6.667e-7
-1.061, 6.658e-7
-1.062, 6.667e-7
-1.063, 6.845e-7
-1.064, 7.131e-7
-1.065, 6.746e-7
-1.066, 7.575e-7
-1.067, 7.437e-7
-1.068, 6.727e-7
-1.069, 7.378e-7
-1.070, 7.713e-7
-1.071, 7.526e-7
-1.072, 7.328e-7
-1.073, 7.496e-7
-1.074, 7.575e-7
-1.075, 7.526e-7
-1.076, 7.871e-7
-1.077, 7.674e-7
-1.078, 7.930e-7
-1.079, 7.832e-7
-1.080, 8.059e-7
-1.081, 7.999e-7
-1.082, 8.128e-7
-1.083, 8.236e-7
-1.084, 8.473e-7
-1.085, 8.424e-7
-1.086, 8.157e-7
-1.087, 8.177e-7
-1.088, 8.690e-7
-1.089, 8.956e-7
-1.090, 8.581e-7
-1.091, 8.710e-7
-1.092, 9.025e-7
-1.093, 8.660e-7
-1.094, 9.183e-7
-1.095, 9.144e-7
-1.096, 8.769e-7
-1.097, 8.848e-7
-1.098, 9.341e-7
-1.099, 9.183e-7
-1.100, 9.262e-7
-1.101, 9.469e-7
-1.102, 9.302e-7
-1.103, 9.825e-7
-1.104, 9.311e-7
-1.105, 9.617e-7
-1.106, 9.746e-7
-1.107, 9.795e-7
-1.108, 9.598e-7
-1.109, 9.953e-7
-1.110, 1.000e-6
-1.111, 1.015e-6
-1.112, 9.933e-7
-1.113, 1.016e-6
-1.114, 1.027e-6
-1.115, 9.834e-7
-1.116, 1.022e-6
-1.117, 1.041e-6
-1.118, 1.014e-6
-1.119, 1.026e-6
-1.120, 1.062e-6
-1.121, 1.068e-6
-1.122, 1.047e-6
-1.123, 1.067e-6
-1.124, 1.053e-6
-1.125, 1.111e-6
-1.126, 1.057e-6
-1.127, 1.097e-6
-1.128, 1.108e-6
-1.129, 1.111e-6
-1.130, 1.094e-6
-1.131, 1.104e-6
-1.132, 1.163e-6
-1.133, 1.132e-6
-1.134, 1.157e-6
-1.135, 1.157e-6
-1.136, 1.171e-6
-1.137, 1.129e-6
-1.138, 1.176e-6
-1.139, 1.200e-6
-1.140, 1.208e-6
-1.141, 1.176e-6
-1.142, 1.186e-6
-1.143, 1.235e-6
-1.144, 1.210e-6
-1.145, 1.237e-6
-1.146, 1.223e-6
-1.147, 1.263e-6
-1.148, 1.235e-6
-1.149, 1.252e-6
-1.150, 1.284e-6
-1.151, 1.292e-6
-1.152, 1.264e-6
-1.153, 1.283e-6
-1.154, 1.293e-6
-1.155, 1.321e-6
-1.156, 1.306e-6
-1.157, 1.329e-6
-1.158, 1.311e-6
-1.159, 1.343e-6
-1.160, 1.347e-6
-1.161, 1.358e-6
-1.162, 1.361e-6
-1.163, 1.336e-6
-1.164, 1.374e-6
-1.165, 1.382e-6
-1.166, 1.391e-6
-1.167, 1.426e-6
-1.168, 1.381e-6
-1.169, 1.395e-6
-1.170, 1.405e-6
-1.171, 1.427e-6
-1.172, 1.422e-6
-1.173, 1.457e-6
-1.174, 1.460e-6
-1.175, 1.442e-6
-1.176, 1.474e-6
-1.177, 1.478e-6
-1.178, 1.440e-6
-1.179, 1.494e-6
-1.180, 1.487e-6
-1.181, 1.512e-6
-1.182, 1.496e-6
-1.183, 1.508e-6
-1.184, 1.525e-6
-1.185, 1.546e-6
-1.186, 1.561e-6
-1.187, 1.554e-6
-1.188, 1.558e-6
-1.189, 1.553e-6
-1.190, 1.578e-6
-1.191, 1.603e-6
-1.192, 1.602e-6
-1.193, 1.579e-6
-1.194, 1.607e-6
-1.195, 1.638e-6
-1.196, 1.641e-6
-1.197, 1.603e-6
-1.198, 1.649e-6
-1.199, 1.665e-6
-1.200, 1.651e-6
-1.201, 1.663e-6
-1.202, 1.690e-6
-1.203, 1.696e-6
-1.204, 1.695e-6
-1.205, 1.691e-6
-1.206, 1.700e-6
-1.207, 1.712e-6
-1.208, 1.707e-6
-1.209, 1.765e-6
-1.210, 1.745e-6
-1.211, 1.733e-6
-1.212, 1.764e-6
-1.213, 1.806e-6
-1.214, 1.772e-6
-1.215, 1.782e-6
-1.216, 1.816e-6
-1.217, 1.860e-6
-1.218, 1.819e-6
-1.219, 1.832e-6
-1.220, 1.854e-6
-1.221, 1.906e-6
-1.222, 1.848e-6
-1.223, 1.848e-6
-1.224, 1.876e-6
-1.225, 1.894e-6
-1.226, 1.920e-6
-1.227, 1.913e-6
-1.228, 1.963e-6
-1.229, 1.951e-6
-1.230, 1.951e-6
-1.231, 1.979e-6
-1.232, 1.988e-6
-1.233, 2.010e-6
-1.234, 1.985e-6
-1.235, 2.034e-6
-1.236, 2.044e-6
-1.237, 2.013e-6
-1.238, 2.046e-6
-1.239, 2.051e-6
-1.240, 2.070e-6
-1.241, 2.077e-6
-1.242, 2.085e-6
-1.243, 2.110e-6
-1.244, 2.092e-6
-1.245, 2.107e-6
-1.246, 2.133e-6
-1.247, 2.145e-6
-1.248, 2.135e-6
-1.249, 2.174e-6
-1.250, 2.215e-6
-1.251, 2.180e-6
-1.252, 2.184e-6
-1.253, 2.221e-6
-1.254, 2.228e-6
-1.255, 2.240e-6
-1.256, 2.233e-6
-1.257, 2.274e-6
-1.258, 2.270e-6
-1.259, 2.268e-6
-1.260, 2.300e-6
-1.261, 2.314e-6
-1.262, 2.334e-6
-1.263, 2.323e-6
-1.264, 2.351e-6
-1.265, 2.368e-6
-1.266, 2.339e-6
-1.267, 2.400e-6
-1.268, 2.395e-6
-1.269, 2.420e-6
-1.270, 2.427e-6
-1.271, 2.465e-6
-1.272, 2.469e-6
-1.273, 2.483e-6
-1.274, 2.512e-6
-1.275, 2.524e-6
-1.276, 2.560e-6
-1.277, 2.529e-6
-1.278, 2.576e-6
-1.279, 2.602e-6
-1.280, 2.601e-6
-1.281, 2.614e-6
-1.282, 2.639e-6
-1.283, 2.680e-6
-1.284, 2.695e-6
-1.285, 2.684e-6
-1.286, 2.761e-6
-1.287, 2.755e-6
-1.288, 2.771e-6
-1.289, 2.762e-6
-1.290, 2.804e-6
-1.291, 2.806e-6
-1.292, 2.867e-6
-1.293, 2.872e-6
-1.294, 2.936e-6
-1.295, 2.902e-6
-1.296, 2.972e-6
-1.297, 2.998e-6
-1.298, 2.987e-6
-1.299, 3.021e-6
-1.300, 3.045e-6
-1.301, 3.062e-6
-1.302, 3.090e-6
-1.303, 3.101e-6
-1.304, 3.116e-6
-1.305, 3.144e-6
-1.306, 3.165e-6
-1.307, 3.214e-6
-1.308, 3.202e-6
-1.309, 3.176e-6
-1.310, 3.239e-6
-1.311, 3.292e-6
-1.312, 3.265e-6
-1.313, 3.249e-6
-1.314, 3.301e-6
-1.315, 3.347e-6
-1.316, 3.324e-6
-1.317, 3.313e-6
-1.318, 3.365e-6
-1.319, 3.371e-6
-1.320, 3.355e-6
-1.321, 3.438e-6
-1.322, 3.412e-6
-1.323, 3.387e-6
-1.324, 3.455e-6
-1.325, 3.480e-6
-1.326, 3.470e-6
-1.327, 3.488e-6
-1.328, 3.507e-6
-1.329, 3.508e-6
-1.330, 3.539e-6
-1.331, 3.565e-6
-1.332, 3.609e-6
-1.333, 3.612e-6
-1.334, 3.608e-6
-1.335, 3.630e-6
-1.336, 3.702e-6
-1.337, 3.734e-6
-1.338, 3.736e-6
-1.339, 3.760e-6
-1.340, 3.821e-6
-1.341, 3.841e-6
-1.342, 3.900e-6
-1.343, 3.923e-6
-1.344, 3.942e-6
-1.345, 3.951e-6
-1.346, 4.046e-6
-1.347, 4.066e-6
-1.348, 4.086e-6
-1.349, 4.113e-6
-1.350, 4.141e-6
-1.351, 4.215e-6
-1.352, 4.272e-6
-1.353, 4.282e-6
-1.354, 4.332e-6
-1.355, 4.374e-6
-1.356, 4.417e-6
-1.357, 4.484e-6
-1.358, 4.531e-6
-1.359, 4.559e-6
-1.360, 4.619e-6
-1.361, 4.697e-6
-1.362, 4.759e-6
-1.363, 4.736e-6
-1.364, 4.850e-6
-1.365, 4.882e-6
-1.366, 4.919e-6
-1.367, 4.988e-6
-1.368, 5.057e-6
-1.369, 5.117e-6
-1.370, 5.166e-6
-1.371, 5.238e-6
-1.372, 5.334e-6
-1.373, 5.377e-6
-1.374, 5.391e-6
-1.375, 5.487e-6
-1.376, 5.589e-6
-1.377, 5.661e-6
-1.378, 5.693e-6
-1.379, 5.769e-6
-1.380, 5.818e-6
-1.381, 5.892e-6
-1.382, 5.993e-6
-1.383, 6.058e-6
-1.384, 6.101e-6
-1.385, 6.194e-6
-1.386, 6.310e-6
-1.387, 6.352e-6
-1.388, 6.433e-6
-1.389, 6.482e-6
-1.390, 6.589e-6
-1.391, 6.687e-6
-1.392, 6.773e-6
-1.393, 6.838e-6
-1.394, 6.948e-6
-1.395, 7.063e-6
-1.396, 7.116e-6
-1.397, 7.220e-6
-1.398, 7.338e-6
-1.399, 7.358e-6
-1.400, 7.471e-6
-1.401, 7.584e-6
-1.402, 7.664e-6
-1.403, 7.799e-6
-1.404, 7.877e-6
-1.405, 7.972e-6
-1.406, 8.093e-6
-1.407, 8.174e-6
-1.408, 8.336e-6
-1.409, 8.376e-6
-1.410, 8.452e-6
-1.411, 8.584e-6
-1.412, 8.738e-6
-1.413, 8.854e-6
-1.414, 8.947e-6
-1.415, 9.101e-6
-1.416, 9.218e-6
-1.417, 9.342e-6
-1.418, 9.462e-6
-1.419, 9.571e-6
-1.420, 9.728e-6
-1.421, 9.836e-6
-1.422, 1.000e-5
-1.423, 1.012e-5
-1.424, 1.025e-5
-1.425, 1.039e-5
-1.426, 1.052e-5
-1.427, 1.066e-5
-1.428, 1.080e-5
-1.429, 1.093e-5
-1.430, 1.110e-5
-1.431, 1.122e-5
-1.432, 1.142e-5
-1.433, 1.154e-5
-1.434, 1.172e-5
-1.435, 1.186e-5
-1.436, 1.200e-5
-1.437, 1.217e-5
-1.438, 1.233e-5
-1.439, 1.250e-5
-1.440, 1.266e-5
-1.441, 1.284e-5
-1.442, 1.304e-5
-1.443, 1.316e-5
-1.444, 1.337e-5
-1.445, 1.357e-5
-1.446, 1.375e-5
-1.447, 1.390e-5
-1.448, 1.414e-5
-1.449, 1.432e-5
-1.450, 1.447e-5
-1.451, 1.472e-5
-1.452, 1.493e-5
-1.453, 1.508e-5
-1.454, 1.527e-5
-1.455, 1.548e-5
-1.456, 1.567e-5
-1.457, 1.586e-5
-1.458, 1.612e-5
-1.459, 1.631e-5
-1.460, 1.651e-5
-1.461, 1.677e-5
-1.462, 1.697e-5
-1.463, 1.717e-5
-1.464, 1.737e-5
-1.465, 1.762e-5
-1.466, 1.787e-5
-1.467, 1.812e-5
-1.468, 1.831e-5
-1.469, 1.861e-5
-1.470, 1.883e-5
-1.471, 1.908e-5
-1.472, 1.936e-5
-1.473, 1.966e-5
-1.474, 1.984e-5
-1.475, 2.011e-5
-1.476, 2.044e-5
-1.477, 2.071e-5
-1.478, 2.097e-5
-1.479, 2.127e-5
-1.480, 2.153e-5
-1.481, 2.183e-5
-1.482, 2.214e-5
-1.483, 2.246e-5
-1.484, 2.277e-5
-1.485, 2.305e-5
-1.486, 2.337e-5
-1.487, 2.368e-5
-1.488, 2.403e-5
-1.489, 2.432e-5
-1.490, 2.465e-5
-1.491, 2.499e-5
-1.492, 2.528e-5
-1.493, 2.565e-5
-1.494, 2.602e-5
-1.495, 2.637e-5
-1.496, 2.679e-5
-1.497, 2.711e-5
-1.498, 2.749e-5
-1.499, 2.781e-5
-1.500, 2.821e-5
-1.501, 2.861e-5
-1.502, 2.898e-5
-1.503, 2.938e-5
-1.504, 2.981e-5
-1.505, 3.020e-5
-1.506, 3.063e-5
-1.507, 3.106e-5
-1.508, 3.145e-5
-1.509, 3.178e-5
-1.510, 3.224e-5
-1.511, 3.268e-5
-1.512, 3.313e-5
-1.513, 3.354e-5
-1.514, 3.404e-5
-1.515, 3.462e-5
-1.516, 3.508e-5
-1.517, 3.562e-5
-1.518, 3.609e-5
-1.519, 3.663e-5
-1.520, 3.718e-5
-1.521, 3.755e-5
-1.522, 3.814e-5
-1.523, 3.866e-5
-1.524, 3.911e-5
-1.525, 3.974e-5
-1.526, 4.029e-5
-1.527, 4.089e-5
-1.528, 4.142e-5
-1.529, 4.200e-5
-1.530, 4.265e-5
-1.531, 4.315e-5
-1.532, 4.380e-5
-1.533, 4.443e-5
-1.534, 4.503e-5
-1.535, 4.571e-5
-1.536, 4.637e-5
-1.537, 4.704e-5
-1.538, 4.770e-5
-1.539, 4.846e-5
-1.540, 4.919e-5
-1.541, 4.993e-5
-1.542, 5.062e-5
-1.543, 5.123e-5
-1.544, 5.201e-5
-1.545, 5.284e-5
-1.546, 5.357e-5
-1.547, 5.438e-5
-1.548, 5.524e-5
-1.549, 5.603e-5
-1.550, 5.687e-5
-1.551, 5.779e-5
-1.552, 5.868e-5
-1.553, 5.942e-5
-1.554, 6.036e-5
-1.555, 6.134e-5
-1.556, 6.235e-5
-1.557, 6.338e-5
-1.558, 6.448e-5
-1.559, 6.551e-5
-1.560, 6.642e-5
-1.561, 6.739e-5
-1.562, 6.843e-5
-1.563, 6.946e-5
-1.564, 7.040e-5
-1.565, 7.138e-5
-1.566, 7.259e-5
-1.567, 7.374e-5
-1.568, 7.501e-5
-1.569, 7.620e-5
-1.570, 7.733e-5
-1.571, 7.860e-5
-1.572, 7.979e-5
-1.573, 8.109e-5
-1.574, 8.240e-5
-1.575, 8.370e-5
-1.576, 8.505e-5
-1.577, 8.670e-5
-1.578, 8.798e-5
-1.579, 8.930e-5
-1.580, 9.088e-5
-1.581, 9.232e-5
-1.582, 9.313e-5
-1.583, 9.441e-5
-1.584, 9.593e-5
-1.585, 9.771e-5
-1.586, 9.923e-5
-1.587, 1.010e-4
-1.588, 1.025e-4
-1.589, 1.043e-4
-1.590, 1.057e-4
-1.591, 1.076e-4
-1.592, 1.098e-4
-1.593, 1.118e-4
-1.594, 1.137e-4
-1.595, 1.156e-4
-1.596, 1.177e-4
-1.597, 1.196e-4
-1.598, 1.217e-4
-1.599, 1.238e-4
-1.600, 1.240e-4
-1.599, 1.227e-4
-1.598, 1.215e-4
-1.597, 1.204e-4
-1.596, 1.193e-4
-1.595, 1.180e-4
-1.594, 1.167e-4
-1.593, 1.156e-4
-1.592, 1.144e-4
-1.591, 1.131e-4
-1.590, 1.118e-4
-1.589, 1.098e-4
-1.588, 1.086e-4
-1.587, 1.073e-4
-1.586, 1.060e-4
-1.585, 1.047e-4
-1.584, 1.032e-4
-1.583, 1.020e-4
-1.582, 1.007e-4
-1.581, 9.951e-5
-1.580, 9.820e-5
-1.579, 9.691e-5
-1.578, 9.562e-5
-1.577, 9.458e-5
-1.576, 9.325e-5
-1.575, 9.194e-5
-1.574, 9.094e-5
-1.573, 8.961e-5
-1.572, 8.838e-5
-1.571, 8.729e-5
-1.570, 8.608e-5
-1.569, 8.487e-5
-1.568, 8.366e-5
-1.567, 8.258e-5
-1.566, 8.139e-5
-1.565, 8.028e-5
-1.564, 7.916e-5
-1.563, 7.803e-5
-1.562, 7.694e-5
-1.561, 7.580e-5
-1.560, 7.475e-5
-1.559, 7.365e-5
-1.558, 7.260e-5
-1.557, 7.153e-5
-1.556, 7.046e-5
-1.555, 6.958e-5
-1.554, 6.857e-5
-1.553, 6.746e-5
-1.552, 6.653e-5
-1.551, 6.554e-5
-1.550, 6.463e-5
-1.549, 6.362e-5
-1.548, 6.269e-5
-1.547, 6.172e-5
-1.546, 6.078e-5
-1.545, 5.985e-5
-1.544, 5.883e-5
-1.543, 5.796e-5
-1.542, 5.712e-5
-1.541, 5.623e-5
-1.540, 5.551e-5
-1.539, 5.468e-5
-1.538, 5.382e-5
-1.537, 5.294e-5
-1.536, 5.209e-5
-1.535, 5.134e-5
-1.534, 5.049e-5
-1.533, 4.982e-5
-1.532, 4.902e-5
-1.531, 4.818e-5
-1.530, 4.747e-5
-1.529, 4.673e-5
-1.528, 4.604e-5
-1.527, 4.522e-5
-1.526, 4.450e-5
-1.525, 4.382e-5
-1.524, 4.314e-5
-1.523, 4.250e-5
-1.522, 4.183e-5
-1.521, 4.120e-5
-1.520, 4.053e-5
-1.519, 3.989e-5
-1.518, 3.921e-5
-1.517, 3.862e-5
-1.516, 3.794e-5
-1.515, 3.743e-5
-1.514, 3.676e-5
-1.513, 3.616e-5
-1.512, 3.557e-5
-1.511, 3.498e-5
-1.510, 3.439e-5
-1.509, 3.383e-5
-1.508, 3.330e-5
-1.507, 3.277e-5
-1.506, 3.224e-5
-1.505, 3.167e-5
-1.504, 3.114e-5
-1.503, 3.069e-5
-1.502, 3.017e-5
-1.501, 2.967e-5
-1.500, 2.916e-5
-1.499, 2.870e-5
-1.498, 2.823e-5
-1.497, 2.778e-5
-1.496, 2.731e-5
-1.495, 2.680e-5
-1.494, 2.641e-5
-1.493, 2.600e-5
-1.492, 2.556e-5
-1.491, 2.508e-5
-1.490, 2.470e-5
-1.489, 2.430e-5
-1.488, 2.393e-5
-1.487, 2.348e-5
-1.486, 2.310e-5
-1.485, 2.271e-5
-1.484, 2.229e-5
-1.483, 2.201e-5
-1.482, 2.161e-5
-1.481, 2.122e-5
-1.480, 2.093e-5
-1.479, 2.056e-5
-1.478, 2.015e-5
-1.477, 1.984e-5
-1.476, 1.950e-5
-1.475, 1.918e-5
-1.474, 1.887e-5
-1.473, 1.851e-5
-1.472, 1.822e-5
-1.471, 1.794e-5
-1.470, 1.757e-5
-1.469, 1.730e-5
-1.468, 1.709e-5
-1.467, 1.671e-5
-1.466, 1.647e-5
-1.465, 1.608e-5
-1.464, 1.589e-5
-1.463, 1.564e-5
-1.462, 1.531e-5
-1.461, 1.509e-5
-1.460, 1.479e-5
-1.459, 1.459e-5
-1.458, 1.428e-5
-1.457, 1.406e-5
-1.456, 1.379e-5
-1.455, 1.357e-5
-1.454, 1.335e-5
-1.453, 1.316e-5
-1.452, 1.289e-5
-1.451, 1.267e-5
-1.450, 1.243e-5
-1.449, 1.219e-5
-1.448, 1.201e-5
-1.447, 1.175e-5
-1.446, 1.155e-5
-1.445, 1.133e-5
-1.444, 1.112e-5
-1.443, 1.095e-5
-1.442, 1.071e-5
-1.441, 1.057e-5
-1.440, 1.034e-5
-1.439, 1.016e-5
-1.438, 9.987e-6
-1.437, 9.793e-6
-1.436, 9.632e-6
-1.435, 9.384e-6
-1.434, 9.260e-6
-1.433, 9.103e-6
-1.432, 8.928e-6
-1.431, 8.698e-6
-1.430, 8.577e-6
-1.429, 8.473e-6
-1.428, 8.285e-6
-1.427, 8.142e-6
-1.426, 8.007e-6
-1.425, 7.849e-6
-1.424, 7.650e-6
-1.423, 7.544e-6
-1.422, 7.416e-6
-1.421, 7.250e-6
-1.420, 7.111e-6
-1.419, 7.025e-6
-1.418, 6.863e-6
-1.417, 6.716e-6
-1.416, 6.589e-6
-1.415, 6.489e-6
-1.414, 6.356e-6
-1.413, 6.195e-6
-1.412, 6.091e-6
-1.411, 5.975e-6
-1.410, 5.807e-6
-1.409, 5.819e-6
-1.408, 5.655e-6
-1.407, 5.551e-6
-1.406, 5.381e-6
-1.405, 5.301e-6
-1.404, 5.241e-6
-1.403, 5.126e-6
-1.402, 5.025e-6
-1.401, 4.934e-6
-1.400, 4.802e-6
-1.399, 4.709e-6
-1.398, 4.604e-6
-1.397, 4.574e-6
-1.396, 4.409e-6
-1.395, 4.342e-6
-1.394, 4.221e-6
-1.393, 4.176e-6
-1.392, 4.104e-6
-1.391, 3.992e-6
-1.390, 3.882e-6
-1.389, 3.846e-6
-1.388, 3.766e-6
-1.387, 3.703e-6
-1.386, 3.661e-6
-1.385, 3.540e-6
-1.384, 3.493e-6
-1.383, 3.411e-6
-1.382, 3.362e-6
-1.381, 3.262e-6
-1.380, 3.204e-6
-1.379, 3.139e-6
-1.378, 3.076e-6
-1.377, 2.995e-6
-1.376, 2.951e-6
-1.375, 2.908e-6
-1.374, 2.841e-6
-1.373, 2.808e-6
-1.372, 2.731e-6
-1.371, 2.647e-6
-1.370, 2.593e-6
-1.369, 2.544e-6
-1.368, 2.536e-6
-1.367, 2.463e-6
-1.366, 2.380e-6
-1.365, 2.359e-6
-1.364, 2.335e-6
-1.363, 2.243e-6
-1.362, 2.216e-6
-1.361, 2.191e-6
-1.360, 2.090e-6
-1.359, 2.071e-6
-1.358, 2.017e-6
-1.357, 1.979e-6
-1.356, 1.918e-6
-1.355, 1.859e-6
-1.354, 1.846e-6
-1.353, 1.824e-6
-1.352, 1.759e-6
-1.351, 1.727e-6
-1.350, 1.673e-6
-1.349, 1.693e-6
-1.348, 1.588e-6
-1.347, 1.546e-6
-1.346, 1.524e-6
-1.345, 1.531e-6
-1.344, 1.479e-6
-1.343, 1.459e-6
-1.342, 1.370e-6
-1.341, 1.398e-6
-1.340, 1.325e-6
-1.339, 1.337e-6
-1.338, 1.296e-6
-1.337, 1.281e-6
-1.336, 1.224e-6
-1.335, 1.187e-6
-1.334, 1.173e-6
-1.333, 1.134e-6
-1.332, 1.090e-6
-1.331, 1.090e-6
-1.330, 1.075e-6
-1.329, 1.027e-6
-1.328, 1.009e-6
-1.327, 9.696e-7
-1.326, 9.746e-7
-1.325, 9.094e-7
-1.324, 8.868e-7
-1.323, 8.986e-7
-1.322, 8.700e-7
-1.321, 8.552e-7
-1.320, 7.832e-7
-1.319, 8.059e-7
-1.318, 7.703e-7
-1.317, 7.407e-7
-1.316, 7.299e-7
-1.315, 6.993e-7
-1.314, 7.062e-7
-1.313, 6.677e-7
-1.312, 6.273e-7
-1.311, 6.440e-7
-1.310, 6.283e-7
-1.309, 5.977e-7
-1.308, 6.115e-7
-1.307, 5.740e-7
-1.306, 5.799e-7
-1.305, 5.109e-7
-1.304, 5.464e-7
-1.303, 5.464e-7
-1.302, 4.822e-7
-1.301, 5.069e-7
-1.300, 4.704e-7
-1.299, 4.536e-7
-1.298, 4.339e-7
-1.297, 4.300e-7
-1.296, 4.329e-7
-1.295, 4.004e-7
-1.294, 3.708e-7
-1.293, 4.260e-7
-1.292, 3.639e-7
-1.291, 3.639e-7
-1.290, 3.303e-7
-1.289, 3.589e-7
-1.288, 3.362e-7
-1.287, 2.839e-7
-1.286, 2.731e-7
-1.285, 2.820e-7
-1.284, 2.869e-7
-1.283, 2.711e-7
-1.282, 2.573e-7
-1.281, 2.691e-7
-1.280, 1.912e-7
-1.279, 2.188e-7
-1.278, 2.287e-7
-1.277, 2.257e-7
-1.276, 1.981e-7
-1.275, 1.794e-7
-1.274, 1.873e-7
-1.273, 1.892e-7
-1.272, 1.853e-7
-1.271, 1.389e-7
-1.270, 1.665e-7
-1.269, 1.064e-7
-1.268, 1.369e-7
-1.267, 1.172e-7
-1.266, 1.419e-7
-1.265, 1.024e-7
-1.264, 8.268e-8
-1.263, 1.083e-7
-1.262, 9.254e-8
-1.261, 9.057e-8
-1.260, 6.196e-8
-1.259, 6.689e-8
-1.258, 6.985e-8
-1.257, 7.577e-8
-1.256, 3.039e-8
-1.255, 5.604e-8
-1.254, 4.223e-8
-1.253, 2.052e-8
-1.252, 1.263e-8
-1.251, 4.736e-9
-1.250, -1.105e-8
-1.249, -4.144e-9
-1.248, 5.722e-9
-1.247, -2.881e-8
-1.246, -3.769e-8
-1.245, -4.459e-8
-1.244, -3.867e-8
-1.243, -5.249e-8
-1.242, -3.670e-8
-1.241, -4.657e-8
-1.240, -5.446e-8
-1.239, -8.011e-8
-1.238, -7.419e-8
-1.237, -8.110e-8
-1.236, -7.123e-8
-1.235, -9.787e-8
-1.234, -9.392e-8
-1.233, -8.406e-8
-1.232, -8.800e-8
-1.231, -1.354e-7
-1.230, -1.383e-7
-1.229, -1.127e-7
-1.228, -1.590e-7
-1.227, -1.393e-7
-1.226, -1.383e-7
-1.225, -1.452e-7
-1.224, -1.778e-7
-1.223, -1.640e-7
-1.222, -1.679e-7
-1.221, -1.600e-7
-1.220, -1.857e-7
-1.219, -1.916e-7
-1.218, -1.906e-7
-1.217, -1.788e-7
-1.216, -2.222e-7
-1.215, -2.380e-7
-1.214, -2.222e-7
-1.213, -1.955e-7
-1.212, -2.015e-7
-1.211, -2.439e-7
-1.210, -2.488e-7
-1.209, -2.419e-7
-1.208, -2.557e-7
-1.207, -2.330e-7
-1.206, -2.399e-7
-1.205, -2.784e-7
-1.204, -2.755e-7
-1.203, -2.903e-7
-1.202, -2.873e-7
-1.201, -2.843e-7
-1.200, -2.883e-7
-1.199, -2.764e-7
-1.198, -2.587e-7
-1.197, -2.922e-7
-1.196, -2.774e-7
-1.195, -3.169e-7
-1.194, -3.218e-7
-1.193, -3.110e-7
-1.192, -2.972e-7
-1.191, -2.991e-7
-1.190, -3.396e-7
-1.189, -3.139e-7
-1.188, -3.208e-7
-1.187, -3.149e-7
-1.186, -3.366e-7
-1.185, -3.652e-7
-1.184, -3.692e-7
-1.183, -3.277e-7
-1.182, -3.593e-7
-1.181, -3.623e-7
-1.180, -3.643e-7
-1.179, -3.386e-7
-1.178, -3.790e-7
-1.177, -4.057e-7
-1.176, -3.850e-7
-1.175, -3.721e-7
-1.174, -3.879e-7
-1.173, -3.938e-7
-1.172, -3.899e-7
-1.171, -3.830e-7
-1.170, -4.126e-7
-1.169, -4.225e-7
-1.168, -4.017e-7
-1.167, -4.017e-7
-1.166, -4.077e-7
-1.165, -4.442e-7
-1.164, -4.156e-7
-1.163, -4.106e-7
-1.162, -4.264e-7
-1.161, -4.471e-7
-1.160, -4.215e-7
-1.159, -4.600e-7
-1.158, -4.540e-7
-1.157, -4.382e-7
-1.156, -4.481e-7
-1.155, -4.333e-7
-1.154, -4.609e-7
-1.153, -4.698e-7
-1.152, -4.747e-7
-1.151, -4.471e-7
-1.150, -5.034e-7
-1.149, -4.738e-7
-1.148, -4.777e-7
-1.147, -4.600e-7
-1.146, -4.905e-7
-1.145, -4.797e-7
-1.144, -4.965e-7
-1.143, -5.024e-7
-1.142, -5.320e-7
-1.141, -4.836e-7
-1.140, -4.984e-7
-1.139, -5.487e-7
-1.138, -5.300e-7
-1.137, -5.142e-7
-1.136, -5.270e-7
-1.135, -5.487e-7
-1.134, -5.280e-7
-1.133, -5.359e-7
-1.132, -5.162e-7
-1.131, -5.675e-7
-1.130, -5.517e-7
-1.129, -5.379e-7
-1.128, -5.418e-7
-1.127, -5.645e-7
-1.126, -5.744e-7
-1.125, -5.606e-7
-1.124, -5.704e-7
-1.123, -6.060e-7
-1.122, -6.040e-7
-1.121, -5.675e-7
-1.120, -6.060e-7
-1.119, -6.366e-7
-1.118, -5.734e-7
-1.117, -5.783e-7
-1.116, -5.971e-7
-1.115, -6.435e-7
-1.114, -6.316e-7
-1.113, -5.971e-7
-1.112, -6.385e-7
-1.111, -6.356e-7
-1.110, -6.306e-7
-1.109, -6.494e-7
-1.108, -6.158e-7
-1.107, -6.592e-7
-1.106, -6.356e-7
-1.105, -6.474e-7
-1.104, -6.583e-7
-1.103, -6.661e-7
-1.102, -6.257e-7
-1.101, -6.632e-7
-1.100, -6.829e-7
-1.099, -6.711e-7
-1.098, -6.622e-7
-1.097, -6.652e-7
-1.096, -7.066e-7
-1.095, -7.253e-7
-1.094, -7.027e-7
-1.093, -6.632e-7
-1.092, -6.967e-7
-1.091, -6.879e-7
-1.090, -7.125e-7
-1.089, -7.017e-7
-1.088, -7.105e-7
-1.087, -7.234e-7
-1.086, -6.948e-7
-1.085, -7.244e-7
-1.084, -7.017e-7
-1.083, -7.579e-7
-1.082, -6.967e-7
-1.081, -7.293e-7
-1.080, -7.707e-7
-1.079, -7.392e-7
-1.078, -7.372e-7
-1.077, -7.549e-7
-1.076, -7.194e-7
-1.075, -7.786e-7
-1.074, -7.569e-7
-1.073, -7.579e-7
-1.072, -7.786e-7
-1.071, -7.688e-7
-1.070, -7.658e-7
-1.069, -7.855e-7
-1.068, -7.875e-7
-1.067, -7.757e-7
-1.066, -7.500e-7
-1.065, -8.132e-7
-1.064, -8.053e-7
-1.063, -7.806e-7
-1.062, -8.062e-7
-1.061, -8.319e-7
-1.060, -8.141e-7
-1.059, -8.043e-7
-1.058, -8.220e-7
-1.057, -8.191e-7
-1.056, -8.299e-7
-1.055, -8.378e-7
-1.054, -8.536e-7
-1.053, -8.408e-7
-1.052, -8.299e-7
-1.051, -8.191e-7
-1.050, -8.556e-7
-1.049, -8.546e-7
-1.048, -8.526e-7
-1.047, -8.447e-7
-1.046, -8.497e-7
-1.045, -8.891e-7
-1.044, -8.753e-7
-1.043, -8.635e-7
-1.042, -8.960e-7
-1.041, -8.773e-7
-1.040, -9.069e-7
-1.039, -8.911e-7
-1.038, -9.069e-7
-1.037, -9.079e-7
-1.036, -8.871e-7
-1.035, -9.069e-7
-1.034, -9.394e-7
-1.033, -9.503e-7
-1.032, -9.365e-7
-1.031, -9.296e-7
-1.030, -9.463e-7
-1.029, -9.552e-7
-1.028, -9.335e-7
-1.027, -9.513e-7
-1.026, -9.661e-7
-1.025, -9.611e-7
-1.024, -9.937e-7
-1.023, -9.710e-7
-1.022, -9.937e-7
-1.021, -9.878e-7
-1.020, -9.799e-7
-1.019, -1.013e-6
-1.018, -1.019e-6
-1.017, -1.018e-6
-1.016, -1.022e-6
-1.015, -1.013e-6
-1.014, -1.042e-6
-1.013, -1.037e-6
-1.012, -1.026e-6
-1.011, -1.040e-6
-1.010, -1.046e-6
-1.009, -1.071e-6
-1.008, -1.066e-6
-1.007, -1.050e-6
-1.006, -1.088e-6
-1.005, -1.068e-6
-1.004, -1.081e-6
-1.003, -1.063e-6
-1.002, -1.070e-6
-1.001, -1.079e-6
-1.000, -9.513e-7
-1.001, -8.921e-7
-1.002, -8.556e-7
-1.003, -8.053e-7
-1.004, -7.589e-7
-1.005, -7.056e-7
-1.006, -7.027e-7
-1.007, -6.592e-7
-1.008, -6.227e-7
-1.009, -6.040e-7
-1.010, -6.000e-7
-1.011, -5.912e-7
-1.012, -5.261e-7
-1.013, -5.211e-7
-1.014, -4.945e-7
-1.015, -4.856e-7
-1.016, -4.461e-7
-1.017, -4.225e-7
-1.018, -4.304e-7
-1.019, -3.899e-7
-1.020, -3.721e-7
-1.021, -3.810e-7
-1.022, -3.672e-7
-1.023, -3.425e-7
-1.024, -3.041e-7
-1.025, -2.863e-7
-1.026, -2.853e-7
-1.027, -2.814e-7
-1.028, -2.538e-7
-1.029, -2.409e-7
-1.030, -2.271e-7
-1.031, -2.508e-7
-1.032, -2.015e-7
-1.033, -2.123e-7
-1.034, -1.423e-7
-1.035, -1.531e-7
-1.036, -1.857e-7
-1.037, -1.344e-7
-1.038, -1.265e-7
-1.039, -9.392e-8
-1.040, -9.590e-8
-1.041, -1.067e-7
-1.042, -9.787e-8
-1.043, -6.729e-8
-1.044, -4.361e-8
-1.045, -4.065e-8
-1.046, -3.473e-8
-1.047, -5.130e-9
-1.048, -7.103e-9
-1.049, -2.881e-8
-1.050, 9.669e-9
-1.051, 1.559e-8
-1.052, 4.223e-8
-1.053, 2.052e-8
-1.054, 5.604e-8
-1.055, 8.366e-8
-1.056, 4.124e-8
-1.057, 2.447e-8
-1.058, 9.649e-8
-1.059, 9.846e-8
-1.060, 1.113e-7
-1.061, 8.860e-8
-1.062, 1.330e-7
-1.063, 1.231e-7
-1.064, 1.389e-7
-1.065, 1.360e-7
-1.066, 1.606e-7
-1.067, 1.715e-7
-1.068, 1.626e-7
-1.069, 1.675e-7
-1.070, 2.080e-7
-1.071, 1.863e-7
-1.072, 1.596e-7
-1.073, 2.109e-7
-1.074, 2.119e-7
-1.075, 2.109e-7
-1.076, 1.971e-7
-1.077, 2.366e-7
-1.078, 2.553e-7
-1.079, 2.652e-7
-1.080, 2.326e-7
-1.081, 2.543e-7
-1.082, 3.195e-7
-1.083, 2.662e-7
-1.084, 2.958e-7
-1.085, 2.938e-7
-1.086, 2.968e-7
-1.087, 3.343e-7
-1.088, 3.126e-7
-1.089, 3.540e-7
-1.090, 3.471e-7
-1.091, 3.007e-7
-1.092, 3.313e-7
-1.093, 3.678e-7
-1.094, 3.895e-7
-1.095, 3.708e-7
-1.096, 3.856e-7
-1.097, 3.767e-7
-1.098, 3.994e-7
-1.099, 4.280e-7
-1.100, 3.925e-7
-1.101, 4.408e-7
-1.102, 4.536e-7
-1.103, 4.112e-7
-1.104, 4.586e-7
-1.105, 4.576e-7
-1.106, 4.546e-7
-1.107, 4.605e-7
-1.108, 4.892e-7
-1.109, 4.872e-7
-1.110, 4.763e-7
-1.111, 4.862e-7
-1.112, 5.178e-7
-1.113, 4.941e-7
-1.114, 5.414e-7
-1.115, 5.178e-7
-1.116, 5.424e-7
-1.117, 5.493e-7
-1.118, 5.533e-7
-1.119, 5.987e-7
-1.120, 5.671e-7
-1.121, 5.779e-7
-1.122, 5.908e-7
-1.123, 6.085e-7
-1.124, 6.105e-7
-1.125, 5.839e-7
-1.126, 6.204e-7
-1.127, 6.391e-7
-1.128, 6.312e-7
-1.129, 6.371e-7
-1.130, 6.263e-7
-1.131, 6.490e-7
-1.132, 6.667e-7
-1.133, 6.391e-7
-1.134, 6.667e-7
-1.135, 7.092e-7
-1.136, 6.875e-7
-1.137, 7.092e-7
-1.138, 7.190e-7
-1.139, 7.003e-7
-1.140, 6.973e-7
-1.141, 7.299e-7
-1.142, 7.338e-7
-1.143, 7.299e-7
-1.144, 7.388e-7
-1.145, 7.072e-7
-1.146, 7.545e-7
-1.147, 7.615e-7
-1.148, 7.634e-7
-1.149, 7.802e-7
-1.150, 7.605e-7
-1.151, 7.763e-7
-1.152, 7.871e-7
-1.153, 8.147e-7
-1.154, 8.562e-7
-1.155, 7.901e-7
-1.156, 8.059e-7
-1.157, 8.147e-7
-1.158, 8.463e-7
-1.159, 8.374e-7
-1.160, 8.128e-7
-1.161, 8.433e-7
-1.162, 8.848e-7
-1.163, 8.759e-7
-1.164, 8.433e-7
-1.165, 8.502e-7
-1.166, 8.818e-7
-1.167, 9.045e-7
-1.168, 8.966e-7
-1.169, 8.956e-7
-1.170, 9.311e-7
-1.171, 8.848e-7
-1.172, 9.016e-7
-1.173, 9.351e-7
-1.174, 8.917e-7
-1.175, 9.420e-7
-1.176, 9.085e-7
-1.177, 9.233e-7
-1.178, 9.598e-7
-1.179, 9.548e-7
-1.180, 9.568e-7
-1.181, 9.627e-7
-1.182, 9.341e-7
-1.183, 1.006e-6
-1.184, 9.884e-7
-1.185, 9.805e-7
-1.186, 9.864e-7
-1.187, 1.003e-6
-1.188, 1.026e-6
-1.189, 9.815e-7
-1.190, 1.028e-6
-1.191, 1.011e-6
-1.192, 1.039e-6
-1.193, 1.036e-6
-1.194, 1.020e-6
-1.195, 1.038e-6
-1.196, 1.058e-6
-1.197, 1.057e-6
-1.198, 1.068e-6
-1.199, 1.090e-6
-1.200, 1.090e-6
-1.201, 1.047e-6
-1.202, 1.057e-6
-1.203, 1.121e-6
-1.204, 1.097e-6
-1.205, 1.105e-6
-1.206, 1.079e-6
-1.207, 1.115e-6
-1.208, 1.149e-6
-1.209, 1.134e-6
-1.210, 1.119e-6
-1.211, 1.124e-6
-1.212, 1.154e-6
-1.213, 1.152e-6
-1.214, 1.141e-6
-1.215, 1.144e-6
-1.216, 1.219e-6
-1.217, 1.157e-6
-1.218, 1.181e-6
-1.219, 1.191e-6
-1.220, 1.216e-6
-1.221, 1.173e-6
-1.222, 1.178e-6
-1.223, 1.208e-6
-1.224, 1.200e-6
-1.225, 1.221e-6
-1.226, 1.209e-6
-1.227, 1.216e-6
-1.228, 1.260e-6
-1.229, 1.266e-6
-1.230, 1.268e-6
-1.231, 1.236e-6
-1.232, 1.269e-6
-1.233, 1.280e-6
-1.234, 1.294e-6
-1.235, 1.294e-6
-1.236, 1.302e-6
-1.237, 1.285e-6
-1.238, 1.327e-6
-1.239, 1.300e-6
-1.240, 1.324e-6
-1.241, 1.318e-6
-1.242, 1.345e-6
-1.243, 1.369e-6
-1.244, 1.358e-6
-1.245, 1.373e-6
-1.246, 1.388e-6
-1.247, 1.379e-6
-1.248, 1.392e-6
-1.249, 1.410e-6
-1.250, 1.400e-6
-1.251, 1.379e-6
-1.252, 1.399e-6
-1.253, 1.453e-6
-1.254, 1.425e-6
-1.255, 1.423e-6
-1.256, 1.423e-6
-1.257, 1.466e-6
-1.258, 1.477e-6
-1.259, 1.471e-6
-1.260, 1.467e-6
-1.261, 1.526e-6
-1.262, 1.496e-6
-1.263, 1.515e-6
-1.264, 1.500e-6
-1.265, 1.521e-6
-1.266, 1.520e-6
-1.267, 1.539e-6
-1.268, 1.515e-6
-1.269, 1.543e-6
-1.270, 1.561e-6
-1.271, 1.566e-6
-1.272, 1.570e-6
-1.273, 1.589e-6
-1.274, 1.621e-6
-1.275, 1.636e-6
-1.276, 1.582e-6
-1.277, 1.636e-6
-1.278, 1.628e-6
-1.279, 1.634e-6
-1.280, 1.672e-6
-1.281, 1.651e-6
-1.282, 1.673e-6
-1.283, 1.707e-6
-1.284, 1.700e-6
-1.285, 1.692e-6
-1.286, 1.745e-6
-1.287, 1.715e-6
-1.288, 1.723e-6
-1.289, 1.763e-6
-1.290, 1.766e-6
-1.291, 1.771e-6
-1.292, 1.770e-6
-1.293, 1.804e-6
-1.294, 1.827e-6
-1.295, 1.832e-6
-1.296, 1.804e-6
-1.297, 1.847e-6
-1.298, 1.837e-6
-1.299, 1.877e-6
-1.300, 1.902e-6
-1.301, 1.889e-6
-1.302, 1.883e-6
-1.303, 1.954e-6
-1.304, 1.943e-6
-1.305, 1.918e-6
-1.306, 1.964e-6
-1.307, 1.965e-6
-1.308, 2.008e-6
-1.309, 2.002e-6
-1.310, 1.996e-6
-1.311, 2.063e-6
-1.312, 2.081e-6
-1.313, 2.077e-6
-1.314, 2.096e-6
-1.315, 2.122e-6
-1.316, 2.102e-6
-1.317, 2.128e-6
-1.318, 2.172e-6
-1.319, 2.215e-6
-1.320, 2.204e-6
-1.321, 2.173e-6
-1.322, 2.240e-6
-1.323, 2.244e-6
-1.324, 2.273e-6
-1.325, 2.304e-6
-1.326, 2.304e-6
-1.327, 2.370e-6
-1.328, 2.366e-6
-1.329, 2.389e-6
-1.330, 2.407e-6
-1.331, 2.444e-6
-1.332, 2.470e-6
-1.333, 2.510e-6
-1.334, 2.499e-6
-1.335, 2.537e-6
-1.336, 2.545e-6
-1.337, 2.604e-6
-1.338, 2.592e-6
-1.339, 2.647e-6
-1.340, 2.700e-6
-1.341, 2.684e-6
-1.342, 2.718e-6
-1.343, 2.733e-6
-1.344, 2.796e-6
-1.345, 2.858e-6
-1.346, 2.856e-6
-1.347, 2.892e-6
-1.348, 2.918e-6
-1.349, 2.957e-6
-1.350, 3.025e-6
-1.351, 2.972e-6
-1.352, 3.081e-6
-1.353, 3.070e-6
-1.354, 3.118e-6
-1.355, 3.182e-6
-1.356, 3.194e-6
-1.357, 3.239e-6
-1.358, 3.289e-6
-1.359, 3.325e-6
-1.360, 3.341e-6
-1.361, 3.424e-6
-1.362, 3.459e-6
-1.363, 3.484e-6
-1.364, 3.560e-6
-1.365, 3.606e-6
-1.366, 3.663e-6
-1.367, 3.683e-6
-1.368, 3.697e-6
-1.369, 3.783e-6
-1.370, 3.865e-6
-1.371, 3.918e-6
-1.372, 3.927e-6
-1.373, 4.010e-6
-1.374, 4.077e-6
-1.375, 4.151e-6
-1.376, 4.166e-6
-1.377, 4.229e-6
-1.378, 4.329e-6
-1.379, 4.370e-6
-1.380, 4.415e-6
-1.381, 4.488e-6
-1.382, 4.561e-6
-1.383, 4.599e-6
-1.384, 4.667e-6
-1.385, 4.736e-6
-1.386, 4.831e-6
-1.387, 4.888e-6
-1.388, 4.957e-6
-1.389, 5.036e-6
-1.390, 5.127e-6
-1.391, 5.184e-6
-1.392, 5.265e-6
-1.393, 5.318e-6
-1.394, 5.441e-6
-1.395, 5.510e-6
-1.396, 5.608e-6
-1.397, 5.664e-6
-1.398, 5.763e-6
-1.399, 5.827e-6
-1.400, 5.948e-6
-1.401, 5.970e-6
-1.402, 6.094e-6
-1.403, 6.188e-6
-1.404, 6.327e-6
-1.405, 6.384e-6
-1.406, 6.462e-6
-1.407, 6.592e-6
-1.408, 6.685e-6
-1.409, 6.820e-6
-1.410, 6.862e-6
-1.411, 6.962e-6
-1.412, 7.077e-6
-1.413, 7.199e-6
-1.414, 7.332e-6
-1.415, 7.439e-6
-1.416, 7.550e-6
-1.417, 7.622e-6
-1.418, 7.752e-6
-1.419, 7.872e-6
-1.420, 8.005e-6
-1.421, 8.123e-6
-1.422, 8.229e-6
-1.423, 8.347e-6
-1.424, 8.510e-6
-1.425, 8.640e-6
-1.426, 8.764e-6
-1.427, 8.851e-6
-1.428, 9.012e-6
-1.429, 9.161e-6
-1.430, 9.287e-6
-1.431, 9.405e-6
-1.432, 9.527e-6
-1.433, 9.723e-6
-1.434, 9.860e-6
-1.435, 9.998e-6
-1.436, 1.017e-5
-1.437, 1.029e-5
-1.438, 1.045e-5
-1.439, 1.061e-5
-1.440, 1.077e-5
-1.441, 1.097e-5
-1.442, 1.110e-5
-1.443, 1.127e-5
-1.444, 1.142e-5
-1.445, 1.163e-5
-1.446, 1.180e-5
-1.447, 1.194e-5
-1.448, 1.214e-5
-1.449, 1.236e-5
-1.450, 1.252e-5
-1.451, 1.267e-5
-1.452, 1.286e-5
-1.453, 1.308e-5
-1.454, 1.328e-5
-1.455, 1.347e-5
-1.456, 1.365e-5
-1.457, 1.381e-5
-1.458, 1.402e-5
-1.459, 1.426e-5
-1.460, 1.448e-5
-1.461, 1.467e-5
-1.462, 1.491e-5
-1.463, 1.511e-5
-1.464, 1.534e-5
-1.465, 1.548e-5
-1.466, 1.578e-5
-1.467, 1.596e-5
-1.468, 1.626e-5
-1.469, 1.645e-5
-1.470, 1.667e-5
-1.471, 1.693e-5
-1.472, 1.713e-5
-1.473, 1.744e-5
-1.474, 1.759e-5
-1.475, 1.789e-5
-1.476, 1.813e-5
-1.477, 1.839e-5
-1.478, 1.862e-5
-1.479, 1.888e-5
-1.480, 1.916e-5
-1.481, 1.947e-5
-1.482, 1.973e-5
-1.483, 1.993e-5
-1.484, 2.028e-5
-1.485, 2.059e-5
-1.486, 2.090e-5
-1.487, 2.122e-5
-1.488, 2.149e-5
-1.489, 2.185e-5
-1.490, 2.212e-5
-1.491, 2.246e-5
-1.492, 2.277e-5
-1.493, 2.310e-5
-1.494, 2.340e-5
-1.495, 2.377e-5
-1.496, 2.403e-5
-1.497, 2.444e-5
-1.498, 2.480e-5
-1.499, 2.510e-5
-1.500, 2.548e-5
-1.501, 2.585e-5
-1.502, 2.617e-5
-1.503, 2.655e-5
-1.504, 2.690e-5
-1.505, 2.737e-5
-1.506, 2.776e-5
-1.507, 2.814e-5
-1.508, 2.850e-5
-1.509, 2.898e-5
-1.510, 2.946e-5
-1.511, 2.984e-5
-1.512, 3.028e-5
-1.513, 3.072e-5
-1.514, 3.111e-5
-1.515, 3.161e-5
-1.516, 3.204e-5
-1.517, 3.248e-5
-1.518, 3.288e-5
-1.519, 3.338e-5
-1.520, 3.385e-5
-1.521, 3.426e-5
-1.522, 3.480e-5
-1.523, 3.534e-5
-1.524, 3.582e-5
-1.525, 3.637e-5
-1.526, 3.692e-5
-1.527, 3.740e-5
-1.528, 3.801e-5
-1.529, 3.846e-5
-1.530, 3.906e-5
-1.531, 3.972e-5
-1.532, 4.028e-5
-1.533, 4.088e-5
-1.534, 4.147e-5
-1.535, 4.214e-5
-1.536, 4.283e-5
-1.537, 4.346e-5
-1.538, 4.404e-5
-1.539, 4.477e-5
-1.540, 4.554e-5
-1.541, 4.603e-5
-1.542, 4.670e-5
-1.543, 4.742e-5
-1.544, 4.825e-5
-1.545, 4.905e-5
-1.546, 4.980e-5
-1.547, 5.065e-5
-1.548, 5.143e-5
-1.549, 5.219e-5
-1.550, 5.300e-5
-1.551, 5.383e-5
-1.552, 5.475e-5
-1.553, 5.564e-5
-1.554, 5.649e-5
-1.555, 5.735e-5
-1.556, 5.828e-5
-1.557, 5.919e-5
-1.558, 6.011e-5
-1.559, 6.105e-5
-1.560, 6.204e-5
-1.561, 6.297e-5
-1.562, 6.401e-5
-1.563, 6.506e-5
-1.564, 6.619e-5
-1.565, 6.721e-5
-1.566, 6.829e-5
-1.567, 6.940e-5
-1.568, 7.050e-5
-1.569, 7.168e-5
-1.570, 7.282e-5
-1.571, 7.397e-5
-1.572, 7.518e-5
-1.573, 7.636e-5
-1.574, 7.762e-5
-1.575, 7.901e-5
-1.576, 8.014e-5
-1.577, 8.159e-5
-1.578, 8.277e-5
-1.579, 8.421e-5
-1.580, 8.562e-5
-1.581, 8.702e-5
-1.582, 8.849e-5
-1.583, 8.996e-5
-1.584, 9.155e-5
-1.585, 9.312e-5
-1.586, 9.462e-5
-1.587, 9.630e-5
-1.588, 9.797e-5
-1.589, 9.968e-5
-1.590, 1.015e-4
-1.591, 1.030e-4
-1.592, 1.048e-4
-1.593, 1.065e-4
-1.594, 1.085e-4
-1.595, 1.102e-4
-1.596, 1.119e-4
-1.597, 1.136e-4
-1.598, 1.156e-4
-1.599, 1.175e-4
-1.600, 1.180e-4
-1.599, 1.167e-4
-1.598, 1.151e-4
-1.597, 1.138e-4
-1.596, 1.125e-4
-1.595, 1.111e-4
-1.594, 1.099e-4
-1.593, 1.085e-4
-1.592, 1.070e-4
-1.591, 1.058e-4
-1.590, 1.043e-4
-1.589, 1.031e-4
-1.588, 1.017e-4
-1.587, 1.004e-4
-1.586, 9.892e-5
-1.585, 9.769e-5
-1.584, 9.630e-5
-1.583, 9.506e-5
-1.582, 9.362e-5
-1.581, 9.213e-5
-1.580, 9.158e-5
-1.579, 8.978e-5
-1.578, 8.853e-5
-1.577, 8.738e-5
-1.576, 8.605e-5
-1.575, 8.483e-5
-1.574, 8.357e-5
-1.573, 8.237e-5
-1.572, 8.173e-5
-1.571, 8.010e-5
-1.570, 7.891e-5
-1.569, 7.764e-5
-1.568, 7.651e-5
-1.567, 7.532e-5
-1.566, 7.429e-5
-1.565, 7.317e-5
-1.564, 7.206e-5
-1.563, 7.099e-5
-1.562, 6.990e-5
-1.561, 6.931e-5
-1.560, 6.780e-5
-1.559, 6.673e-5
-1.558, 6.581e-5
-1.557, 6.480e-5
-1.556, 6.377e-5
-1.555, 6.280e-5
-1.554, 6.187e-5
-1.553, 6.090e-5
-1.552, 5.989e-5
-1.551, 5.903e-5
-1.550, 5.781e-5
-1.549, 5.705e-5
-1.548, 5.605e-5
-1.547, 5.506e-5
-1.546, 5.420e-5
-1.545, 5.336e-5
-1.544, 5.250e-5
-1.543, 5.159e-5
-1.542, 5.076e-5
-1.541, 5.002e-5
-1.540, 4.920e-5
-1.539, 4.841e-5
-1.538, 4.758e-5
-1.537, 4.679e-5
-1.536, 4.610e-5
-1.535, 4.567e-5
-1.534, 4.451e-5
-1.533, 4.387e-5
-1.532, 4.318e-5
-1.531, 4.246e-5
-1.530, 4.165e-5
-1.529, 4.103e-5
-1.528, 4.031e-5
-1.527, 3.965e-5
-1.526, 3.904e-5
-1.525, 3.836e-5
-1.524, 3.771e-5
-1.523, 3.709e-5
-1.522, 3.646e-5
-1.521, 3.594e-5
-1.520, 3.528e-5
-1.519, 3.473e-5
-1.518, 3.408e-5
-1.517, 3.333e-5
-1.516, 3.303e-5
-1.515, 3.242e-5
-1.514, 3.195e-5
-1.513, 3.138e-5
-1.512, 3.087e-5
-1.511, 3.039e-5
-1.510, 2.980e-5
-1.509, 2.932e-5
-1.508, 2.885e-5
-1.507, 2.838e-5
-1.506, 2.788e-5
-1.505, 2.743e-5
-1.504, 2.691e-5
-1.503, 2.643e-5
-1.502, 2.601e-5
-1.501, 2.553e-5
-1.500, 2.513e-5
-1.499, 2.473e-5
-1.498, 2.423e-5
-1.497, 2.385e-5
-1.496, 2.343e-5
-1.495, 2.299e-5
-1.494, 2.259e-5
-1.493, 2.223e-5
-1.492, 2.186e-5
-1.491, 2.145e-5
-1.490, 2.112e-5
-1.489, 2.078e-5
-1.488, 2.036e-5
-1.487, 1.997e-5
-1.486, 1.963e-5
-1.485, 1.927e-5
-1.484, 1.890e-5
-1.483, 1.859e-5
-1.482, 1.826e-5
-1.481, 1.791e-5
-1.480, 1.759e-5
-1.479, 1.733e-5
-1.478, 1.692e-5
-1.477, 1.669e-5
-1.476, 1.638e-5
-1.475, 1.613e-5
-1.474, 1.577e-5
-1.473, 1.549e-5
-1.472, 1.523e-5
-1.471, 1.495e-5
-1.470, 1.473e-5
-1.469, 1.439e-5
-1.468, 1.417e-5
-1.467, 1.388e-5
-1.466, 1.368e-5
-1.465, 1.347e-5
-1.464, 1.320e-5
-1.463, 1.299e-5
-1.462, 1.267e-5
-1.461, 1.246e-5
-1.460, 1.225e-5
-1.459, 1.198e-5
-1.458, 1.179e-5
-1.457, 1.155e-5
-1.456, 1.130e-5
-1.455, 1.110e-5
-1.454, 1.090e-5
-1.453, 1.071e-5
-1.452, 1.041e-5
-1.451, 1.032e-5
-1.450, 1.008e-5
-1.449, 9.932e-6
-1.448, 9.696e-6
-1.447, 9.526e-6
-1.446, 9.376e-6
-1.445, 9.197e-6
-1.444, 9.001e-6
-1.443, 8.808e-6
-1.442, 8.623e-6
-1.441, 8.513e-6
-1.440, 8.324e-6
-1.439, 8.143e-6
-1.438, 8.014e-6
-1.437, 7.862e-6
-1.436, 7.703e-6
-1.435, 7.543e-6
-1.434, 7.361e-6
-1.433, 7.202e-6
-1.432, 7.088e-6
-1.431, 6.970e-6
-1.430, 6.867e-6
-1.429, 6.709e-6
-1.428, 6.555e-6
-1.427, 6.441e-6
-1.426, 6.317e-6
-1.425, 6.200e-6
-1.424, 6.044e-6
-1.423, 5.931e-6
-1.422, 5.856e-6
-1.421, 5.664e-6
-1.420, 5.584e-6
-1.419, 5.516e-6
-1.418, 5.367e-6
-1.417, 5.254e-6
-1.416, 5.156e-6
-1.415, 5.045e-6
-1.414, 4.966e-6
-1.413, 4.826e-6
-1.412, 4.694e-6
-1.411, 4.620e-6
-1.410, 4.564e-6
-1.409, 4.464e-6
-1.408, 4.335e-6
-1.407, 4.277e-6
-1.406, 4.203e-6
-1.405, 4.121e-6
-1.404, 4.037e-6
-1.403, 3.921e-6
-1.402, 3.840e-6
-1.401, 3.783e-6
-1.400, 3.715e-6
-1.399, 3.608e-6
-1.398, 3.525e-6
-1.397, 3.501e-6
-1.396, 3.393e-6
-1.395, 3.295e-6
-1.394, 3.260e-6
-1.393, 3.153e-6
-1.392, 3.119e-6
-1.391, 3.081e-6
-1.390, 2.986e-6
-1.389, 2.909e-6
-1.388, 2.841e-6
-1.387, 2.786e-6
-1.386, 2.750e-6
-1.385, 2.670e-6
-1.384, 2.609e-6
-1.383, 2.557e-6
-1.382, 2.540e-6
-1.381, 2.433e-6
-1.380, 2.348e-6
-1.379, 2.315e-6
-1.378, 2.289e-6
-1.377, 2.231e-6
-1.376, 2.197e-6
-1.375, 2.162e-6
-1.374, 2.081e-6
-1.373, 2.014e-6
-1.372, 2.019e-6
-1.371, 1.946e-6
-1.370, 1.916e-6
-1.369, 1.840e-6
-1.368, 1.823e-6
-1.367, 1.789e-6
-1.366, 1.728e-6
-1.365, 1.671e-6
-1.364, 1.669e-6
-1.363, 1.621e-6
-1.362, 1.591e-6
-1.361, 1.534e-6
-1.360, 1.547e-6
-1.359, 1.494e-6
-1.358, 1.433e-6
-1.357, 1.388e-6
-1.356, 1.361e-6
-1.355, 1.348e-6
-1.354, 1.320e-6
-1.353, 1.258e-6
-1.352, 1.258e-6
-1.351, 1.201e-6
-1.350, 1.201e-6
-1.349, 1.141e-6
-1.348, 1.111e-6
-1.347, 1.111e-6
-1.346, 1.057e-6
-1.345, 1.082e-6
-1.344, 1.039e-6
-1.343, 9.736e-7
-1.342, 9.696e-7
-1.341, 9.134e-7
-1.340, 9.183e-7
-1.339, 8.887e-7
-1.338, 8.720e-7
-1.337, 8.305e-7
-1.336, 8.167e-7
-1.335, 7.960e-7
-1.334, 7.901e-7
-1.333, 7.812e-7
-1.332, 7.585e-7
-1.331, 7.052e-7
-1.330, 7.102e-7
-1.329, 6.993e-7
-1.328, 6.618e-7
-1.327, 6.431e-7
-1.326, 6.283e-7
-1.325, 6.085e-7
-1.324, 5.977e-7
-1.323, 5.760e-7
-1.322, 5.602e-7
-1.321, 5.237e-7
-1.320, 5.227e-7
-1.319, 5.306e-7
-1.318, 4.872e-7
-1.317, 4.586e-7
-1.316, 4.734e-7
-1.315, 4.280e-7
-1.314, 4.171e-7
-1.313, 3.836e-7
-1.312, 3.836e-7
-1.311, 3.974e-7
-1.310, 3.915e-7
-1.309, 3.658e-7
-1.308, 3.540e-7
-1.307, 3.333e-7
-1.306, 3.264e-7
-1.305, 3.037e-7
-1.304, 3.066e-7
-1.303, 2.484e-7
-1.302, 2.859e-7
-1.301, 2.553e-7
-1.300, 2.366e-7
-1.299, 2.188e-7
-1.298, 2.011e-7
-1.297, 2.435e-7
-1.296, 2.247e-7
-1.295, 2.139e-7
-1.294, 1.912e-7
-1.293, 1.527e-7
-1.292, 1.715e-7
-1.291, 1.823e-7
-1.290, 1.409e-7
-1.289, 1.182e-7
-1.288, 1.133e-7
-1.287, 1.261e-7
-1.286, 1.281e-7
-1.285, 8.662e-8
-1.284, 8.662e-8
-1.283, 8.070e-8
-1.282, 9.649e-8
-1.281, 9.353e-8
-1.280, 5.505e-8
-1.279, 3.828e-8
-1.278, 2.743e-8
-1.277, 4.025e-8
-1.276, 5.407e-8
-1.275, 1.066e-8
-1.274, 1.460e-8
-1.273, 1.559e-8
-1.272, 2.644e-8
-1.271, 4.736e-9
-1.270, -2.881e-8
-1.269, -4.065e-8
-1.268, -2.289e-8
-1.267, -4.657e-8
-1.266, -2.684e-8
-1.265, -7.222e-8
-1.264, -8.208e-8
-1.263, -7.912e-8
-1.262, -9.392e-8
-1.261, -9.886e-8
-1.260, -9.590e-8
-1.259, -1.383e-7
-1.258, -9.688e-8
-1.257, -1.038e-7
-1.256, -1.038e-7
-1.255, -1.433e-7
-1.254, -1.403e-7
-1.253, -1.600e-7
-1.252, -1.413e-7
-1.251, -1.531e-7
-1.250, -1.472e-7
-1.249, -1.363e-7
-1.248, -1.650e-7
-1.247, -1.669e-7
-1.246, -1.896e-7
-1.245, -2.024e-7
-1.244, -2.074e-7
-1.243, -1.798e-7
-1.242, -1.847e-7
-1.241, -2.143e-7
-1.240, -2.054e-7
-1.239, -2.064e-7
-1.238, -2.123e-7
-1.237, -1.916e-7
-1.236, -2.232e-7
-1.235, -2.587e-7
-1.234, -2.113e-7
-1.233, -2.320e-7
-1.232, -2.547e-7
-1.231, -2.271e-7
-1.230, -2.656e-7
-1.229, -2.587e-7
-1.228, -2.528e-7
-1.227, -2.883e-7
-1.226, -2.794e-7
-1.225, -2.922e-7
-1.224, -3.011e-7
-1.223, -2.932e-7
-1.222, -3.031e-7
-1.221, -3.208e-7
-1.220, -3.110e-7
-1.219, -3.001e-7
-1.218, -3.070e-7
-1.217, -3.110e-7
-1.216, -3.396e-7
-1.215, -3.199e-7
-1.214, -3.297e-7
-1.213, -3.169e-7
-1.212, -3.287e-7
-1.211, -3.425e-7
-1.210, -3.712e-7
-1.209, -3.603e-7
-1.208, -3.435e-7
-1.207, -3.573e-7
-1.206, -3.702e-7
-1.205, -3.938e-7
-1.204, -3.583e-7
-1.203, -3.761e-7
-1.202, -3.741e-7
-1.201, -3.909e-7
-1.200, -3.850e-7
-1.199, -4.057e-7
-1.198, -3.919e-7
-1.197, -4.136e-7
-1.196, -4.146e-7
-1.195, -4.146e-7
-1.194, -4.017e-7
-1.193, -4.284e-7
-1.192, -4.165e-7
-1.191, -4.037e-7
-1.190, -4.343e-7
-1.189, -4.284e-7
-1.188, -4.264e-7
-1.187, -4.521e-7
-1.186, -4.461e-7
-1.185, -4.471e-7
-1.184, -4.412e-7
-1.183, -4.244e-7
-1.182, -4.491e-7
-1.181, -4.274e-7
-1.180, -4.491e-7
-1.179, -4.432e-7
-1.178, -5.113e-7
-1.177, -4.817e-7
-1.176, -4.807e-7
-1.175, -4.955e-7
-1.174, -4.747e-7
-1.173, -5.024e-7
-1.172, -4.886e-7
-1.171, -4.836e-7
-1.170, -4.807e-7
-1.169, -4.915e-7
-1.168, -5.270e-7
-1.167, -5.043e-7
-1.166, -4.974e-7
-1.165, -5.073e-7
-1.164, -5.280e-7
-1.163, -5.280e-7
-1.162, -5.330e-7
-1.161, -5.231e-7
-1.160, -5.231e-7
-1.159, -5.251e-7
-1.158, -5.270e-7
-1.157, -5.458e-7
-1.156, -5.251e-7
-1.155, -5.300e-7
-1.154, -5.310e-7
-1.153, -5.596e-7
-1.152, -5.971e-7
-1.151, -5.547e-7
-1.150, -5.507e-7
-1.149, -5.339e-7
-1.148, -5.892e-7
-1.147, -5.833e-7
-1.146, -5.813e-7
-1.145, -5.744e-7
-1.144, -5.744e-7
-1.143, -5.902e-7
-1.142, -5.803e-7
-1.141, -6.385e-7
-1.140, -6.040e-7
-1.139, -5.862e-7
-1.138, -6.237e-7
-1.137, -6.070e-7
-1.136, -6.267e-7
-1.135, -5.971e-7
-1.134, -6.020e-7
-1.133, -6.592e-7
-1.132, -6.444e-7
-1.131, -6.543e-7
-1.130, -6.040e-7
-1.129, -6.356e-7
-1.128, -6.425e-7
-1.127, -6.395e-7
-1.126, -6.829e-7
-1.125, -6.257e-7
-1.124, -6.671e-7
-1.123, -6.652e-7
-1.122, -6.622e-7
-1.121, -6.829e-7
-1.120, -6.711e-7
-1.119, -6.731e-7
-1.118, -6.770e-7
-1.117, -7.056e-7
-1.116, -7.036e-7
-1.115, -6.790e-7
-1.114, -6.977e-7
-1.113, -7.204e-7
-1.112, -7.184e-7
-1.111, -6.928e-7
-1.110, -7.214e-7
-1.109, -7.036e-7
-1.108, -7.165e-7
-1.107, -7.175e-7
-1.106, -7.332e-7
-1.105, -7.244e-7
-1.104, -7.263e-7
-1.103, -7.451e-7
-1.102, -7.579e-7
-1.101, -7.658e-7
-1.100, -7.441e-7
-1.099, -7.618e-7
-1.098, -7.697e-7
-1.097, -7.668e-7
-1.096, -7.727e-7
-1.095, -7.737e-7
-1.094, -7.836e-7
-1.093, -7.697e-7
-1.092, -7.816e-7
-1.091, -8.082e-7
-1.090, -7.984e-7
-1.089, -7.776e-7
-1.088, -8.289e-7
-1.087, -8.043e-7
-1.086, -8.013e-7
-1.085, -8.053e-7
-1.084, -8.072e-7
-1.083, -8.270e-7
-1.082, -8.319e-7
-1.081, -8.674e-7
-1.080, -8.151e-7
-1.079, -8.220e-7
-1.078, -8.467e-7
-1.077, -8.339e-7
-1.076, -8.822e-7
-1.075, -8.516e-7
-1.074, -8.467e-7
-1.073, -8.635e-7
-1.072, -8.674e-7
-1.071, -8.763e-7
-1.070, -8.773e-7
-1.069, -8.832e-7
-1.068, -9.010e-7
-1.067, -9.079e-7
-1.066, -8.950e-7
-1.065, -9.098e-7
-1.064, -8.753e-7
-1.063, -9.167e-7
-1.062, -9.108e-7
-1.061, -9.227e-7
-1.060, -9.276e-7
-1.059, -9.207e-7
-1.058, -9.463e-7
-1.057, -9.246e-7
-1.056, -9.246e-7
-1.055, -9.365e-7
-1.054, -9.592e-7
-1.053, -9.355e-7
-1.052, -9.444e-7
-1.051, -9.671e-7
-1.050, -9.927e-7
-1.049, -9.473e-7
-1.048, -9.680e-7
-1.047, -1.030e-6
-1.046, -9.789e-7
-1.045, -9.779e-7
-1.044, -9.858e-7
-1.043, -1.002e-6
-1.042, -9.809e-7
-1.041, -1.015e-6
-1.040, -9.967e-7
-1.039, -1.011e-6
-1.038, -1.037e-6
-1.037, -1.031e-6
-1.036, -1.049e-6
-1.035, -1.006e-6
-1.034, -1.026e-6
-1.033, -1.054e-6
-1.032, -1.053e-6
-1.031, -1.044e-6
-1.030, -1.017e-6
-1.029, -1.055e-6
-1.028, -1.090e-6
-1.027, -1.070e-6
-1.026, -1.032e-6
-1.025, -1.058e-6
-1.024, -1.089e-6
-1.023, -1.100e-6
-1.022, -1.097e-6
-1.021, -1.089e-6
-1.020, -1.112e-6
-1.019, -1.084e-6
-1.018, -1.123e-6
-1.017, -1.096e-6
-1.016, -1.103e-6
-1.015, -1.102e-6
-1.014, -1.132e-6
-1.013, -1.140e-6
-1.012, -1.133e-6
-1.011, -1.120e-6
-1.010, -1.120e-6
-1.009, -1.102e-6
-1.008, -1.140e-6
-1.007, -1.162e-6
-1.006, -1.171e-6
-1.005, -1.144e-6
-1.004, -1.128e-6
-1.003, -1.169e-6
-1.002, -1.168e-6
-1.001, -1.183e-6
-1.000, -1.059e-6
-1.001, -9.611e-7
-1.002, -9.286e-7
-1.003, -8.822e-7
-1.004, -8.625e-7
-1.005, -7.944e-7
-1.006, -7.865e-7
-1.007, -7.569e-7
-1.008, -7.253e-7
-1.009, -7.115e-7
-1.010, -6.918e-7
-1.011, -6.484e-7
-1.012, -6.148e-7
-1.013, -6.296e-7
-1.014, -5.852e-7
-1.015, -5.448e-7
-1.016, -5.497e-7
-1.017, -5.093e-7
-1.018, -5.103e-7
-1.019, -4.649e-7
-1.020, -4.738e-7
-1.021, -4.580e-7
-1.022, -4.402e-7
-1.023, -4.392e-7
-1.024, -3.781e-7
-1.025, -3.761e-7
-1.026, -3.445e-7
-1.027, -3.554e-7
-1.028, -3.633e-7
-1.029, -3.169e-7
-1.030, -3.307e-7
-1.031, -2.962e-7
-1.032, -2.794e-7
-1.033, -2.912e-7
-1.034, -2.587e-7
-1.035, -2.429e-7
-1.036, -2.498e-7
-1.037, -2.064e-7
-1.038, -2.330e-7
-1.039, -2.054e-7
-1.040, -1.719e-7
-1.041, -1.620e-7
-1.042, -1.571e-7
-1.043, -1.650e-7
-1.044, -1.324e-7
-1.045, -1.117e-7
-1.046, -1.008e-7
-1.047, -1.077e-7
-1.048, -1.048e-7
-1.049, -8.208e-8
-1.050, -2.980e-8
-1.051, -3.670e-8
-1.052, -4.163e-8
-1.053, -6.038e-8
-1.054, -4.065e-8
-1.055, -1.184e-9
-1.056, 1.263e-8
-1.057, -4.144e-9
-1.058, -1.973e-10
-1.059, -6.117e-9
-1.060, 5.703e-8
-1.061, 3.828e-8
-1.062, 4.321e-8
-1.063, 5.505e-8
-1.064, 5.111e-8
-1.065, 9.452e-8
-1.066, 8.860e-8
-1.067, 1.064e-7
-1.068, 9.945e-8
-1.069, 8.465e-8
-1.070, 1.142e-7
-1.071, 1.103e-7
-1.072, 1.271e-7
-1.073, 1.152e-7
-1.074, 1.468e-7
-1.075, 1.409e-7
-1.076, 1.596e-7
-1.077, 2.001e-7
-1.078, 1.734e-7
-1.079, 2.109e-7
-1.080, 1.774e-7
-1.081, 1.991e-7
-1.082, 2.149e-7
-1.083, 2.109e-7
-1.084, 2.563e-7
-1.085, 2.267e-7
-1.086, 2.978e-7
-1.087, 2.366e-7
-1.088, 2.751e-7
-1.089, 2.770e-7
-1.090, 2.879e-7
-1.091, 2.918e-7
-1.092, 2.839e-7
-1.093, 2.958e-7
-1.094, 3.274e-7
-1.095, 3.106e-7
-1.096, 3.264e-7
-1.097, 3.027e-7
-1.098, 3.441e-7
-1.099, 3.520e-7
-1.100, 3.392e-7
-1.101, 3.708e-7
-1.102, 3.737e-7
-1.103, 3.846e-7
-1.104, 3.944e-7
-1.105, 3.816e-7
-1.106, 4.004e-7
-1.107, 3.619e-7
-1.108, 4.043e-7
-1.109, 4.329e-7
-1.110, 4.211e-7
-1.111, 4.161e-7
-1.112, 4.201e-7
-1.113, 4.122e-7
-1.114, 4.507e-7
-1.115, 4.171e-7
-1.116, 4.487e-7
-1.117, 4.694e-7
-1.118, 4.605e-7
-1.119, 4.694e-7
-1.120, 4.911e-7
-1.121, 5.010e-7
-1.122, 4.734e-7
-1.123, 4.882e-7
-1.124, 4.961e-7
-1.125, 5.030e-7
-1.126, 5.128e-7
-1.127, 5.237e-7
-1.128, 5.306e-7
-1.129, 5.543e-7
-1.130, 5.572e-7
-1.131, 5.671e-7
-1.132, 5.434e-7
-1.133, 5.671e-7
-1.134, 5.710e-7
-1.135, 6.095e-7
-1.136, 5.987e-7
-1.137, 5.691e-7
-1.138, 5.839e-7
-1.139, 6.204e-7
-1.140, 6.381e-7
-1.141, 6.362e-7
-1.142, 6.233e-7
-1.143, 6.253e-7
-1.144, 6.233e-7
-1.145, 6.549e-7
-1.146, 6.677e-7
-1.147, 6.529e-7
-1.148, 6.421e-7
-1.149, 6.559e-7
-1.150, 6.667e-7
-1.151, 6.954e-7
-1.152, 6.815e-7
-1.153, 6.944e-7
-1.154, 6.875e-7
-1.155, 7.092e-7
-1.156, 7.161e-7
-1.157, 6.934e-7
-1.158, 7.023e-7
-1.159, 6.963e-7
-1.160, 7.368e-7
-1.161, 7.545e-7
-1.162, 7.200e-7
-1.163, 7.368e-7
-1.164, 7.299e-7
-1.165, 7.822e-7
-1.166, 7.901e-7
-1.167, 7.960e-7
-1.168, 7.615e-7
-1.169, 7.733e-7
-1.170, 7.989e-7
-1.171, 8.088e-7
-1.172, 8.009e-7
-1.173, 8.276e-7
-1.174, 8.305e-7
-1.175, 8.147e-7
-1.176, 8.384e-7
-1.177, 8.345e-7
-1.178, 8.384e-7
-1.179, 8.424e-7
-1.180, 8.917e-7
-1.181, 8.720e-7
-1.182, 8.552e-7
-1.183, 8.739e-7
-1.184, 8.818e-7
-1.185, 8.976e-7
-1.186, 9.262e-7
-1.187, 8.818e-7
-1.188, 9.272e-7
-1.189, 9.055e-7
-1.190, 9.282e-7
-1.191, 9.677e-7
-1.192, 9.302e-7
-1.193, 9.381e-7
-1.194, 9.499e-7
-1.195, 9.331e-7
-1.196, 9.746e-7
-1.197, 9.913e-7
-1.198, 9.825e-7
-1.199, 9.755e-7
-1.200, 9.874e-7
-1.201, 1.010e-6
-1.202, 1.009e-6
-1.203, 9.943e-7
-1.204, 1.015e-6
-1.205, 1.004e-6
-1.206, 1.047e-6
-1.207, 1.041e-6
-1.208, 1.035e-6
-1.209, 1.019e-6
-1.210, 1.046e-6
-1.211, 1.055e-6
-1.212, 1.052e-6
-1.213, 1.078e-6
-1.214, 1.093e-6
-1.215, 1.080e-6
-1.216, 1.110e-6
-1.217, 1.081e-6
-1.218, 1.111e-6
-1.219, 1.094e-6
-1.220, 1.123e-6
-1.221, 1.132e-6
-1.222, 1.124e-6
-1.223, 1.137e-6
-1.224, 1.147e-6
-1.225, 1.109e-6
-1.226, 1.151e-6
-1.227, 1.143e-6
-1.228, 1.152e-6
-1.229, 1.192e-6
-1.230, 1.183e-6
-1.231, 1.199e-6
-1.232, 1.166e-6
-1.233, 1.169e-6
-1.234, 1.221e-6
-1.235, 1.221e-6
-1.236, 1.209e-6
-1.237, 1.182e-6
-1.238, 1.235e-6
-1.239, 1.249e-6
-1.240, 1.285e-6
-1.241, 1.238e-6
-1.242, 1.224e-6
-1.243, 1.267e-6
-1.244, 1.279e-6
-1.245, 1.271e-6
-1.246, 1.293e-6
-1.247, 1.280e-6
-1.248, 1.286e-6
-1.249, 1.280e-6
-1.250, 1.346e-6
-1.251, 1.311e-6
-1.252, 1.341e-6
-1.253, 1.323e-6
-1.254, 1.322e-6
-1.255, 1.340e-6
-1.256, 1.374e-6
-1.257, 1.351e-6
-1.258, 1.356e-6
-1.259, 1.365e-6
-1.260, 1.390e-6
-1.261, 1.404e-6
-1.262, 1.406e-6
-1.263, 1.409e-6
-1.264, 1.425e-6
-1.265, 1.405e-6
-1.266, 1.461e-6
-1.267, 1.420e-6
-1.268, 1.451e-6
-1.269, 1.454e-6
-1.270, 1.481e-6
-1.271, 1.479e-6
-1.272, 1.484e-6
-1.273, 1.498e-6
-1.274, 1.518e-6
-1.275, 1.505e-6
-1.276, 1.526e-6
-1.277, 1.526e-6
-1.278, 1.531e-6
-1.279, 1.569e-6
-1.280, 1.544e-6
-1.281, 1.561e-6
-1.282, 1.575e-6
-1.283, 1.570e-6
-1.284, 1.608e-6
-1.285, 1.619e-6
-1.286, 1.621e-6
-1.287, 1.596e-6
-1.288, 1.641e-6
-1.289, 1.650e-6
-1.290, 1.662e-6
-1.291, 1.671e-6
-1.292, 1.683e-6
-1.293, 1.681e-6
-1.294, 1.685e-6
-1.295, 1.707e-6
-1.296, 1.716e-6
-1.297, 1.744e-6
-1.298, 1.719e-6
-1.299, 1.756e-6
-1.300, 1.788e-6
-1.301, 1.801e-6
-1.302, 1.786e-6
-1.303, 1.818e-6
-1.304, 1.841e-6
-1.305, 1.833e-6
-1.306, 1.845e-6
-1.307, 1.857e-6
-1.308, 1.869e-6
-1.309, 1.906e-6
-1.310, 1.915e-6
-1.311, 1.900e-6
-1.312, 1.950e-6
-1.313, 1.935e-6
-1.314, 1.981e-6
-1.315, 1.947e-6
-1.316, 1.989e-6
-1.317, 2.009e-6
-1.318, 2.017e-6
-1.319, 2.074e-6
-1.320, 2.057e-6
-1.321, 2.095e-6
-1.322, 2.125e-6
-1.323, 2.140e-6
-1.324, 2.166e-6
-1.325, 2.146e-6
-1.326, 2.202e-6
-1.327, 2.219e-6
-1.328, 2.233e-6
-1.329, 2.239e-6
-1.330, 2.274e-6
-1.331, 2.301e-6
-1.332, 2.335e-6
-1.333, 2.330e-6
-1.334, 2.376e-6
-1.335, 2.365e-6
-1.336, 2.425e-6
-1.337, 2.449e-6
-1.338, 2.453e-6
-1.339, 2.468e-6
-1.340, 2.515e-6
-1.341, 2.527e-6
-1.342, 2.595e-6
-1.343, 2.567e-6
-1.344, 2.614e-6
-1.345, 2.654e-6
-1.346, 2.700e-6
-1.347, 2.737e-6
-1.348, 2.712e-6
-1.349, 2.763e-6
-1.350, 2.834e-6
-1.351, 2.852e-6
-1.352, 2.880e-6
-1.353, 2.876e-6
-1.354, 2.898e-6
-1.355, 2.953e-6
-1.356, 3.006e-6
-1.357, 3.048e-6
-1.358, 3.041e-6
-1.359, 3.102e-6
-1.360, 3.172e-6
-1.361, 3.184e-6
-1.362, 3.246e-6
-1.363, 3.253e-6
-1.364, 3.319e-6
-1.365, 3.375e-6
-1.366, 3.419e-6
-1.367, 3.430e-6
-1.368, 3.483e-6
-1.369, 3.510e-6
-1.370, 3.613e-6
-1.371, 3.657e-6
-1.372, 3.671e-6
-1.373, 3.716e-6
-1.374, 3.769e-6
-1.375, 3.829e-6
-1.376, 3.878e-6
-1.377, 3.929e-6
-1.378, 4.019e-6
-1.379, 4.018e-6
-1.380, 4.075e-6
-1.381, 4.124e-6
-1.382, 4.212e-6
-1.383, 4.272e-6
-1.384, 4.343e-6
-1.385, 4.377e-6
-1.386, 4.440e-6
-1.387, 4.520e-6
-1.388, 4.607e-6
-1.389, 4.661e-6
-1.390, 4.720e-6
-1.391, 4.814e-6
-1.392, 4.874e-6
-1.393, 4.938e-6
-1.394, 5.038e-6
-1.395, 5.051e-6
-1.396, 5.179e-6
-1.397, 5.274e-6
-1.398, 5.338e-6
-1.399, 5.398e-6
-1.400, 5.507e-6
-1.401, 5.584e-6
-1.402, 5.665e-6
-1.403, 5.725e-6
-1.404, 5.838e-6
-1.405, 5.922e-6
-1.406, 6.013e-6
-1.407, 6.069e-6
-1.408, 6.176e-6
-1.409, 6.290e-6
-1.410, 6.383e-6
-1.411, 6.486e-6
-1.412, 6.573e-6
-1.413, 6.680e-6
-1.414, 6.806e-6
-1.415, 6.890e-6
-1.416, 7.003e-6
-1.417, 7.088e-6
-1.418, 7.225e-6
-1.419, 7.337e-6
-1.420, 7.447e-6
-1.421, 7.559e-6
-1.422, 7.654e-6
-1.423, 7.779e-6
-1.424, 7.894e-6
-1.425, 8.029e-6
-1.426, 8.169e-6
-1.427, 8.258e-6
-1.428, 8.420e-6
-1.429, 8.538e-6
-1.430, 8.682e-6
-1.431, 8.825e-6
-1.432, 8.942e-6
-1.433, 9.131e-6
-1.434, 9.255e-6
-1.435, 9.358e-6
-1.436, 9.545e-6
-1.437, 9.700e-6
-1.438, 9.851e-6
-1.439, 9.967e-6
-1.440, 1.013e-5
-1.441, 1.031e-5
-1.442, 1.048e-5
-1.443, 1.065e-5
-1.444, 1.081e-5
-1.445, 1.096e-5
-1.446, 1.116e-5
-1.447, 1.128e-5
-1.448, 1.150e-5
-1.449, 1.164e-5
-1.450, 1.185e-5
-1.451, 1.204e-5
-1.452, 1.220e-5
-1.453, 1.237e-5
-1.454, 1.259e-5
-1.455, 1.275e-5
-1.456, 1.295e-5
-1.457, 1.320e-5
-1.458, 1.335e-5
-1.459, 1.356e-5
-1.460, 1.380e-5
-1.461, 1.398e-5
-1.462, 1.423e-5
-1.463, 1.438e-5
-1.464, 1.462e-5
-1.465, 1.484e-5
-1.466, 1.507e-5
-1.467, 1.527e-5
-1.468, 1.546e-5
-1.469, 1.571e-5
-1.470, 1.594e-5
-1.471, 1.618e-5
-1.472, 1.640e-5
-1.473, 1.666e-5
-1.474, 1.687e-5
-1.475, 1.718e-5
-1.476, 1.744e-5
-1.477, 1.770e-5
-1.478, 1.790e-5
-1.479, 1.820e-5
-1.480, 1.844e-5
-1.481, 1.873e-5
-1.482, 1.901e-5
-1.483, 1.930e-5
-1.484, 1.959e-5
-1.485, 1.993e-5
-1.486, 2.021e-5
-1.487, 2.045e-5
-1.488, 2.080e-5
-1.489, 2.107e-5
-1.490, 2.141e-5
-1.491, 2.166e-5
-1.492, 2.203e-5
-1.493, 2.234e-5
-1.494, 2.260e-5
-1.495, 2.300e-5
-1.496, 2.331e-5
-1.497, 2.364e-5
-1.498, 2.397e-5
-1.499, 2.429e-5
-1.500, 2.468e-5
-1.501, 2.498e-5
-1.502, 2.534e-5
-1.503, 2.572e-5
-1.504, 2.598e-5
-1.505, 2.638e-5
-1.506, 2.679e-5
-1.507, 2.719e-5
-1.508, 2.764e-5
-1.509, 2.801e-5
-1.510, 2.841e-5
-1.511, 2.886e-5
-1.512, 2.934e-5
-1.513, 2.973e-5
-1.514, 3.022e-5
-1.515, 3.065e-5
-1.516, 3.112e-5
-1.517, 3.157e-5
-1.518, 3.202e-5
-1.519, 3.252e-5
-1.520, 3.298e-5
-1.521, 3.348e-5
-1.522, 3.401e-5
-1.523, 3.444e-5
-1.524, 3.492e-5
-1.525, 3.538e-5
-1.526, 3.592e-5
-1.527, 3.651e-5
-1.528, 3.706e-5
-1.529, 3.756e-5
-1.530, 3.811e-5
-1.531, 3.872e-5
-1.532, 3.921e-5
-1.533, 3.977e-5
-1.534, 4.034e-5
-1.535, 4.108e-5
-1.536, 4.173e-5
-1.537, 4.231e-5
-1.538, 4.292e-5
-1.539, 4.363e-5
-1.540, 4.431e-5
-1.541, 4.491e-5
-1.542, 4.560e-5
-1.543, 4.626e-5
-1.544, 4.695e-5
-1.545, 4.776e-5
-1.546, 4.846e-5
-1.547, 4.905e-5
-1.548, 4.971e-5
-1.549, 5.055e-5
-1.550, 5.128e-5
-1.551, 5.219e-5
-1.552, 5.320e-5
-1.553, 5.402e-5
-1.554, 5.479e-5
-1.555, 5.565e-5
-1.556, 5.657e-5
-1.557, 5.743e-5
-1.558, 5.837e-5
-1.559, 5.928e-5
-1.560, 6.026e-5
-1.561, 6.122e-5
-1.562, 6.217e-5
-1.563, 6.328e-5
-1.564, 6.428e-5
-1.565, 6.532e-5
-1.566, 6.645e-5
-1.567, 6.746e-5
-1.568, 6.854e-5
-1.569, 6.956e-5
-1.570, 7.083e-5
-1.571, 7.191e-5
-1.572, 7.300e-5
-1.573, 7.422e-5
-1.574, 7.547e-5
-1.575, 7.675e-5
-1.576, 7.799e-5
-1.577, 7.919e-5
-1.578, 8.059e-5
-1.579, 8.190e-5
-1.580, 8.367e-5
-1.581, 8.459e-5
-1.582, 8.626e-5
-1.583, 8.767e-5
-1.584, 8.911e-5
-1.585, 9.067e-5
-1.586, 9.231e-5
-1.587, 9.395e-5
-1.588, 9.531e-5
-1.589, 9.711e-5
-1.590, 9.871e-5
-1.591, 1.005e-4
-1.592, 1.020e-4
-1.593, 1.037e-4
-1.594, 1.057e-4
-1.595, 1.076e-4
-1.596, 1.095e-4
-1.597, 1.111e-4
-1.598, 1.129e-4
-1.599, 1.148e-4
-1.600, 1.150e-4
-1.599, 1.136e-4
-1.598, 1.123e-4
-1.597, 1.114e-4
-1.596, 1.096e-4
-1.595, 1.084e-4
-1.594, 1.070e-4
-1.593, 1.058e-4
-1.592, 1.045e-4
-1.591, 1.031e-4
-1.590, 1.017e-4
-1.589, 1.001e-4
-1.588, 9.851e-5
-1.587, 9.709e-5
-1.586, 9.589e-5
-1.585, 9.449e-5
-1.584, 9.329e-5
-1.583, 9.194e-5
-1.582, 9.069e-5
-1.581, 8.935e-5
-1.580, 8.806e-5
-1.579, 8.677e-5
-1.578, 8.548e-5
-1.577, 8.428e-5
-1.576, 8.309e-5
-1.575, 8.210e-5
-1.574, 8.060e-5
-1.573, 7.948e-5
-1.572, 7.830e-5
-1.571, 7.700e-5
-1.570, 7.583e-5
-1.569, 7.474e-5
-1.568, 7.368e-5
-1.567, 7.239e-5
-1.566, 7.114e-5
-1.565, 7.011e-5
-1.564, 6.904e-5
-1.563, 6.806e-5
-1.562, 6.695e-5
-1.561, 6.592e-5
-1.560, 6.481e-5
-1.559, 6.383e-5
-1.558, 6.284e-5
-1.557, 6.188e-5
-1.556, 6.082e-5
-1.555, 5.978e-5
-1.554, 5.907e-5
-1.553, 5.804e-5
-1.552, 5.706e-5
-1.551, 5.608e-5
-1.550, 5.552e-5
-1.549, 5.449e-5
-1.548, 5.371e-5
-1.547, 5.267e-5
-1.546, 5.175e-5
-1.545, 5.098e-5
-1.544, 5.012e-5
-1.543, 4.927e-5
-1.542, 4.833e-5
-1.541, 4.763e-5
-1.540, 4.678e-5
-1.539, 4.603e-5
-1.538, 4.523e-5
-1.537, 4.448e-5
-1.536, 4.371e-5
-1.535, 4.301e-5
-1.534, 4.222e-5
-1.533, 4.165e-5
-1.532, 4.087e-5
-1.531, 4.007e-5
-1.530, 3.948e-5
-1.529, 3.879e-5
-1.528, 3.809e-5
-1.527, 3.790e-5
-1.526, 3.686e-5
-1.525, 3.630e-5
-1.524, 3.562e-5
-1.523, 3.499e-5
-1.522, 3.439e-5
-1.521, 3.384e-5
-1.520, 3.321e-5
-1.519, 3.265e-5
-1.518, 3.218e-5
-1.517, 3.157e-5
-1.516, 3.102e-5
-1.515, 3.047e-5
-1.514, 2.999e-5
-1.513, 2.948e-5
-1.512, 2.897e-5
-1.511, 2.846e-5
-1.510, 2.799e-5
-1.509, 2.751e-5
-1.508, 2.705e-5
-1.507, 2.643e-5
-1.506, 2.600e-5
-1.505, 2.552e-5
-1.504, 2.514e-5
-1.503, 2.461e-5
-1.502, 2.425e-5
-1.501, 2.384e-5
-1.500, 2.339e-5
-1.499, 2.299e-5
-1.498, 2.254e-5
-1.497, 2.211e-5
-1.496, 2.175e-5
-1.495, 2.125e-5
-1.494, 2.078e-5
-1.493, 2.040e-5
-1.492, 2.004e-5
-1.491, 1.967e-5
-1.490, 1.937e-5
-1.489, 1.892e-5
-1.488, 1.870e-5
-1.487, 1.825e-5
-1.486, 1.791e-5
-1.485, 1.759e-5
-1.484, 1.732e-5
-1.483, 1.694e-5
-1.482, 1.665e-5
-1.481, 1.636e-5
-1.480, 1.604e-5
-1.479, 1.571e-5
-1.478, 1.548e-5
-1.477, 1.512e-5
-1.476, 1.486e-5
-1.475, 1.460e-5
-1.474, 1.433e-5
-1.473, 1.410e-5
-1.472, 1.378e-5
-1.471, 1.355e-5
-1.470, 1.330e-5
-1.469, 1.298e-5
-1.468, 1.281e-5
-1.467, 1.253e-5
-1.466, 1.231e-5
-1.465, 1.203e-5
-1.464, 1.180e-5
-1.463, 1.161e-5
-1.462, 1.141e-5
-1.461, 1.115e-5
-1.460, 1.093e-5
-1.459, 1.075e-5
-1.458, 1.060e-5
-1.457, 1.039e-5
-1.456, 1.012e-5
-1.455, 1.001e-5
-1.454, 9.798e-6
-1.453, 9.604e-6
-1.452, 9.455e-6
-1.451, 9.192e-6
-1.450, 9.116e-6
-1.449, 8.848e-6
-1.448, 8.698e-6
-1.447, 8.519e-6
-1.446, 8.333e-6
-1.445, 8.210e-6
-1.444, 8.046e-6
-1.443, 7.860e-6
-1.442, 7.728e-6
-1.441, 7.563e-6
-1.440, 7.365e-6
-1.439, 7.264e-6
-1.438, 7.095e-6
-1.437, 6.983e-6
-1.436, 6.811e-6
-1.435, 6.675e-6
-1.434, 6.548e-6
-1.433, 6.385e-6
-1.432, 6.261e-6
-1.431, 6.114e-6
-1.430, 6.034e-6
-1.429, 5.902e-6
-1.428, 5.827e-6
-1.427, 5.639e-6
-1.426, 5.563e-6
-1.425, 5.467e-6
-1.424, 5.293e-6
-1.423, 5.191e-6
-1.422, 5.089e-6
-1.421, 4.973e-6
-1.420, 4.921e-6
-1.419, 4.818e-6
-1.418, 4.704e-6
-1.417, 4.572e-6
-1.416, 4.490e-6
-1.415, 4.385e-6
-1.414, 4.288e-6
-1.413, 4.187e-6
-1.412, 4.116e-6
-1.411, 4.027e-6
-1.410, 3.965e-6
-1.409, 3.822e-6
-1.408, 3.784e-6
-1.407, 3.713e-6
-1.406, 3.602e-6
-1.405, 3.515e-6
-1.404, 3.434e-6
-1.403, 3.379e-6
-1.402, 3.323e-6
-1.401, 3.247e-6
-1.400, 3.176e-6
-1.399, 3.093e-6
-1.398, 3.020e-6
-1.397, 2.958e-6
-1.396, 2.880e-6
-1.395, 2.793e-6
-1.394, 2.742e-6
-1.393, 2.711e-6
-1.392, 2.676e-6
-1.391, 2.516e-6
-1.390, 2.526e-6
-1.389, 2.481e-6
-1.388, 2.428e-6
-1.387, 2.417e-6
-1.386, 2.253e-6
-1.385, 2.267e-6
-1.384, 2.253e-6
-1.383, 2.142e-6
-1.382, 2.114e-6
-1.381, 2.040e-6
-1.380, 2.008e-6
-1.379, 2.013e-6
-1.378, 1.918e-6
-1.377, 1.871e-6
-1.376, 1.814e-6
-1.375, 1.818e-6
-1.374, 1.750e-6
-1.373, 1.682e-6
-1.372, 1.655e-6
-1.371, 1.625e-6
-1.370, 1.596e-6
-1.369, 1.512e-6
-1.368, 1.504e-6
-1.367, 1.452e-6
-1.366, 1.428e-6
-1.365, 1.385e-6
-1.364, 1.341e-6
-1.363, 1.343e-6
-1.362, 1.306e-6
-1.361, 1.247e-6
-1.360, 1.221e-6
-1.359, 1.165e-6
-1.358, 1.176e-6
-1.357, 1.143e-6
-1.356, 1.118e-6
-1.355, 1.070e-6
-1.354, 1.004e-6
-1.353, 1.041e-6
-1.352, 1.003e-6
-1.351, 9.775e-7
-1.350, 9.213e-7
-1.349, 8.798e-7
-1.348, 9.025e-7
-1.347, 8.838e-7
-1.346, 8.591e-7
-1.345, 8.128e-7
-1.344, 7.861e-7
-1.343, 7.713e-7
-1.342, 7.674e-7
-1.341, 7.141e-7
-1.340, 6.963e-7
-1.339, 6.865e-7
-1.338, 7.171e-7
-1.337, 6.618e-7
-1.336, 6.283e-7
-1.335, 6.253e-7
-1.334, 5.937e-7
-1.333, 5.750e-7
-1.332, 5.533e-7
-1.331, 5.227e-7
-1.330, 5.483e-7
-1.329, 5.118e-7
-1.328, 4.803e-7
-1.327, 4.487e-7
-1.326, 4.734e-7
-1.325, 4.536e-7
-1.324, 4.596e-7
-1.323, 4.043e-7
-1.322, 3.836e-7
-1.321, 3.708e-7
-1.320, 3.826e-7
-1.319, 3.412e-7
-1.318, 3.135e-7
-1.317, 3.165e-7
-1.316, 2.948e-7
-1.315, 3.303e-7
-1.314, 2.682e-7
-1.313, 2.978e-7
-1.312, 2.849e-7
-1.311, 2.287e-7
-1.310, 2.307e-7
-1.309, 2.317e-7
-1.308, 2.159e-7
-1.307, 2.080e-7
-1.306, 1.725e-7
-1.305, 1.488e-7
-1.304, 1.942e-7
-1.303, 1.636e-7
-1.302, 1.212e-7
-1.301, 1.340e-7
-1.300, 1.034e-7
-1.299, 1.281e-7
-1.298, 1.034e-7
-1.297, 7.380e-8
-1.296, 9.353e-8
-1.295, 7.972e-8
-1.294, 5.012e-8
-1.293, 4.321e-8
-1.292, 5.604e-8
-1.291, 2.940e-8
-1.290, 3.039e-8
-1.289, -1.796e-8
-1.288, -1.993e-8
-1.287, 3.927e-8
-1.286, -2.092e-8
-1.285, -4.065e-8
-1.284, 9.669e-9
-1.283, -1.894e-8
-1.282, -1.598e-8
-1.281, -6.926e-8
-1.280, -8.011e-8
-1.279, -3.078e-8
-1.278, -8.504e-8
-1.277, -7.715e-8
-1.276, -6.926e-8
-1.275, -8.208e-8
-1.274, -9.787e-8
-1.273, -8.899e-8
-1.272, -1.137e-7
-1.271, -1.225e-7
-1.270, -1.008e-7
-1.269, -1.215e-7
-1.268, -1.225e-7
-1.267, -1.344e-7
-1.266, -1.699e-7
-1.265, -1.748e-7
-1.264, -1.462e-7
-1.263, -1.521e-7
-1.262, -1.452e-7
-1.261, -2.024e-7
-1.260, -1.729e-7
-1.259, -1.758e-7
-1.258, -1.630e-7
-1.257, -2.074e-7
-1.256, -2.024e-7
-1.255, -2.271e-7
-1.254, -2.202e-7
-1.253, -2.094e-7
-1.252, -2.123e-7
-1.251, -2.024e-7
-1.250, -1.936e-7
-1.249, -2.399e-7
-1.248, -2.350e-7
-1.247, -2.123e-7
-1.246, -2.449e-7
-1.245, -2.597e-7
-1.244, -2.547e-7
-1.243, -2.350e-7
-1.242, -2.143e-7
-1.241, -2.774e-7
-1.240, -2.498e-7
-1.239, -2.814e-7
-1.238, -2.725e-7
-1.237, -2.557e-7
-1.236, -2.981e-7
-1.235, -2.942e-7
-1.234, -3.031e-7
-1.233, -3.169e-7
-1.232, -2.912e-7
-1.231, -3.248e-7
-1.230, -3.268e-7
-1.229, -3.347e-7
-1.228, -3.307e-7
-1.227, -3.534e-7
-1.226, -3.356e-7
-1.225, -3.386e-7
-1.224, -3.840e-7
-1.223, -3.307e-7
-1.222, -3.721e-7
-1.221, -3.564e-7
-1.220, -3.958e-7
-1.219, -3.396e-7
-1.218, -3.721e-7
-1.217, -3.781e-7
-1.216, -3.958e-7
-1.215, -3.909e-7
-1.214, -4.333e-7
-1.213, -3.958e-7
-1.212, -3.968e-7
-1.211, -4.057e-7
-1.210, -3.978e-7
-1.209, -4.047e-7
-1.208, -4.175e-7
-1.207, -4.205e-7
-1.206, -4.422e-7
-1.205, -4.333e-7
-1.204, -4.096e-7
-1.203, -4.580e-7
-1.202, -4.392e-7
-1.201, -4.511e-7
-1.200, -4.432e-7
-1.199, -4.649e-7
-1.198, -4.501e-7
-1.197, -4.471e-7
-1.196, -4.639e-7
-1.195, -4.678e-7
-1.194, -5.261e-7
-1.193, -4.708e-7
-1.192, -4.511e-7
-1.191, -4.955e-7
-1.190, -5.004e-7
-1.189, -5.063e-7
-1.188, -4.797e-7
-1.187, -4.797e-7
-1.186, -5.231e-7
-1.185, -5.024e-7
-1.184, -5.063e-7
-1.183, -4.945e-7
-1.182, -5.290e-7
-1.181, -5.339e-7
-1.180, -5.201e-7
-1.179, -5.113e-7
-1.178, -5.251e-7
-1.177, -5.487e-7
-1.176, -5.655e-7
-1.175, -5.497e-7
-1.174, -5.379e-7
-1.173, -5.497e-7
-1.172, -5.527e-7
-1.171, -5.487e-7
-1.170, -5.704e-7
-1.169, -5.478e-7
-1.168, -5.714e-7
-1.167, -5.557e-7
-1.166, -5.586e-7
-1.165, -5.734e-7
-1.164, -5.852e-7
-1.163, -5.596e-7
-1.162, -5.961e-7
-1.161, -5.813e-7
-1.160, -5.892e-7
-1.159, -6.020e-7
-1.158, -5.912e-7
-1.157, -5.833e-7
-1.156, -6.119e-7
-1.155, -6.000e-7
-1.154, -6.070e-7
-1.153, -6.060e-7
-1.152, -6.405e-7
-1.151, -6.089e-7
-1.150, -6.385e-7
-1.149, -6.129e-7
-1.148, -6.198e-7
-1.147, -6.287e-7
-1.146, -6.385e-7
-1.145, -6.543e-7
-1.144, -6.642e-7
-1.143, -6.326e-7
-1.142, -6.592e-7
-1.141, -6.474e-7
-1.140, -6.819e-7
-1.139, -6.849e-7
-1.138, -6.661e-7
-1.137, -6.770e-7
-1.136, -6.701e-7
-1.135, -7.046e-7
-1.134, -6.760e-7
-1.133, -7.066e-7
-1.132, -6.879e-7
-1.131, -7.115e-7
-1.130, -7.145e-7
-1.129, -6.908e-7
-1.128, -7.115e-7
-1.127, -7.224e-7
-1.126, -7.520e-7
-1.125, -7.362e-7
-1.124, -7.224e-7
-1.123, -7.638e-7
-1.122, -7.540e-7
-1.121, -7.500e-7
-1.120, -7.421e-7
-1.119, -7.273e-7
-1.118, -7.470e-7
-1.117, -7.658e-7
-1.116, -7.648e-7
-1.115, -7.431e-7
-1.114, -7.697e-7
-1.113, -7.609e-7
-1.112, -7.648e-7
-1.111, -7.480e-7
-1.110, -8.062e-7
-1.109, -7.737e-7
-1.108, -8.013e-7
-1.107, -7.885e-7
-1.106, -8.408e-7
-1.105, -7.964e-7
-1.104, -8.270e-7
-1.103, -7.944e-7
-1.102, -8.299e-7
-1.101, -8.240e-7
-1.100, -8.289e-7
-1.099, -8.181e-7
-1.098, -8.309e-7
-1.097, -8.230e-7
-1.096, -8.368e-7
-1.095, -8.467e-7
-1.094, -8.309e-7
-1.093, -8.467e-7
-1.092, -8.467e-7
-1.091, -8.506e-7
-1.090, -8.358e-7
-1.089, -8.615e-7
-1.088, -8.852e-7
-1.087, -8.240e-7
-1.086, -8.832e-7
-1.085, -8.575e-7
-1.084, -9.000e-7
-1.083, -8.674e-7
-1.082, -8.595e-7
-1.081, -8.664e-7
-1.080, -8.921e-7
-1.079, -8.753e-7
-1.078, -8.901e-7
-1.077, -8.763e-7
-1.076, -8.802e-7
-1.075, -9.118e-7
-1.074, -9.335e-7
-1.073, -8.931e-7
-1.072, -9.128e-7
-1.071, -9.138e-7
-1.070, -9.266e-7
-1.069, -9.384e-7
-1.068, -9.187e-7
-1.067, -9.098e-7
-1.066, -9.878e-7
-1.065, -9.513e-7
-1.064, -9.621e-7
-1.063, -9.404e-7
-1.062, -9.611e-7
-1.061, -9.967e-7
-1.060, -9.641e-7
-1.059, -9.572e-7
-1.058, -9.848e-7
-1.057, -9.424e-7
-1.056, -1.001e-6
-1.055, -9.523e-7
-1.054, -9.828e-7
-1.053, -1.008e-6
-1.052, -9.878e-7
-1.051, -1.006e-6
-1.050, -1.001e-6
-1.049, -9.888e-7
-1.048, -1.013e-6
-1.047, -1.009e-6
-1.046, -1.023e-6
-1.045, -1.011e-6
-1.044, -1.047e-6
-1.043, -1.029e-6
-1.042, -1.036e-6
-1.041, -1.042e-6
-1.040, -1.043e-6
-1.039, -1.064e-6
-1.038, -1.010e-6
-1.037, -1.048e-6
-1.036, -1.077e-6
-1.035, -1.090e-6
-1.034, -1.100e-6
-1.033, -1.052e-6
-1.032, -1.057e-6
-1.031, -1.128e-6
-1.030, -1.082e-6
-1.029, -1.106e-6
-1.028, -1.108e-6
-1.027, -1.085e-6
-1.026, -1.129e-6
-1.025, -1.106e-6
-1.024, -1.110e-6
-1.023, -1.134e-6
-1.022, -1.120e-6
-1.021, -1.133e-6
-1.020, -1.152e-6
-1.019, -1.144e-6
-1.018, -1.185e-6
-1.017, -1.162e-6
-1.016, -1.169e-6
-1.015, -1.180e-6
-1.014, -1.191e-6
-1.013, -1.167e-6
-1.012, -1.168e-6
-1.011, -1.156e-6
-1.010, -1.201e-6
-1.009, -1.181e-6
-1.008, -1.200e-6
-1.007, -1.194e-6
-1.006, -1.209e-6
-1.005, -1.236e-6
-1.004, -1.225e-6
-1.003, -1.201e-6
-1.002, -1.228e-6
-1.001, -1.268e-6
