Mar. 6, 2025   22:49:03
Cyclic Voltammetry
File: c:/users/guazh/data/banditlqround7_x0exp169_r20_3/2025-03-03-exp892\exp892-2025-03-06t22_39_26-arkoh\exp892_cv_sr_100mvs_efin_-1500mv.bin
Data Source:  Experiment
Instrument Model:  CHI760E
Header: CV ran at 100 mVs
Note: 

Init E (V) = -1
High E (V) = -1
Low E (V) = -1.5
Final E (V) = -1
Init P/N = N
Scan Rate (V/s) = 0.1
Segment = 3
Sample Interval (V) = 0.001
Quiet Time (sec) = 2
Sensitivity (A/V) = 0.01
Comp R (ohm) = 1.3

Results:

Channel 1:
Segment 1:

Segment 2:

Segment 3:

Potential/V, Current/A

-1.000, 1.115e-5
-1.001, 1.854e-5
-1.002, 2.141e-5
-1.003, 2.271e-5
-1.004, 2.364e-5
-1.005, 2.550e-5
-1.006, 2.514e-5
-1.007, 2.668e-5
-1.008, 2.694e-5
-1.009, 2.691e-5
-1.010, 2.853e-5
-1.011, 2.791e-5
-1.012, 2.914e-5
-1.013, 2.934e-5
-1.014, 2.928e-5
-1.015, 3.062e-5
-1.016, 2.977e-5
-1.017, 3.100e-5
-1.018, 3.104e-5
-1.019, 3.084e-5
-1.020, 3.223e-5
-1.021, 3.133e-5
-1.022, 3.231e-5
-1.023, 3.284e-5
-1.024, 3.251e-5
-1.025, 3.388e-5
-1.026, 3.296e-5
-1.027, 3.393e-5
-1.028, 3.408e-5
-1.029, 3.382e-5
-1.030, 3.499e-5
-1.031, 3.448e-5
-1.032, 3.536e-5
-1.033, 3.540e-5
-1.034, 3.538e-5
-1.035, 3.640e-5
-1.036, 3.589e-5
-1.037, 3.689e-5
-1.038, 3.706e-5
-1.039, 3.686e-5
-1.040, 3.774e-5
-1.041, 3.741e-5
-1.042, 3.822e-5
-1.043, 3.837e-5
-1.044, 3.810e-5
-1.045, 3.933e-5
-1.046, 3.857e-5
-1.047, 3.972e-5
-1.048, 3.990e-5
-1.049, 3.959e-5
-1.050, 4.100e-5
-1.051, 4.021e-5
-1.052, 4.121e-5
-1.053, 4.134e-5
-1.054, 4.097e-5
-1.055, 4.227e-5
-1.056, 4.155e-5
-1.057, 4.237e-5
-1.058, 4.288e-5
-1.059, 4.232e-5
-1.060, 4.367e-5
-1.061, 4.292e-5
-1.062, 4.372e-5
-1.063, 4.422e-5
-1.064, 4.360e-5
-1.065, 4.475e-5
-1.066, 4.441e-5
-1.067, 4.513e-5
-1.068, 4.533e-5
-1.069, 4.486e-5
-1.070, 4.623e-5
-1.071, 4.552e-5
-1.072, 4.621e-5
-1.073, 4.653e-5
-1.074, 4.613e-5
-1.075, 4.754e-5
-1.076, 4.676e-5
-1.077, 4.727e-5
-1.078, 4.764e-5
-1.079, 4.726e-5
-1.080, 4.819e-5
-1.081, 4.769e-5
-1.082, 4.827e-5
-1.083, 4.853e-5
-1.084, 4.807e-5
-1.085, 4.914e-5
-1.086, 4.830e-5
-1.087, 4.917e-5
-1.088, 4.925e-5
-1.089, 4.857e-5
-1.090, 4.989e-5
-1.091, 4.896e-5
-1.092, 4.969e-5
-1.093, 4.964e-5
-1.094, 4.912e-5
-1.095, 5.037e-5
-1.096, 4.931e-5
-1.097, 4.995e-5
-1.098, 5.011e-5
-1.099, 4.953e-5
-1.100, 5.041e-5
-1.101, 4.969e-5
-1.102, 5.015e-5
-1.103, 5.017e-5
-1.104, 4.925e-5
-1.105, 5.044e-5
-1.106, 4.956e-5
-1.107, 5.000e-5
-1.108, 4.999e-5
-1.109, 4.915e-5
-1.110, 5.007e-5
-1.111, 4.925e-5
-1.112, 4.942e-5
-1.113, 4.944e-5
-1.114, 4.887e-5
-1.115, 4.932e-5
-1.116, 4.875e-5
-1.117, 4.884e-5
-1.118, 4.880e-5
-1.119, 4.802e-5
-1.120, 4.872e-5
-1.121, 4.776e-5
-1.122, 4.810e-5
-1.123, 4.782e-5
-1.124, 4.697e-5
-1.125, 4.778e-5
-1.126, 4.678e-5
-1.127, 4.698e-5
-1.128, 4.679e-5
-1.129, 4.586e-5
-1.130, 4.685e-5
-1.131, 4.552e-5
-1.132, 4.603e-5
-1.133, 4.589e-5
-1.134, 4.483e-5
-1.135, 4.573e-5
-1.136, 4.443e-5
-1.137, 4.465e-5
-1.138, 4.478e-5
-1.139, 4.384e-5
-1.140, 4.462e-5
-1.141, 4.347e-5
-1.142, 4.380e-5
-1.143, 4.383e-5
-1.144, 4.271e-5
-1.145, 4.370e-5
-1.146, 4.278e-5
-1.147, 4.304e-5
-1.148, 4.297e-5
-1.149, 4.209e-5
-1.150, 4.281e-5
-1.151, 4.214e-5
-1.152, 4.250e-5
-1.153, 4.248e-5
-1.154, 4.166e-5
-1.155, 4.252e-5
-1.156, 4.158e-5
-1.157, 4.174e-5
-1.158, 4.198e-5
-1.159, 4.135e-5
-1.160, 4.220e-5
-1.161, 4.135e-5
-1.162, 4.177e-5
-1.163, 4.187e-5
-1.164, 4.101e-5
-1.165, 4.218e-5
-1.166, 4.124e-5
-1.167, 4.174e-5
-1.168, 4.182e-5
-1.169, 4.098e-5
-1.170, 4.231e-5
-1.171, 4.148e-5
-1.172, 4.179e-5
-1.173, 4.203e-5
-1.174, 4.097e-5
-1.175, 4.232e-5
-1.176, 4.149e-5
-1.177, 4.200e-5
-1.178, 4.234e-5
-1.179, 4.156e-5
-1.180, 4.260e-5
-1.181, 4.167e-5
-1.182, 4.213e-5
-1.183, 4.257e-5
-1.184, 4.175e-5
-1.185, 4.284e-5
-1.186, 4.216e-5
-1.187, 4.245e-5
-1.188, 4.291e-5
-1.189, 4.212e-5
-1.190, 4.317e-5
-1.191, 4.257e-5
-1.192, 4.282e-5
-1.193, 4.323e-5
-1.194, 4.274e-5
-1.195, 4.345e-5
-1.196, 4.306e-5
-1.197, 4.327e-5
-1.198, 4.357e-5
-1.199, 4.313e-5
-1.200, 4.399e-5
-1.201, 4.334e-5
-1.202, 4.393e-5
-1.203, 4.429e-5
-1.204, 4.360e-5
-1.205, 4.453e-5
-1.206, 4.394e-5
-1.207, 4.450e-5
-1.208, 4.458e-5
-1.209, 4.414e-5
-1.210, 4.531e-5
-1.211, 4.442e-5
-1.212, 4.488e-5
-1.213, 4.535e-5
-1.214, 4.449e-5
-1.215, 4.582e-5
-1.216, 4.502e-5
-1.217, 4.540e-5
-1.218, 4.601e-5
-1.219, 4.529e-5
-1.220, 4.647e-5
-1.221, 4.559e-5
-1.222, 4.606e-5
-1.223, 4.679e-5
-1.224, 4.574e-5
-1.225, 4.717e-5
-1.226, 4.665e-5
-1.227, 4.681e-5
-1.228, 4.747e-5
-1.229, 4.711e-5
-1.230, 4.802e-5
-1.231, 4.738e-5
-1.232, 4.760e-5
-1.233, 4.833e-5
-1.234, 4.756e-5
-1.235, 4.854e-5
-1.236, 4.830e-5
-1.237, 4.850e-5
-1.238, 4.914e-5
-1.239, 4.843e-5
-1.240, 4.950e-5
-1.241, 4.927e-5
-1.242, 4.948e-5
-1.243, 5.000e-5
-1.244, 4.944e-5
-1.245, 5.047e-5
-1.246, 4.977e-5
-1.247, 5.058e-5
-1.248, 5.093e-5
-1.249, 5.020e-5
-1.250, 5.163e-5
-1.251, 5.096e-5
-1.252, 5.128e-5
-1.253, 5.201e-5
-1.254, 5.138e-5
-1.255, 5.261e-5
-1.256, 5.198e-5
-1.257, 5.250e-5
-1.258, 5.325e-5
-1.259, 5.252e-5
-1.260, 5.395e-5
-1.261, 5.337e-5
-1.262, 5.355e-5
-1.263, 5.430e-5
-1.264, 5.363e-5
-1.265, 5.500e-5
-1.266, 5.450e-5
-1.267, 5.494e-5
-1.268, 5.575e-5
-1.269, 5.493e-5
-1.270, 5.637e-5
-1.271, 5.612e-5
-1.272, 5.639e-5
-1.273, 5.705e-5
-1.274, 5.657e-5
-1.275, 5.790e-5
-1.276, 5.757e-5
-1.277, 5.801e-5
-1.278, 5.885e-5
-1.279, 5.819e-5
-1.280, 5.985e-5
-1.281, 5.938e-5
-1.282, 5.999e-5
-1.283, 6.045e-5
-1.284, 6.008e-5
-1.285, 6.160e-5
-1.286, 6.121e-5
-1.287, 6.180e-5
-1.288, 6.250e-5
-1.289, 6.198e-5
-1.290, 6.370e-5
-1.291, 6.316e-5
-1.292, 6.391e-5
-1.293, 6.490e-5
-1.294, 6.429e-5
-1.295, 6.612e-5
-1.296, 6.552e-5
-1.297, 6.622e-5
-1.298, 6.748e-5
-1.299, 6.680e-5
-1.300, 6.861e-5
-1.301, 6.848e-5
-1.302, 6.913e-5
-1.303, 7.024e-5
-1.304, 6.985e-5
-1.305, 7.153e-5
-1.306, 7.158e-5
-1.307, 7.219e-5
-1.308, 7.346e-5
-1.309, 7.323e-5
-1.310, 7.498e-5
-1.311, 7.500e-5
-1.312, 7.583e-5
-1.313, 7.727e-5
-1.314, 7.698e-5
-1.315, 7.876e-5
-1.316, 7.912e-5
-1.317, 8.001e-5
-1.318, 8.142e-5
-1.319, 8.162e-5
-1.320, 8.335e-5
-1.321, 8.376e-5
-1.322, 8.488e-5
-1.323, 8.637e-5
-1.324, 8.662e-5
-1.325, 8.839e-5
-1.326, 8.914e-5
-1.327, 9.048e-5
-1.328, 9.210e-5
-1.329, 9.231e-5
-1.330, 9.465e-5
-1.331, 9.526e-5
-1.332, 9.696e-5
-1.333, 9.872e-5
-1.334, 9.930e-5
-1.335, 1.018e-4
-1.336, 1.025e-4
-1.337, 1.042e-4
-1.338, 1.067e-4
-1.339, 1.071e-4
-1.340, 1.100e-4
-1.341, 1.111e-4
-1.342, 1.131e-4
-1.343, 1.156e-4
-1.344, 1.165e-4
-1.345, 1.196e-4
-1.346, 1.215e-4
-1.347, 1.234e-4
-1.348, 1.265e-4
-1.349, 1.278e-4
-1.350, 1.312e-4
-1.351, 1.334e-4
-1.352, 1.362e-4
-1.353, 1.395e-4
-1.354, 1.416e-4
-1.355, 1.456e-4
-1.356, 1.483e-4
-1.357, 1.516e-4
-1.358, 1.556e-4
-1.359, 1.585e-4
-1.360, 1.630e-4
-1.361, 1.665e-4
-1.362, 1.707e-4
-1.363, 1.753e-4
-1.364, 1.789e-4
-1.365, 1.846e-4
-1.366, 1.888e-4
-1.367, 1.943e-4
-1.368, 2.000e-4
-1.369, 2.048e-4
-1.370, 2.119e-4
-1.371, 2.174e-4
-1.372, 2.238e-4
-1.373, 2.312e-4
-1.374, 2.373e-4
-1.375, 2.462e-4
-1.376, 2.537e-4
-1.377, 2.625e-4
-1.378, 2.719e-4
-1.379, 2.805e-4
-1.380, 2.920e-4
-1.381, 3.022e-4
-1.382, 3.138e-4
-1.383, 3.267e-4
-1.384, 3.390e-4
-1.385, 3.533e-4
-1.386, 3.674e-4
-1.387, 3.830e-4
-1.388, 3.999e-4
-1.389, 4.157e-4
-1.390, 4.347e-4
-1.391, 4.535e-4
-1.392, 4.739e-4
-1.393, 4.950e-4
-1.394, 5.161e-4
-1.395, 5.398e-4
-1.396, 5.621e-4
-1.397, 5.857e-4
-1.398, 6.105e-4
-1.399, 6.358e-4
-1.400, 6.631e-4
-1.401, 6.896e-4
-1.402, 7.185e-4
-1.403, 7.472e-4
-1.404, 7.761e-4
-1.405, 8.096e-4
-1.406, 8.408e-4
-1.407, 8.721e-4
-1.408, 9.064e-4
-1.409, 9.420e-4
-1.410, 9.781e-4
-1.411, 1.014e-3
-1.412, 1.053e-3
-1.413, 1.090e-3
-1.414, 1.125e-3
-1.415, 1.164e-3
-1.416, 1.202e-3
-1.417, 1.239e-3
-1.418, 1.281e-3
-1.419, 1.323e-3
-1.420, 1.364e-3
-1.421, 1.404e-3
-1.422, 1.448e-3
-1.423, 1.491e-3
-1.424, 1.533e-3
-1.425, 1.580e-3
-1.426, 1.625e-3
-1.427, 1.667e-3
-1.428, 1.713e-3
-1.429, 1.757e-3
-1.430, 1.800e-3
-1.431, 1.844e-3
-1.432, 1.893e-3
-1.433, 1.941e-3
-1.434, 1.986e-3
-1.435, 2.037e-3
-1.436, 2.085e-3
-1.437, 2.131e-3
-1.438, 2.183e-3
-1.439, 2.238e-3
-1.440, 2.291e-3
-1.441, 2.340e-3
-1.442, 2.396e-3
-1.443, 2.449e-3
-1.444, 2.497e-3
-1.445, 2.549e-3
-1.446, 2.601e-3
-1.447, 2.656e-3
-1.448, 2.708e-3
-1.449, 2.763e-3
-1.450, 2.818e-3
-1.451, 2.869e-3
-1.452, 2.929e-3
-1.453, 2.987e-3
-1.454, 3.036e-3
-1.455, 3.095e-3
-1.456, 3.149e-3
-1.457, 3.195e-3
-1.458, 3.248e-3
-1.459, 3.306e-3
-1.460, 3.364e-3
-1.461, 3.416e-3
-1.462, 3.480e-3
-1.463, 3.537e-3
-1.464, 3.593e-3
-1.465, 3.655e-3
-1.466, 3.724e-3
-1.467, 3.777e-3
-1.468, 3.833e-3
-1.469, 3.888e-3
-1.470, 3.942e-3
-1.471, 3.997e-3
-1.472, 4.062e-3
-1.473, 4.128e-3
-1.474, 4.186e-3
-1.475, 4.236e-3
-1.476, 4.295e-3
-1.477, 4.350e-3
-1.478, 4.403e-3
-1.479, 4.467e-3
-1.480, 4.528e-3
-1.481, 4.573e-3
-1.482, 4.611e-3
-1.483, 4.673e-3
-1.484, 4.725e-3
-1.485, 4.799e-3
-1.486, 4.869e-3
-1.487, 4.915e-3
-1.488, 4.963e-3
-1.489, 5.016e-3
-1.490, 5.080e-3
-1.491, 5.120e-3
-1.492, 5.177e-3
-1.493, 5.255e-3
-1.494, 5.296e-3
-1.495, 5.359e-3
-1.496, 5.426e-3
-1.497, 5.495e-3
-1.498, 5.555e-3
-1.499, 5.612e-3
-1.500, 5.612e-3
-1.499, 5.543e-3
-1.498, 5.523e-3
-1.497, 5.468e-3
-1.496, 5.404e-3
-1.495, 5.331e-3
-1.494, 5.276e-3
-1.493, 5.222e-3
-1.492, 5.180e-3
-1.491, 5.130e-3
-1.490, 5.080e-3
-1.489, 5.004e-3
-1.488, 4.957e-3
-1.487, 4.901e-3
-1.486, 4.842e-3
-1.485, 4.776e-3
-1.484, 4.729e-3
-1.483, 4.670e-3
-1.482, 4.602e-3
-1.481, 4.561e-3
-1.480, 4.519e-3
-1.479, 4.467e-3
-1.478, 4.411e-3
-1.477, 4.361e-3
-1.476, 4.298e-3
-1.475, 4.258e-3
-1.474, 4.212e-3
-1.473, 4.172e-3
-1.472, 4.122e-3
-1.471, 4.075e-3
-1.470, 4.023e-3
-1.469, 3.978e-3
-1.468, 3.929e-3
-1.467, 3.879e-3
-1.466, 3.820e-3
-1.465, 3.767e-3
-1.464, 3.724e-3
-1.463, 3.684e-3
-1.462, 3.635e-3
-1.461, 3.587e-3
-1.460, 3.544e-3
-1.459, 3.494e-3
-1.458, 3.447e-3
-1.457, 3.408e-3
-1.456, 3.367e-3
-1.455, 3.327e-3
-1.454, 3.290e-3
-1.453, 3.262e-3
-1.452, 3.224e-3
-1.451, 3.205e-3
-1.450, 3.212e-3
-1.449, 3.202e-3
-1.448, 3.180e-3
-1.447, 3.155e-3
-1.446, 3.099e-3
-1.445, 3.066e-3
-1.444, 3.034e-3
-1.443, 2.996e-3
-1.442, 2.948e-3
-1.441, 2.899e-3
-1.440, 2.856e-3
-1.439, 2.805e-3
-1.438, 2.756e-3
-1.437, 2.711e-3
-1.436, 2.656e-3
-1.435, 2.608e-3
-1.434, 2.568e-3
-1.433, 2.523e-3
-1.432, 2.484e-3
-1.431, 2.446e-3
-1.430, 2.404e-3
-1.429, 2.362e-3
-1.428, 2.326e-3
-1.427, 2.294e-3
-1.426, 2.256e-3
-1.425, 2.211e-3
-1.424, 2.167e-3
-1.423, 2.127e-3
-1.422, 2.090e-3
-1.421, 2.053e-3
-1.420, 2.017e-3
-1.419, 1.977e-3
-1.418, 1.944e-3
-1.417, 1.905e-3
-1.416, 1.868e-3
-1.415, 1.834e-3
-1.414, 1.799e-3
-1.413, 1.764e-3
-1.412, 1.728e-3
-1.411, 1.692e-3
-1.410, 1.657e-3
-1.409, 1.621e-3
-1.408, 1.588e-3
-1.407, 1.553e-3
-1.406, 1.522e-3
-1.405, 1.500e-3
-1.404, 1.470e-3
-1.403, 1.441e-3
-1.402, 1.414e-3
-1.401, 1.387e-3
-1.400, 1.358e-3
-1.399, 1.329e-3
-1.398, 1.300e-3
-1.397, 1.274e-3
-1.396, 1.247e-3
-1.395, 1.222e-3
-1.394, 1.197e-3
-1.393, 1.172e-3
-1.392, 1.149e-3
-1.391, 1.123e-3
-1.390, 1.100e-3
-1.389, 1.075e-3
-1.388, 1.051e-3
-1.387, 1.030e-3
-1.386, 1.007e-3
-1.385, 9.854e-4
-1.384, 9.633e-4
-1.383, 9.415e-4
-1.382, 9.204e-4
-1.381, 8.990e-4
-1.380, 8.808e-4
-1.379, 8.610e-4
-1.378, 8.404e-4
-1.377, 8.215e-4
-1.376, 8.026e-4
-1.375, 7.849e-4
-1.374, 7.644e-4
-1.373, 7.451e-4
-1.372, 7.284e-4
-1.371, 7.103e-4
-1.370, 6.937e-4
-1.369, 6.761e-4
-1.368, 6.587e-4
-1.367, 6.436e-4
-1.366, 6.274e-4
-1.365, 6.125e-4
-1.364, 5.972e-4
-1.363, 5.829e-4
-1.362, 5.714e-4
-1.361, 5.561e-4
-1.360, 5.430e-4
-1.359, 5.286e-4
-1.358, 5.142e-4
-1.357, 5.019e-4
-1.356, 4.890e-4
-1.355, 4.773e-4
-1.354, 4.651e-4
-1.353, 4.529e-4
-1.352, 4.414e-4
-1.351, 4.291e-4
-1.350, 4.182e-4
-1.349, 4.075e-4
-1.348, 3.970e-4
-1.347, 3.871e-4
-1.346, 3.766e-4
-1.345, 3.673e-4
-1.344, 3.577e-4
-1.343, 3.466e-4
-1.342, 3.383e-4
-1.341, 3.286e-4
-1.340, 3.205e-4
-1.339, 3.114e-4
-1.338, 3.026e-4
-1.337, 2.951e-4
-1.336, 2.861e-4
-1.335, 2.785e-4
-1.334, 2.707e-4
-1.333, 2.632e-4
-1.332, 2.565e-4
-1.331, 2.482e-4
-1.330, 2.415e-4
-1.329, 2.343e-4
-1.328, 2.273e-4
-1.327, 2.221e-4
-1.326, 2.148e-4
-1.325, 2.090e-4
-1.324, 2.028e-4
-1.323, 1.962e-4
-1.322, 1.911e-4
-1.321, 1.845e-4
-1.320, 1.796e-4
-1.319, 1.745e-4
-1.318, 1.683e-4
-1.317, 1.641e-4
-1.316, 1.584e-4
-1.315, 1.538e-4
-1.314, 1.493e-4
-1.313, 1.436e-4
-1.312, 1.400e-4
-1.311, 1.350e-4
-1.310, 1.306e-4
-1.309, 1.269e-4
-1.308, 1.219e-4
-1.307, 1.186e-4
-1.306, 1.141e-4
-1.305, 1.106e-4
-1.304, 1.071e-4
-1.303, 1.027e-4
-1.302, 9.979e-5
-1.301, 9.579e-5
-1.300, 9.274e-5
-1.299, 8.965e-5
-1.298, 8.574e-5
-1.297, 8.337e-5
-1.296, 7.950e-5
-1.295, 7.705e-5
-1.294, 7.423e-5
-1.293, 7.050e-5
-1.292, 6.874e-5
-1.291, 6.510e-5
-1.290, 6.330e-5
-1.289, 6.059e-5
-1.288, 5.762e-5
-1.287, 5.609e-5
-1.286, 5.268e-5
-1.285, 5.099e-5
-1.284, 4.860e-5
-1.283, 4.566e-5
-1.282, 4.463e-5
-1.281, 4.151e-5
-1.280, 3.987e-5
-1.279, 3.815e-5
-1.278, 3.531e-5
-1.277, 3.453e-5
-1.276, 3.157e-5
-1.275, 3.027e-5
-1.274, 2.886e-5
-1.273, 2.591e-5
-1.272, 2.551e-5
-1.271, 2.399e-5
-1.270, 2.255e-5
-1.269, 2.107e-5
-1.268, 1.878e-5
-1.267, 1.817e-5
-1.266, 1.601e-5
-1.265, 1.513e-5
-1.264, 1.425e-5
-1.263, 1.201e-5
-1.262, 1.164e-5
-1.261, 9.529e-6
-1.260, 8.670e-6
-1.259, 7.585e-6
-1.258, 5.681e-6
-1.257, 5.523e-6
-1.256, 3.737e-6
-1.255, 3.165e-6
-1.254, 1.981e-6
-1.253, 4.223e-7
-1.252, 4.716e-7
-1.251, -1.482e-6
-1.250, -1.758e-6
-1.249, -2.676e-6
-1.248, -4.274e-6
-1.247, -4.096e-6
-1.246, -5.981e-6
-1.245, -6.395e-6
-1.244, -6.898e-6
-1.243, -8.546e-6
-1.242, -8.161e-6
-1.241, -1.011e-5
-1.240, -1.014e-5
-1.239, -1.072e-5
-1.238, -1.240e-5
-1.237, -1.160e-5
-1.236, -1.332e-5
-1.235, -1.376e-5
-1.234, -1.418e-5
-1.233, -1.552e-5
-1.232, -1.490e-5
-1.231, -1.662e-5
-1.230, -1.651e-5
-1.229, -1.751e-5
-1.228, -1.865e-5
-1.227, -1.824e-5
-1.226, -1.939e-5
-1.225, -1.960e-5
-1.224, -1.986e-5
-1.223, -2.087e-5
-1.222, -2.069e-5
-1.221, -2.178e-5
-1.220, -2.185e-5
-1.219, -2.229e-5
-1.218, -2.343e-5
-1.217, -2.279e-5
-1.216, -2.400e-5
-1.215, -2.395e-5
-1.214, -2.455e-5
-1.213, -2.525e-5
-1.212, -2.479e-5
-1.211, -2.614e-5
-1.210, -2.602e-5
-1.209, -2.648e-5
-1.208, -2.737e-5
-1.207, -2.668e-5
-1.206, -2.801e-5
-1.205, -2.758e-5
-1.204, -2.794e-5
-1.203, -2.923e-5
-1.202, -2.809e-5
-1.201, -2.971e-5
-1.200, -2.950e-5
-1.199, -2.941e-5
-1.198, -3.066e-5
-1.197, -2.964e-5
-1.196, -3.082e-5
-1.195, -3.069e-5
-1.194, -3.080e-5
-1.193, -3.204e-5
-1.192, -3.084e-5
-1.191, -3.225e-5
-1.190, -3.205e-5
-1.189, -3.206e-5
-1.188, -3.312e-5
-1.187, -3.214e-5
-1.186, -3.322e-5
-1.185, -3.306e-5
-1.184, -3.283e-5
-1.183, -3.414e-5
-1.182, -3.315e-5
-1.181, -3.412e-5
-1.180, -3.407e-5
-1.179, -3.410e-5
-1.178, -3.532e-5
-1.177, -3.436e-5
-1.176, -3.531e-5
-1.175, -3.504e-5
-1.174, -3.503e-5
-1.173, -3.596e-5
-1.172, -3.503e-5
-1.171, -3.618e-5
-1.170, -3.609e-5
-1.169, -3.603e-5
-1.168, -3.653e-5
-1.167, -3.580e-5
-1.166, -3.686e-5
-1.165, -3.641e-5
-1.164, -3.637e-5
-1.163, -3.759e-5
-1.162, -3.622e-5
-1.161, -3.770e-5
-1.160, -3.714e-5
-1.159, -3.701e-5
-1.158, -3.795e-5
-1.157, -3.692e-5
-1.156, -3.802e-5
-1.155, -3.765e-5
-1.154, -3.744e-5
-1.153, -3.862e-5
-1.152, -3.750e-5
-1.151, -3.849e-5
-1.150, -3.831e-5
-1.149, -3.792e-5
-1.148, -3.905e-5
-1.147, -3.793e-5
-1.146, -3.895e-5
-1.145, -3.853e-5
-1.144, -3.835e-5
-1.143, -3.937e-5
-1.142, -3.846e-5
-1.141, -3.933e-5
-1.140, -3.910e-5
-1.139, -3.898e-5
-1.138, -3.980e-5
-1.137, -3.883e-5
-1.136, -3.963e-5
-1.135, -3.928e-5
-1.134, -3.926e-5
-1.133, -4.004e-5
-1.132, -3.933e-5
-1.131, -4.008e-5
-1.130, -3.997e-5
-1.129, -3.989e-5
-1.128, -4.071e-5
-1.127, -3.948e-5
-1.126, -4.082e-5
-1.125, -4.052e-5
-1.124, -4.001e-5
-1.123, -4.124e-5
-1.122, -4.023e-5
-1.121, -4.090e-5
-1.120, -4.080e-5
-1.119, -4.076e-5
-1.118, -4.176e-5
-1.117, -4.061e-5
-1.116, -4.161e-5
-1.115, -4.155e-5
-1.114, -4.138e-5
-1.113, -4.227e-5
-1.112, -4.129e-5
-1.111, -4.235e-5
-1.110, -4.212e-5
-1.109, -4.206e-5
-1.108, -4.299e-5
-1.107, -4.226e-5
-1.106, -4.331e-5
-1.105, -4.309e-5
-1.104, -4.265e-5
-1.103, -4.345e-5
-1.102, -4.245e-5
-1.101, -4.348e-5
-1.100, -4.338e-5
-1.099, -4.328e-5
-1.098, -4.425e-5
-1.097, -4.351e-5
-1.096, -4.453e-5
-1.095, -4.415e-5
-1.094, -4.451e-5
-1.093, -4.556e-5
-1.092, -4.476e-5
-1.091, -4.596e-5
-1.090, -4.570e-5
-1.089, -4.618e-5
-1.088, -4.703e-5
-1.087, -4.638e-5
-1.086, -4.750e-5
-1.085, -4.751e-5
-1.084, -4.743e-5
-1.083, -4.892e-5
-1.082, -4.812e-5
-1.081, -4.930e-5
-1.080, -4.932e-5
-1.079, -4.920e-5
-1.078, -5.079e-5
-1.077, -4.960e-5
-1.076, -5.100e-5
-1.075, -5.135e-5
-1.074, -5.125e-5
-1.073, -5.262e-5
-1.072, -5.179e-5
-1.071, -5.292e-5
-1.070, -5.318e-5
-1.069, -5.329e-5
-1.068, -5.448e-5
-1.067, -5.385e-5
-1.066, -5.510e-5
-1.065, -5.550e-5
-1.064, -5.539e-5
-1.063, -5.678e-5
-1.062, -5.616e-5
-1.061, -5.730e-5
-1.060, -5.756e-5
-1.059, -5.776e-5
-1.058, -5.898e-5
-1.057, -5.842e-5
-1.056, -5.930e-5
-1.055, -5.982e-5
-1.054, -5.974e-5
-1.053, -6.110e-5
-1.052, -6.064e-5
-1.051, -6.187e-5
-1.050, -6.225e-5
-1.049, -6.240e-5
-1.048, -6.377e-5
-1.047, -6.319e-5
-1.046, -6.461e-5
-1.045, -6.472e-5
-1.044, -6.496e-5
-1.043, -6.642e-5
-1.042, -6.565e-5
-1.041, -6.718e-5
-1.040, -6.718e-5
-1.039, -6.744e-5
-1.038, -6.879e-5
-1.037, -6.815e-5
-1.036, -6.964e-5
-1.035, -6.986e-5
-1.034, -6.972e-5
-1.033, -7.142e-5
-1.032, -7.058e-5
-1.031, -7.191e-5
-1.030, -7.235e-5
-1.029, -7.231e-5
-1.028, -7.374e-5
-1.027, -7.300e-5
-1.026, -7.430e-5
-1.025, -7.476e-5
-1.024, -7.481e-5
-1.023, -7.604e-5
-1.022, -7.554e-5
-1.021, -7.666e-5
-1.020, -7.703e-5
-1.019, -7.706e-5
-1.018, -7.830e-5
-1.017, -7.785e-5
-1.016, -7.889e-5
-1.015, -7.908e-5
-1.014, -7.916e-5
-1.013, -8.031e-5
-1.012, -7.981e-5
-1.011, -8.113e-5
-1.010, -8.106e-5
-1.009, -8.117e-5
-1.008, -8.226e-5
-1.007, -8.153e-5
-1.006, -8.311e-5
-1.005, -8.299e-5
-1.004, -8.308e-5
-1.003, -8.428e-5
-1.002, -8.349e-5
-1.001, -8.476e-5
