Sept. 15, 2024   13:53:51
Cyclic Voltammetry
File: c:/users/guazh/data/20240903_batch_252_500/2024-09-03-exp361\exp361-2024-09-15t13_39_12-h2koh\exp361_cv_sr_200mvs_efin_-1700mv.bin
Data Source:  Experiment
Instrument Model:  CHI760E
Header: CV ran at 200 mVs
Note: 

Init E (V) = -1
High E (V) = -1
Low E (V) = -1.7
Final E (V) = -1
Init P/N = N
Scan Rate (V/s) = 0.2
Segment = 3
Sample Interval (V) = 0.001
Quiet Time (sec) = 2
Sensitivity (A/V) = 0.01
Comp R (ohm) = 2.3

Results:

Channel 1:
Segment 1:

Segment 2:

Segment 3:

Potential/V, Current/A

-1.000, 3.530e-6
-1.001, 4.872e-6
-1.002, 5.020e-6
-1.003, 5.365e-6
-1.004, 5.483e-6
-1.005, 5.710e-6
-1.006, 6.075e-6
-1.007, 5.918e-6
-1.008, 5.898e-6
-1.009, 6.322e-6
-1.010, 6.164e-6
-1.011, 6.460e-6
-1.012, 6.312e-6
-1.013, 6.727e-6
-1.014, 6.362e-6
-1.015, 6.460e-6
-1.016, 6.796e-6
-1.017, 6.421e-6
-1.018, 6.786e-6
-1.019, 7.072e-6
-1.020, 6.884e-6
-1.021, 6.875e-6
-1.022, 6.944e-6
-1.023, 7.121e-6
-1.024, 7.013e-6
-1.025, 7.190e-6
-1.026, 7.486e-6
-1.027, 6.736e-6
-1.028, 7.319e-6
-1.029, 7.299e-6
-1.030, 7.121e-6
-1.031, 7.358e-6
-1.032, 7.289e-6
-1.033, 7.536e-6
-1.034, 7.378e-6
-1.035, 7.467e-6
-1.036, 7.684e-6
-1.037, 7.467e-6
-1.038, 7.634e-6
-1.039, 7.772e-6
-1.040, 7.388e-6
-1.041, 7.664e-6
-1.042, 7.802e-6
-1.043, 7.911e-6
-1.044, 7.516e-6
-1.045, 7.624e-6
-1.046, 8.029e-6
-1.047, 7.585e-6
-1.048, 7.763e-6
-1.049, 7.999e-6
-1.050, 7.832e-6
-1.051, 8.059e-6
-1.052, 8.039e-6
-1.053, 8.009e-6
-1.054, 7.989e-6
-1.055, 8.197e-6
-1.056, 8.068e-6
-1.057, 7.802e-6
-1.058, 8.068e-6
-1.059, 8.266e-6
-1.060, 7.970e-6
-1.061, 8.177e-6
-1.062, 8.167e-6
-1.063, 8.453e-6
-1.064, 7.960e-6
-1.065, 8.197e-6
-1.066, 8.443e-6
-1.067, 8.157e-6
-1.068, 8.473e-6
-1.069, 8.424e-6
-1.070, 8.285e-6
-1.071, 8.325e-6
-1.072, 8.354e-6
-1.073, 8.414e-6
-1.074, 8.443e-6
-1.075, 8.522e-6
-1.076, 8.552e-6
-1.077, 8.177e-6
-1.078, 8.581e-6
-1.079, 8.779e-6
-1.080, 8.562e-6
-1.081, 8.562e-6
-1.082, 8.354e-6
-1.083, 8.729e-6
-1.084, 8.473e-6
-1.085, 8.769e-6
-1.086, 8.966e-6
-1.087, 8.473e-6
-1.088, 8.868e-6
-1.089, 8.789e-6
-1.090, 8.670e-6
-1.091, 8.611e-6
-1.092, 8.789e-6
-1.093, 8.858e-6
-1.094, 8.650e-6
-1.095, 8.887e-6
-1.096, 8.946e-6
-1.097, 8.572e-6
-1.098, 8.986e-6
-1.099, 8.937e-6
-1.100, 8.690e-6
-1.101, 8.877e-6
-1.102, 8.937e-6
-1.103, 9.154e-6
-1.104, 8.966e-6
-1.105, 8.838e-6
-1.106, 9.233e-6
-1.107, 8.966e-6
-1.108, 9.163e-6
-1.109, 9.410e-6
-1.110, 9.104e-6
-1.111, 9.104e-6
-1.112, 9.085e-6
-1.113, 9.242e-6
-1.114, 9.154e-6
-1.115, 9.183e-6
-1.116, 9.183e-6
-1.117, 8.818e-6
-1.118, 9.272e-6
-1.119, 9.588e-6
-1.120, 9.124e-6
-1.121, 9.302e-6
-1.122, 9.371e-6
-1.123, 9.193e-6
-1.124, 9.213e-6
-1.125, 9.529e-6
-1.126, 9.519e-6
-1.127, 9.311e-6
-1.128, 9.538e-6
-1.129, 9.736e-6
-1.130, 9.489e-6
-1.131, 9.548e-6
-1.132, 9.657e-6
-1.133, 9.736e-6
-1.134, 9.440e-6
-1.135, 9.716e-6
-1.136, 9.677e-6
-1.137, 9.538e-6
-1.138, 9.686e-6
-1.139, 1.006e-5
-1.140, 9.450e-6
-1.141, 9.765e-6
-1.142, 9.607e-6
-1.143, 9.864e-6
-1.144, 9.706e-6
-1.145, 9.795e-6
-1.146, 9.953e-6
-1.147, 9.706e-6
-1.148, 9.923e-6
-1.149, 1.015e-5
-1.150, 9.825e-6
-1.151, 9.992e-6
-1.152, 1.000e-5
-1.153, 9.982e-6
-1.154, 9.992e-6
-1.155, 9.992e-6
-1.156, 1.001e-5
-1.157, 9.844e-6
-1.158, 1.027e-5
-1.159, 1.033e-5
-1.160, 1.005e-5
-1.161, 1.018e-5
-1.162, 1.015e-5
-1.163, 1.028e-5
-1.164, 1.015e-5
-1.165, 1.040e-5
-1.166, 1.029e-5
-1.167, 1.009e-5
-1.168, 1.043e-5
-1.169, 1.047e-5
-1.170, 1.001e-5
-1.171, 1.040e-5
-1.172, 1.042e-5
-1.173, 1.047e-5
-1.174, 1.029e-5
-1.175, 1.058e-5
-1.176, 1.059e-5
-1.177, 1.029e-5
-1.178, 1.074e-5
-1.179, 1.070e-5
-1.180, 1.051e-5
-1.181, 1.068e-5
-1.182, 1.077e-5
-1.183, 1.081e-5
-1.184, 1.047e-5
-1.185, 1.074e-5
-1.186, 1.080e-5
-1.187, 1.053e-5
-1.188, 1.083e-5
-1.189, 1.103e-5
-1.190, 1.056e-5
-1.191, 1.104e-5
-1.192, 1.102e-5
-1.193, 1.108e-5
-1.194, 1.075e-5
-1.195, 1.110e-5
-1.196, 1.096e-5
-1.197, 1.068e-5
-1.198, 1.077e-5
-1.199, 1.130e-5
-1.200, 1.059e-5
-1.201, 1.102e-5
-1.202, 1.105e-5
-1.203, 1.110e-5
-1.204, 1.091e-5
-1.205, 1.140e-5
-1.206, 1.129e-5
-1.207, 1.103e-5
-1.208, 1.126e-5
-1.209, 1.135e-5
-1.210, 1.102e-5
-1.211, 1.135e-5
-1.212, 1.137e-5
-1.213, 1.154e-5
-1.214, 1.103e-5
-1.215, 1.152e-5
-1.216, 1.156e-5
-1.217, 1.104e-5
-1.218, 1.137e-5
-1.219, 1.173e-5
-1.220, 1.118e-5
-1.221, 1.138e-5
-1.222, 1.146e-5
-1.223, 1.149e-5
-1.224, 1.149e-5
-1.225, 1.169e-5
-1.226, 1.158e-5
-1.227, 1.124e-5
-1.228, 1.155e-5
-1.229, 1.193e-5
-1.230, 1.141e-5
-1.231, 1.157e-5
-1.232, 1.185e-5
-1.233, 1.183e-5
-1.234, 1.158e-5
-1.235, 1.172e-5
-1.236, 1.193e-5
-1.237, 1.176e-5
-1.238, 1.168e-5
-1.239, 1.205e-5
-1.240, 1.167e-5
-1.241, 1.182e-5
-1.242, 1.204e-5
-1.243, 1.203e-5
-1.244, 1.201e-5
-1.245, 1.214e-5
-1.246, 1.218e-5
-1.247, 1.182e-5
-1.248, 1.230e-5
-1.249, 1.222e-5
-1.250, 1.170e-5
-1.251, 1.205e-5
-1.252, 1.226e-5
-1.253, 1.214e-5
-1.254, 1.206e-5
-1.255, 1.251e-5
-1.256, 1.226e-5
-1.257, 1.209e-5
-1.258, 1.229e-5
-1.259, 1.240e-5
-1.260, 1.191e-5
-1.261, 1.246e-5
-1.262, 1.231e-5
-1.263, 1.223e-5
-1.264, 1.210e-5
-1.265, 1.249e-5
-1.266, 1.263e-5
-1.267, 1.205e-5
-1.268, 1.251e-5
-1.269, 1.273e-5
-1.270, 1.226e-5
-1.271, 1.265e-5
-1.272, 1.256e-5
-1.273, 1.258e-5
-1.274, 1.238e-5
-1.275, 1.271e-5
-1.276, 1.243e-5
-1.277, 1.219e-5
-1.278, 1.266e-5
-1.279, 1.280e-5
-1.280, 1.239e-5
-1.281, 1.268e-5
-1.282, 1.280e-5
-1.283, 1.275e-5
-1.284, 1.279e-5
-1.285, 1.285e-5
-1.286, 1.281e-5
-1.287, 1.250e-5
-1.288, 1.314e-5
-1.289, 1.299e-5
-1.290, 1.249e-5
-1.291, 1.289e-5
-1.292, 1.294e-5
-1.293, 1.306e-5
-1.294, 1.288e-5
-1.295, 1.309e-5
-1.296, 1.295e-5
-1.297, 1.283e-5
-1.298, 1.316e-5
-1.299, 1.332e-5
-1.300, 1.296e-5
-1.301, 1.303e-5
-1.302, 1.321e-5
-1.303, 1.311e-5
-1.304, 1.312e-5
-1.305, 1.324e-5
-1.306, 1.352e-5
-1.307, 1.294e-5
-1.308, 1.338e-5
-1.309, 1.368e-5
-1.310, 1.300e-5
-1.311, 1.354e-5
-1.312, 1.344e-5
-1.313, 1.331e-5
-1.314, 1.335e-5
-1.315, 1.360e-5
-1.316, 1.346e-5
-1.317, 1.334e-5
-1.318, 1.348e-5
-1.319, 1.406e-5
-1.320, 1.316e-5
-1.321, 1.361e-5
-1.322, 1.383e-5
-1.323, 1.390e-5
-1.324, 1.367e-5
-1.325, 1.398e-5
-1.326, 1.382e-5
-1.327, 1.372e-5
-1.328, 1.393e-5
-1.329, 1.425e-5
-1.330, 1.374e-5
-1.331, 1.401e-5
-1.332, 1.411e-5
-1.333, 1.403e-5
-1.334, 1.429e-5
-1.335, 1.438e-5
-1.336, 1.440e-5
-1.337, 1.408e-5
-1.338, 1.446e-5
-1.339, 1.469e-5
-1.340, 1.413e-5
-1.341, 1.469e-5
-1.342, 1.448e-5
-1.343, 1.450e-5
-1.344, 1.441e-5
-1.345, 1.509e-5
-1.346, 1.465e-5
-1.347, 1.459e-5
-1.348, 1.500e-5
-1.349, 1.516e-5
-1.350, 1.454e-5
-1.351, 1.499e-5
-1.352, 1.520e-5
-1.353, 1.508e-5
-1.354, 1.505e-5
-1.355, 1.557e-5
-1.356, 1.526e-5
-1.357, 1.521e-5
-1.358, 1.571e-5
-1.359, 1.577e-5
-1.360, 1.548e-5
-1.361, 1.575e-5
-1.362, 1.582e-5
-1.363, 1.579e-5
-1.364, 1.581e-5
-1.365, 1.610e-5
-1.366, 1.622e-5
-1.367, 1.594e-5
-1.368, 1.632e-5
-1.369, 1.662e-5
-1.370, 1.625e-5
-1.371, 1.667e-5
-1.372, 1.689e-5
-1.373, 1.673e-5
-1.374, 1.698e-5
-1.375, 1.731e-5
-1.376, 1.729e-5
-1.377, 1.708e-5
-1.378, 1.772e-5
-1.379, 1.750e-5
-1.380, 1.739e-5
-1.381, 1.793e-5
-1.382, 1.796e-5
-1.383, 1.830e-5
-1.384, 1.818e-5
-1.385, 1.854e-5
-1.386, 1.859e-5
-1.387, 1.848e-5
-1.388, 1.896e-5
-1.389, 1.913e-5
-1.390, 1.891e-5
-1.391, 1.950e-5
-1.392, 1.948e-5
-1.393, 1.970e-5
-1.394, 1.995e-5
-1.395, 2.023e-5
-1.396, 2.007e-5
-1.397, 2.027e-5
-1.398, 2.078e-5
-1.399, 2.095e-5
-1.400, 2.060e-5
-1.401, 2.122e-5
-1.402, 2.163e-5
-1.403, 2.172e-5
-1.404, 2.184e-5
-1.405, 2.230e-5
-1.406, 2.236e-5
-1.407, 2.232e-5
-1.408, 2.282e-5
-1.409, 2.346e-5
-1.410, 2.306e-5
-1.411, 2.372e-5
-1.412, 2.401e-5
-1.413, 2.422e-5
-1.414, 2.452e-5
-1.415, 2.507e-5
-1.416, 2.524e-5
-1.417, 2.523e-5
-1.418, 2.590e-5
-1.419, 2.637e-5
-1.420, 2.615e-5
-1.421, 2.686e-5
-1.422, 2.715e-5
-1.423, 2.746e-5
-1.424, 2.791e-5
-1.425, 2.851e-5
-1.426, 2.884e-5
-1.427, 2.897e-5
-1.428, 2.963e-5
-1.429, 3.005e-5
-1.430, 3.008e-5
-1.431, 3.093e-5
-1.432, 3.144e-5
-1.433, 3.152e-5
-1.434, 3.222e-5
-1.435, 3.286e-5
-1.436, 3.337e-5
-1.437, 3.357e-5
-1.438, 3.420e-5
-1.439, 3.499e-5
-1.440, 3.504e-5
-1.441, 3.574e-5
-1.442, 3.665e-5
-1.443, 3.703e-5
-1.444, 3.743e-5
-1.445, 3.821e-5
-1.446, 3.889e-5
-1.447, 3.945e-5
-1.448, 4.010e-5
-1.449, 4.104e-5
-1.450, 4.128e-5
-1.451, 4.217e-5
-1.452, 4.264e-5
-1.453, 4.375e-5
-1.454, 4.413e-5
-1.455, 4.519e-5
-1.456, 4.596e-5
-1.457, 4.637e-5
-1.458, 4.756e-5
-1.459, 4.859e-5
-1.460, 4.893e-5
-1.461, 4.998e-5
-1.462, 5.090e-5
-1.463, 5.174e-5
-1.464, 5.249e-5
-1.465, 5.383e-5
-1.466, 5.468e-5
-1.467, 5.538e-5
-1.468, 5.647e-5
-1.469, 5.788e-5
-1.470, 5.804e-5
-1.471, 5.983e-5
-1.472, 6.065e-5
-1.473, 6.193e-5
-1.474, 6.283e-5
-1.475, 6.425e-5
-1.476, 6.562e-5
-1.477, 6.645e-5
-1.478, 6.790e-5
-1.479, 6.944e-5
-1.480, 7.017e-5
-1.481, 7.165e-5
-1.482, 7.325e-5
-1.483, 7.439e-5
-1.484, 7.590e-5
-1.485, 7.749e-5
-1.486, 7.897e-5
-1.487, 8.032e-5
-1.488, 8.218e-5
-1.489, 8.394e-5
-1.490, 8.488e-5
-1.491, 8.698e-5
-1.492, 8.885e-5
-1.493, 9.046e-5
-1.494, 9.222e-5
-1.495, 9.431e-5
-1.496, 9.583e-5
-1.497, 9.775e-5
-1.498, 1.000e-4
-1.499, 1.020e-4
-1.500, 1.037e-4
-1.501, 1.061e-4
-1.502, 1.081e-4
-1.503, 1.101e-4
-1.504, 1.125e-4
-1.505, 1.148e-4
-1.506, 1.173e-4
-1.507, 1.196e-4
-1.508, 1.221e-4
-1.509, 1.249e-4
-1.510, 1.270e-4
-1.511, 1.299e-4
-1.512, 1.327e-4
-1.513, 1.353e-4
-1.514, 1.382e-4
-1.515, 1.413e-4
-1.516, 1.441e-4
-1.517, 1.472e-4
-1.518, 1.503e-4
-1.519, 1.537e-4
-1.520, 1.566e-4
-1.521, 1.602e-4
-1.522, 1.635e-4
-1.523, 1.670e-4
-1.524, 1.708e-4
-1.525, 1.745e-4
-1.526, 1.782e-4
-1.527, 1.821e-4
-1.528, 1.859e-4
-1.529, 1.903e-4
-1.530, 1.941e-4
-1.531, 1.984e-4
-1.532, 2.027e-4
-1.533, 2.071e-4
-1.534, 2.116e-4
-1.535, 2.164e-4
-1.536, 2.208e-4
-1.537, 2.258e-4
-1.538, 2.310e-4
-1.539, 2.356e-4
-1.540, 2.408e-4
-1.541, 2.463e-4
-1.542, 2.518e-4
-1.543, 2.574e-4
-1.544, 2.629e-4
-1.545, 2.688e-4
-1.546, 2.752e-4
-1.547, 2.808e-4
-1.548, 2.871e-4
-1.549, 2.940e-4
-1.550, 2.998e-4
-1.551, 3.070e-4
-1.552, 3.139e-4
-1.553, 3.203e-4
-1.554, 3.280e-4
-1.555, 3.354e-4
-1.556, 3.428e-4
-1.557, 3.506e-4
-1.558, 3.584e-4
-1.559, 3.668e-4
-1.560, 3.748e-4
-1.561, 3.829e-4
-1.562, 3.922e-4
-1.563, 4.005e-4
-1.564, 4.092e-4
-1.565, 4.188e-4
-1.566, 4.277e-4
-1.567, 4.373e-4
-1.568, 4.472e-4
-1.569, 4.571e-4
-1.570, 4.676e-4
-1.571, 4.776e-4
-1.572, 4.883e-4
-1.573, 4.991e-4
-1.574, 5.101e-4
-1.575, 5.217e-4
-1.576, 5.331e-4
-1.577, 5.450e-4
-1.578, 5.573e-4
-1.579, 5.697e-4
-1.580, 5.823e-4
-1.581, 5.949e-4
-1.582, 6.078e-4
-1.583, 6.213e-4
-1.584, 6.342e-4
-1.585, 6.491e-4
-1.586, 6.632e-4
-1.587, 6.773e-4
-1.588, 6.932e-4
-1.589, 7.078e-4
-1.590, 7.232e-4
-1.591, 7.387e-4
-1.592, 7.545e-4
-1.593, 7.713e-4
-1.594, 7.878e-4
-1.595, 8.046e-4
-1.596, 8.226e-4
-1.597, 8.400e-4
-1.598, 8.580e-4
-1.599, 8.764e-4
-1.600, 8.941e-4
-1.601, 9.129e-4
-1.602, 9.323e-4
-1.603, 9.511e-4
-1.604, 9.711e-4
-1.605, 9.911e-4
-1.606, 1.011e-3
-1.607, 1.033e-3
-1.608, 1.052e-3
-1.609, 1.075e-3
-1.610, 1.096e-3
-1.611, 1.117e-3
-1.612, 1.141e-3
-1.613, 1.163e-3
-1.614, 1.186e-3
-1.615, 1.210e-3
-1.616, 1.232e-3
-1.617, 1.257e-3
-1.618, 1.281e-3
-1.619, 1.305e-3
-1.620, 1.331e-3
-1.621, 1.356e-3
-1.622, 1.383e-3
-1.623, 1.411e-3
-1.624, 1.435e-3
-1.625, 1.465e-3
-1.626, 1.492e-3
-1.627, 1.520e-3
-1.628, 1.550e-3
-1.629, 1.578e-3
-1.630, 1.609e-3
-1.631, 1.638e-3
-1.632, 1.668e-3
-1.633, 1.700e-3
-1.634, 1.732e-3
-1.635, 1.763e-3
-1.636, 1.796e-3
-1.637, 1.826e-3
-1.638, 1.860e-3
-1.639, 1.895e-3
-1.640, 1.927e-3
-1.641, 1.960e-3
-1.642, 1.993e-3
-1.643, 2.027e-3
-1.644, 2.061e-3
-1.645, 2.095e-3
-1.646, 2.131e-3
-1.647, 2.165e-3
-1.648, 2.201e-3
-1.649, 2.238e-3
-1.650, 2.270e-3
-1.651, 2.306e-3
-1.652, 2.343e-3
-1.653, 2.380e-3
-1.654, 2.420e-3
-1.655, 2.457e-3
-1.656, 2.496e-3
-1.657, 2.537e-3
-1.658, 2.574e-3
-1.659, 2.617e-3
-1.660, 2.655e-3
-1.661, 2.694e-3
-1.662, 2.738e-3
-1.663, 2.776e-3
-1.664, 2.820e-3
-1.665, 2.864e-3
-1.666, 2.903e-3
-1.667, 2.954e-3
-1.668, 2.993e-3
-1.669, 3.040e-3
-1.670, 3.086e-3
-1.671, 3.124e-3
-1.672, 3.177e-3
-1.673, 3.218e-3
-1.674, 3.263e-3
-1.675, 3.310e-3
-1.676, 3.355e-3
-1.677, 3.402e-3
-1.678, 3.450e-3
-1.679, 3.496e-3
-1.680, 3.547e-3
-1.681, 3.591e-3
-1.682, 3.639e-3
-1.683, 3.688e-3
-1.684, 3.732e-3
-1.685, 3.780e-3
-1.686, 3.829e-3
-1.687, 3.866e-3
-1.688, 3.919e-3
-1.689, 3.969e-3
-1.690, 4.017e-3
-1.691, 4.071e-3
-1.692, 4.117e-3
-1.693, 4.170e-3
-1.694, 4.219e-3
-1.695, 4.267e-3
-1.696, 4.322e-3
-1.697, 4.366e-3
-1.698, 4.417e-3
-1.699, 4.463e-3
-1.700, 4.474e-3
-1.699, 4.444e-3
-1.698, 4.403e-3
-1.697, 4.375e-3
-1.696, 4.340e-3
-1.695, 4.302e-3
-1.694, 4.271e-3
-1.693, 4.231e-3
-1.692, 4.197e-3
-1.691, 4.160e-3
-1.690, 4.119e-3
-1.689, 4.086e-3
-1.688, 4.043e-3
-1.687, 4.009e-3
-1.686, 3.971e-3
-1.685, 3.928e-3
-1.684, 3.899e-3
-1.683, 3.855e-3
-1.682, 3.817e-3
-1.681, 3.783e-3
-1.680, 3.734e-3
-1.679, 3.701e-3
-1.678, 3.659e-3
-1.677, 3.615e-3
-1.676, 3.584e-3
-1.675, 3.539e-3
-1.674, 3.504e-3
-1.673, 3.469e-3
-1.672, 3.425e-3
-1.671, 3.395e-3
-1.670, 3.352e-3
-1.669, 3.314e-3
-1.668, 3.281e-3
-1.667, 3.237e-3
-1.666, 3.205e-3
-1.665, 3.165e-3
-1.664, 3.122e-3
-1.663, 3.089e-3
-1.662, 3.047e-3
-1.661, 3.013e-3
-1.660, 2.979e-3
-1.659, 2.939e-3
-1.658, 2.910e-3
-1.657, 2.872e-3
-1.656, 2.838e-3
-1.655, 2.806e-3
-1.654, 2.769e-3
-1.653, 2.740e-3
-1.652, 2.703e-3
-1.651, 2.668e-3
-1.650, 2.639e-3
-1.649, 2.603e-3
-1.648, 2.573e-3
-1.647, 2.540e-3
-1.646, 2.507e-3
-1.645, 2.475e-3
-1.644, 2.443e-3
-1.643, 2.409e-3
-1.642, 2.378e-3
-1.641, 2.345e-3
-1.640, 2.315e-3
-1.639, 2.280e-3
-1.638, 2.249e-3
-1.637, 2.217e-3
-1.636, 2.184e-3
-1.635, 2.155e-3
-1.634, 2.124e-3
-1.633, 2.094e-3
-1.632, 2.064e-3
-1.631, 2.034e-3
-1.630, 2.005e-3
-1.629, 1.975e-3
-1.628, 1.947e-3
-1.627, 1.919e-3
-1.626, 1.891e-3
-1.625, 1.862e-3
-1.624, 1.835e-3
-1.623, 1.808e-3
-1.622, 1.780e-3
-1.621, 1.755e-3
-1.620, 1.728e-3
-1.619, 1.701e-3
-1.618, 1.677e-3
-1.617, 1.650e-3
-1.616, 1.625e-3
-1.615, 1.601e-3
-1.614, 1.574e-3
-1.613, 1.552e-3
-1.612, 1.526e-3
-1.611, 1.503e-3
-1.610, 1.478e-3
-1.609, 1.454e-3
-1.608, 1.431e-3
-1.607, 1.408e-3
-1.606, 1.385e-3
-1.605, 1.363e-3
-1.604, 1.340e-3
-1.603, 1.318e-3
-1.602, 1.296e-3
-1.601, 1.274e-3
-1.600, 1.253e-3
-1.599, 1.231e-3
-1.598, 1.211e-3
-1.597, 1.191e-3
-1.596, 1.170e-3
-1.595, 1.150e-3
-1.594, 1.130e-3
-1.593, 1.110e-3
-1.592, 1.090e-3
-1.591, 1.071e-3
-1.590, 1.052e-3
-1.589, 1.034e-3
-1.588, 1.015e-3
-1.587, 9.978e-4
-1.586, 9.791e-4
-1.585, 9.621e-4
-1.584, 9.449e-4
-1.583, 9.276e-4
-1.582, 9.102e-4
-1.581, 8.939e-4
-1.580, 8.767e-4
-1.579, 8.611e-4
-1.578, 8.453e-4
-1.577, 8.293e-4
-1.576, 8.138e-4
-1.575, 7.982e-4
-1.574, 7.838e-4
-1.573, 7.684e-4
-1.572, 7.540e-4
-1.571, 7.398e-4
-1.570, 7.257e-4
-1.569, 7.115e-4
-1.568, 6.985e-4
-1.567, 6.844e-4
-1.566, 6.712e-4
-1.565, 6.582e-4
-1.564, 6.452e-4
-1.563, 6.327e-4
-1.562, 6.200e-4
-1.561, 6.082e-4
-1.560, 5.960e-4
-1.559, 5.842e-4
-1.558, 5.728e-4
-1.557, 5.610e-4
-1.556, 5.497e-4
-1.555, 5.385e-4
-1.554, 5.279e-4
-1.553, 5.168e-4
-1.552, 5.063e-4
-1.551, 4.961e-4
-1.550, 4.858e-4
-1.549, 4.758e-4
-1.548, 4.661e-4
-1.547, 4.560e-4
-1.546, 4.465e-4
-1.545, 4.370e-4
-1.544, 4.282e-4
-1.543, 4.193e-4
-1.542, 4.103e-4
-1.541, 4.021e-4
-1.540, 3.931e-4
-1.539, 3.850e-4
-1.538, 3.768e-4
-1.537, 3.685e-4
-1.536, 3.605e-4
-1.535, 3.526e-4
-1.534, 3.453e-4
-1.533, 3.373e-4
-1.532, 3.303e-4
-1.531, 3.231e-4
-1.530, 3.160e-4
-1.529, 3.090e-4
-1.528, 3.024e-4
-1.527, 2.957e-4
-1.526, 2.887e-4
-1.525, 2.824e-4
-1.524, 2.765e-4
-1.523, 2.699e-4
-1.522, 2.641e-4
-1.521, 2.580e-4
-1.520, 2.520e-4
-1.519, 2.464e-4
-1.518, 2.410e-4
-1.517, 2.357e-4
-1.516, 2.303e-4
-1.515, 2.248e-4
-1.514, 2.200e-4
-1.513, 2.149e-4
-1.512, 2.098e-4
-1.511, 2.055e-4
-1.510, 2.002e-4
-1.509, 1.958e-4
-1.508, 1.914e-4
-1.507, 1.864e-4
-1.506, 1.822e-4
-1.505, 1.778e-4
-1.504, 1.739e-4
-1.503, 1.694e-4
-1.502, 1.655e-4
-1.501, 1.618e-4
-1.500, 1.574e-4
-1.499, 1.536e-4
-1.498, 1.503e-4
-1.497, 1.465e-4
-1.496, 1.429e-4
-1.495, 1.393e-4
-1.494, 1.357e-4
-1.493, 1.325e-4
-1.492, 1.292e-4
-1.491, 1.262e-4
-1.490, 1.229e-4
-1.489, 1.198e-4
-1.488, 1.172e-4
-1.487, 1.138e-4
-1.486, 1.112e-4
-1.485, 1.082e-4
-1.484, 1.056e-4
-1.483, 1.027e-4
-1.482, 1.004e-4
-1.481, 9.765e-5
-1.480, 9.495e-5
-1.479, 9.268e-5
-1.478, 9.016e-5
-1.477, 8.766e-5
-1.476, 8.576e-5
-1.475, 8.315e-5
-1.474, 8.121e-5
-1.473, 7.879e-5
-1.472, 7.668e-5
-1.471, 7.481e-5
-1.470, 7.255e-5
-1.469, 7.058e-5
-1.468, 6.884e-5
-1.467, 6.660e-5
-1.466, 6.515e-5
-1.465, 6.278e-5
-1.464, 6.143e-5
-1.463, 5.929e-5
-1.462, 5.778e-5
-1.461, 5.613e-5
-1.460, 5.452e-5
-1.459, 5.273e-5
-1.458, 5.142e-5
-1.457, 4.971e-5
-1.456, 4.830e-5
-1.455, 4.699e-5
-1.454, 4.567e-5
-1.453, 4.380e-5
-1.452, 4.247e-5
-1.451, 4.123e-5
-1.450, 3.991e-5
-1.449, 3.874e-5
-1.448, 3.759e-5
-1.447, 3.606e-5
-1.446, 3.493e-5
-1.445, 3.359e-5
-1.444, 3.282e-5
-1.443, 3.124e-5
-1.442, 3.021e-5
-1.441, 2.927e-5
-1.440, 2.800e-5
-1.439, 2.734e-5
-1.438, 2.628e-5
-1.437, 2.511e-5
-1.436, 2.424e-5
-1.435, 2.304e-5
-1.434, 2.235e-5
-1.433, 2.118e-5
-1.432, 2.044e-5
-1.431, 1.970e-5
-1.430, 1.854e-5
-1.429, 1.777e-5
-1.428, 1.730e-5
-1.427, 1.596e-5
-1.426, 1.571e-5
-1.425, 1.455e-5
-1.424, 1.410e-5
-1.423, 1.328e-5
-1.422, 1.241e-5
-1.421, 1.200e-5
-1.420, 1.094e-5
-1.419, 1.055e-5
-1.418, 1.003e-5
-1.417, 9.282e-6
-1.416, 8.611e-6
-1.415, 8.236e-6
-1.414, 7.693e-6
-1.413, 6.884e-6
-1.412, 6.697e-6
-1.411, 5.937e-6
-1.410, 5.227e-6
-1.409, 4.911e-6
-1.408, 4.546e-6
-1.407, 3.747e-6
-1.406, 3.412e-6
-1.405, 3.096e-6
-1.404, 2.543e-6
-1.403, 1.942e-6
-1.402, 1.843e-6
-1.401, 1.330e-6
-1.400, 7.380e-7
-1.399, 4.321e-7
-1.398, 2.249e-7
-1.397, -3.867e-7
-1.396, -5.446e-7
-1.395, -1.097e-6
-1.394, -1.265e-6
-1.393, -2.192e-6
-1.392, -1.926e-6
-1.391, -2.123e-6
-1.390, -2.981e-6
-1.389, -3.100e-6
-1.388, -3.317e-6
-1.387, -3.790e-6
-1.386, -3.889e-6
-1.385, -4.343e-6
-1.384, -4.570e-6
-1.383, -4.886e-6
-1.382, -5.201e-6
-1.381, -5.043e-6
-1.380, -5.764e-6
-1.379, -5.872e-6
-1.378, -5.991e-6
-1.377, -6.435e-6
-1.376, -6.464e-6
-1.375, -6.691e-6
-1.374, -6.918e-6
-1.373, -7.293e-6
-1.372, -7.234e-6
-1.371, -7.392e-6
-1.370, -7.697e-6
-1.369, -7.776e-6
-1.368, -7.855e-6
-1.367, -8.220e-6
-1.366, -8.201e-6
-1.365, -8.536e-6
-1.364, -8.418e-6
-1.363, -8.793e-6
-1.362, -8.832e-6
-1.361, -9.000e-6
-1.360, -9.503e-6
-1.359, -9.375e-6
-1.358, -9.434e-6
-1.357, -9.809e-6
-1.356, -9.740e-6
-1.355, -9.927e-6
-1.354, -1.001e-5
-1.353, -1.033e-5
-1.352, -1.014e-5
-1.351, -1.025e-5
-1.350, -1.048e-5
-1.349, -1.056e-5
-1.348, -1.044e-5
-1.347, -1.092e-5
-1.346, -1.082e-5
-1.345, -1.092e-5
-1.344, -1.105e-5
-1.343, -1.114e-5
-1.342, -1.113e-5
-1.341, -1.122e-5
-1.340, -1.149e-5
-1.339, -1.161e-5
-1.338, -1.130e-5
-1.337, -1.175e-5
-1.336, -1.156e-5
-1.335, -1.165e-5
-1.334, -1.166e-5
-1.333, -1.189e-5
-1.332, -1.176e-5
-1.331, -1.180e-5
-1.330, -1.211e-5
-1.329, -1.203e-5
-1.328, -1.179e-5
-1.327, -1.221e-5
-1.326, -1.204e-5
-1.325, -1.201e-5
-1.324, -1.196e-5
-1.323, -1.238e-5
-1.322, -1.224e-5
-1.321, -1.215e-5
-1.320, -1.250e-5
-1.319, -1.220e-5
-1.318, -1.221e-5
-1.317, -1.245e-5
-1.316, -1.237e-5
-1.315, -1.261e-5
-1.314, -1.227e-5
-1.313, -1.260e-5
-1.312, -1.250e-5
-1.311, -1.235e-5
-1.310, -1.280e-5
-1.309, -1.259e-5
-1.308, -1.232e-5
-1.307, -1.288e-5
-1.306, -1.264e-5
-1.305, -1.297e-5
-1.304, -1.250e-5
-1.303, -1.276e-5
-1.302, -1.292e-5
-1.301, -1.274e-5
-1.300, -1.303e-5
-1.299, -1.286e-5
-1.298, -1.276e-5
-1.297, -1.300e-5
-1.296, -1.286e-5
-1.295, -1.290e-5
-1.294, -1.272e-5
-1.293, -1.303e-5
-1.292, -1.293e-5
-1.291, -1.307e-5
-1.290, -1.298e-5
-1.289, -1.303e-5
-1.288, -1.279e-5
-1.287, -1.309e-5
-1.286, -1.297e-5
-1.285, -1.296e-5
-1.284, -1.283e-5
-1.283, -1.313e-5
-1.282, -1.305e-5
-1.281, -1.290e-5
-1.280, -1.343e-5
-1.279, -1.295e-5
-1.278, -1.274e-5
-1.277, -1.310e-5
-1.276, -1.299e-5
-1.275, -1.314e-5
-1.274, -1.292e-5
-1.273, -1.332e-5
-1.272, -1.312e-5
-1.271, -1.304e-5
-1.270, -1.346e-5
-1.269, -1.299e-5
-1.268, -1.279e-5
-1.267, -1.315e-5
-1.266, -1.305e-5
-1.265, -1.305e-5
-1.264, -1.286e-5
-1.263, -1.341e-5
-1.262, -1.329e-5
-1.261, -1.312e-5
-1.260, -1.327e-5
-1.259, -1.321e-5
-1.258, -1.321e-5
-1.257, -1.332e-5
-1.256, -1.334e-5
-1.255, -1.316e-5
-1.254, -1.331e-5
-1.253, -1.344e-5
-1.252, -1.327e-5
-1.251, -1.335e-5
-1.250, -1.361e-5
-1.249, -1.365e-5
-1.248, -1.335e-5
-1.247, -1.346e-5
-1.246, -1.335e-5
-1.245, -1.339e-5
-1.244, -1.323e-5
-1.243, -1.368e-5
-1.242, -1.334e-5
-1.241, -1.350e-5
-1.240, -1.358e-5
-1.239, -1.341e-5
-1.238, -1.357e-5
-1.237, -1.367e-5
-1.236, -1.344e-5
-1.235, -1.353e-5
-1.234, -1.342e-5
-1.233, -1.358e-5
-1.232, -1.363e-5
-1.231, -1.349e-5
-1.230, -1.401e-5
-1.229, -1.377e-5
-1.228, -1.345e-5
-1.227, -1.405e-5
-1.226, -1.371e-5
-1.225, -1.367e-5
-1.224, -1.360e-5
-1.223, -1.392e-5
-1.222, -1.388e-5
-1.221, -1.389e-5
-1.220, -1.418e-5
-1.219, -1.386e-5
-1.218, -1.372e-5
-1.217, -1.404e-5
-1.216, -1.403e-5
-1.215, -1.400e-5
-1.214, -1.385e-5
-1.213, -1.416e-5
-1.212, -1.389e-5
-1.211, -1.398e-5
-1.210, -1.429e-5
-1.209, -1.405e-5
-1.208, -1.385e-5
-1.207, -1.426e-5
-1.206, -1.413e-5
-1.205, -1.396e-5
-1.204, -1.422e-5
-1.203, -1.428e-5
-1.202, -1.434e-5
-1.201, -1.436e-5
-1.200, -1.454e-5
-1.199, -1.434e-5
-1.198, -1.424e-5
-1.197, -1.462e-5
-1.196, -1.443e-5
-1.195, -1.436e-5
-1.194, -1.443e-5
-1.193, -1.458e-5
-1.192, -1.440e-5
-1.191, -1.441e-5
-1.190, -1.492e-5
-1.189, -1.444e-5
-1.188, -1.426e-5
-1.187, -1.500e-5
-1.186, -1.441e-5
-1.185, -1.458e-5
-1.184, -1.470e-5
-1.183, -1.469e-5
-1.182, -1.479e-5
-1.181, -1.452e-5
-1.180, -1.491e-5
-1.179, -1.470e-5
-1.178, -1.483e-5
-1.177, -1.523e-5
-1.176, -1.498e-5
-1.175, -1.499e-5
-1.174, -1.505e-5
-1.173, -1.514e-5
-1.172, -1.489e-5
-1.171, -1.513e-5
-1.170, -1.535e-5
-1.169, -1.513e-5
-1.168, -1.511e-5
-1.167, -1.538e-5
-1.166, -1.530e-5
-1.165, -1.513e-5
-1.164, -1.515e-5
-1.163, -1.548e-5
-1.162, -1.560e-5
-1.161, -1.523e-5
-1.160, -1.560e-5
-1.159, -1.535e-5
-1.158, -1.524e-5
-1.157, -1.579e-5
-1.156, -1.553e-5
-1.155, -1.590e-5
-1.154, -1.565e-5
-1.153, -1.599e-5
-1.152, -1.575e-5
-1.151, -1.568e-5
-1.150, -1.621e-5
-1.149, -1.577e-5
-1.148, -1.583e-5
-1.147, -1.605e-5
-1.146, -1.595e-5
-1.145, -1.590e-5
-1.144, -1.603e-5
-1.143, -1.616e-5
-1.142, -1.617e-5
-1.141, -1.607e-5
-1.140, -1.626e-5
-1.139, -1.612e-5
-1.138, -1.607e-5
-1.137, -1.657e-5
-1.136, -1.644e-5
-1.135, -1.631e-5
-1.134, -1.651e-5
-1.133, -1.657e-5
-1.132, -1.644e-5
-1.131, -1.668e-5
-1.130, -1.690e-5
-1.129, -1.675e-5
-1.128, -1.641e-5
-1.127, -1.701e-5
-1.126, -1.684e-5
-1.125, -1.689e-5
-1.124, -1.685e-5
-1.123, -1.727e-5
-1.122, -1.703e-5
-1.121, -1.698e-5
-1.120, -1.742e-5
-1.119, -1.702e-5
-1.118, -1.692e-5
-1.117, -1.752e-5
-1.116, -1.709e-5
-1.115, -1.737e-5
-1.114, -1.731e-5
-1.113, -1.756e-5
-1.112, -1.721e-5
-1.111, -1.734e-5
-1.110, -1.777e-5
-1.109, -1.755e-5
-1.108, -1.752e-5
-1.107, -1.811e-5
-1.106, -1.771e-5
-1.105, -1.768e-5
-1.104, -1.753e-5
-1.103, -1.805e-5
-1.102, -1.789e-5
-1.101, -1.780e-5
-1.100, -1.817e-5
-1.099, -1.801e-5
-1.098, -1.764e-5
-1.097, -1.838e-5
-1.096, -1.810e-5
-1.095, -1.800e-5
-1.094, -1.833e-5
-1.093, -1.823e-5
-1.092, -1.826e-5
-1.091, -1.811e-5
-1.090, -1.866e-5
-1.089, -1.848e-5
-1.088, -1.830e-5
-1.087, -1.884e-5
-1.086, -1.853e-5
-1.085, -1.849e-5
-1.084, -1.846e-5
-1.083, -1.921e-5
-1.082, -1.860e-5
-1.081, -1.885e-5
-1.080, -1.918e-5
-1.079, -1.882e-5
-1.078, -1.904e-5
-1.077, -1.930e-5
-1.076, -1.918e-5
-1.075, -1.926e-5
-1.074, -1.928e-5
-1.073, -1.933e-5
-1.072, -1.941e-5
-1.071, -1.937e-5
-1.070, -1.968e-5
-1.069, -1.963e-5
-1.068, -1.923e-5
-1.067, -1.983e-5
-1.066, -1.954e-5
-1.065, -1.958e-5
-1.064, -1.971e-5
-1.063, -1.980e-5
-1.062, -1.966e-5
-1.061, -1.966e-5
-1.060, -2.010e-5
-1.059, -1.984e-5
-1.058, -1.967e-5
-1.057, -2.018e-5
-1.056, -1.978e-5
-1.055, -2.002e-5
-1.054, -2.012e-5
-1.053, -2.023e-5
-1.052, -2.004e-5
-1.051, -2.018e-5
-1.050, -2.066e-5
-1.049, -2.039e-5
-1.048, -2.027e-5
-1.047, -2.091e-5
-1.046, -2.047e-5
-1.045, -2.046e-5
-1.044, -2.069e-5
-1.043, -2.103e-5
-1.042, -2.051e-5
-1.041, -2.073e-5
-1.040, -2.082e-5
-1.039, -2.081e-5
-1.038, -2.087e-5
-1.037, -2.127e-5
-1.036, -2.100e-5
-1.035, -2.077e-5
-1.034, -2.103e-5
-1.033, -2.123e-5
-1.032, -2.097e-5
-1.031, -2.108e-5
-1.030, -2.157e-5
-1.029, -2.118e-5
-1.028, -2.111e-5
-1.027, -2.184e-5
-1.026, -2.133e-5
-1.025, -2.147e-5
-1.024, -2.172e-5
-1.023, -2.187e-5
-1.022, -2.166e-5
-1.021, -2.155e-5
-1.020, -2.174e-5
-1.019, -2.182e-5
-1.018, -2.168e-5
-1.017, -2.217e-5
-1.016, -2.172e-5
-1.015, -2.198e-5
-1.014, -2.201e-5
-1.013, -2.229e-5
-1.012, -2.193e-5
-1.011, -2.210e-5
-1.010, -2.234e-5
-1.009, -2.205e-5
-1.008, -2.204e-5
-1.007, -2.255e-5
-1.006, -2.231e-5
-1.005, -2.225e-5
-1.004, -2.255e-5
-1.003, -2.260e-5
-1.002, -2.241e-5
-1.001, -2.255e-5
