Sept. 15, 2024   13:44:08
Cyclic Voltammetry
File: c:/users/guazh/data/20240903_batch_252_500/2024-09-03-exp361\exp361-2024-09-15t13_39_12-h2koh\exp361_cv_50mvs_efin_-1400mv.bin
Data Source:  Experiment
Instrument Model:  CHI760E
Header: CV ran at 50 mVs
Note: 

Init E (V) = -1
High E (V) = -1
Low E (V) = -1.4
Final E (V) = -1
Init P/N = N
Scan Rate (V/s) = 0.05
Segment = 7
Sample Interval (V) = 0.001
Quiet Time (sec) = 60
Sensitivity (A/V) = 0.001
Comp R (ohm) = 2.3

Results:

Channel 1:
Segment 1:

Segment 2:
Ep = -1.068V
ip = -4.771e-6A
Ah = -4.109e-6C

Segment 3:
Ep = -1.362V
ip = 8.537e-5A
Ah = 7.699e-5C

Segment 4:

Segment 5:

Segment 6:

Segment 7:

Potential/V, Current/A

-1.000, 7.753e-7
-1.001, 8.858e-7
-1.002, 8.917e-7
-1.003, 9.213e-7
-1.004, 9.331e-7
-1.005, 9.755e-7
-1.006, 9.874e-7
-1.007, 9.657e-7
-1.008, 9.844e-7
-1.009, 1.017e-6
-1.010, 1.031e-6
-1.011, 1.027e-6
-1.012, 1.034e-6
-1.013, 1.059e-6
-1.014, 1.078e-6
-1.015, 1.093e-6
-1.016, 1.082e-6
-1.017, 1.067e-6
-1.018, 1.087e-6
-1.019, 1.093e-6
-1.020, 1.124e-6
-1.021, 1.118e-6
-1.022, 1.149e-6
-1.023, 1.152e-6
-1.024, 1.138e-6
-1.025, 1.172e-6
-1.026, 1.175e-6
-1.027, 1.211e-6
-1.028, 1.200e-6
-1.029, 1.199e-6
-1.030, 1.212e-6
-1.031, 1.237e-6
-1.032, 1.203e-6
-1.033, 1.239e-6
-1.034, 1.261e-6
-1.035, 1.271e-6
-1.036, 1.257e-6
-1.037, 1.277e-6
-1.038, 1.285e-6
-1.039, 1.311e-6
-1.040, 1.325e-6
-1.041, 1.317e-6
-1.042, 1.327e-6
-1.043, 1.325e-6
-1.044, 1.334e-6
-1.045, 1.358e-6
-1.046, 1.388e-6
-1.047, 1.372e-6
-1.048, 1.372e-6
-1.049, 1.390e-6
-1.050, 1.409e-6
-1.051, 1.428e-6
-1.052, 1.405e-6
-1.053, 1.447e-6
-1.054, 1.443e-6
-1.055, 1.460e-6
-1.056, 1.449e-6
-1.057, 1.490e-6
-1.058, 1.456e-6
-1.059, 1.463e-6
-1.060, 1.482e-6
-1.061, 1.513e-6
-1.062, 1.506e-6
-1.063, 1.509e-6
-1.064, 1.558e-6
-1.065, 1.563e-6
-1.066, 1.553e-6
-1.067, 1.541e-6
-1.068, 1.582e-6
-1.069, 1.545e-6
-1.070, 1.608e-6
-1.071, 1.595e-6
-1.072, 1.617e-6
-1.073, 1.592e-6
-1.074, 1.605e-6
-1.075, 1.624e-6
-1.076, 1.636e-6
-1.077, 1.670e-6
-1.078, 1.653e-6
-1.079, 1.659e-6
-1.080, 1.700e-6
-1.081, 1.686e-6
-1.082, 1.705e-6
-1.083, 1.707e-6
-1.084, 1.706e-6
-1.085, 1.715e-6
-1.086, 1.708e-6
-1.087, 1.708e-6
-1.088, 1.751e-6
-1.089, 1.718e-6
-1.090, 1.751e-6
-1.091, 1.752e-6
-1.092, 1.769e-6
-1.093, 1.782e-6
-1.094, 1.778e-6
-1.095, 1.821e-6
-1.096, 1.791e-6
-1.097, 1.792e-6
-1.098, 1.829e-6
-1.099, 1.803e-6
-1.100, 1.838e-6
-1.101, 1.816e-6
-1.102, 1.842e-6
-1.103, 1.854e-6
-1.104, 1.858e-6
-1.105, 1.884e-6
-1.106, 1.906e-6
-1.107, 1.871e-6
-1.108, 1.882e-6
-1.109, 1.891e-6
-1.110, 1.932e-6
-1.111, 1.924e-6
-1.112, 1.921e-6
-1.113, 1.932e-6
-1.114, 1.940e-6
-1.115, 1.919e-6
-1.116, 1.961e-6
-1.117, 1.952e-6
-1.118, 1.962e-6
-1.119, 1.960e-6
-1.120, 1.959e-6
-1.121, 1.999e-6
-1.122, 1.997e-6
-1.123, 2.002e-6
-1.124, 2.011e-6
-1.125, 2.038e-6
-1.126, 2.019e-6
-1.127, 2.035e-6
-1.128, 2.035e-6
-1.129, 2.025e-6
-1.130, 2.055e-6
-1.131, 2.075e-6
-1.132, 2.074e-6
-1.133, 2.060e-6
-1.134, 2.090e-6
-1.135, 2.092e-6
-1.136, 2.110e-6
-1.137, 2.081e-6
-1.138, 2.106e-6
-1.139, 2.121e-6
-1.140, 2.129e-6
-1.141, 2.152e-6
-1.142, 2.146e-6
-1.143, 2.142e-6
-1.144, 2.163e-6
-1.145, 2.151e-6
-1.146, 2.200e-6
-1.147, 2.200e-6
-1.148, 2.195e-6
-1.149, 2.213e-6
-1.150, 2.217e-6
-1.151, 2.220e-6
-1.152, 2.230e-6
-1.153, 2.248e-6
-1.154, 2.254e-6
-1.155, 2.263e-6
-1.156, 2.259e-6
-1.157, 2.280e-6
-1.158, 2.285e-6
-1.159, 2.293e-6
-1.160, 2.302e-6
-1.161, 2.320e-6
-1.162, 2.305e-6
-1.163, 2.331e-6
-1.164, 2.340e-6
-1.165, 2.338e-6
-1.166, 2.359e-6
-1.167, 2.375e-6
-1.168, 2.389e-6
-1.169, 2.396e-6
-1.170, 2.417e-6
-1.171, 2.446e-6
-1.172, 2.424e-6
-1.173, 2.440e-6
-1.174, 2.451e-6
-1.175, 2.442e-6
-1.176, 2.450e-6
-1.177, 2.478e-6
-1.178, 2.512e-6
-1.179, 2.511e-6
-1.180, 2.535e-6
-1.181, 2.536e-6
-1.182, 2.564e-6
-1.183, 2.552e-6
-1.184, 2.581e-6
-1.185, 2.600e-6
-1.186, 2.605e-6
-1.187, 2.643e-6
-1.188, 2.642e-6
-1.189, 2.659e-6
-1.190, 2.671e-6
-1.191, 2.731e-6
-1.192, 2.741e-6
-1.193, 2.787e-6
-1.194, 2.860e-6
-1.195, 2.913e-6
-1.196, 2.981e-6
-1.197, 3.077e-6
-1.198, 3.170e-6
-1.199, 3.297e-6
-1.200, 3.452e-6
-1.201, 3.642e-6
-1.202, 3.843e-6
-1.203, 4.102e-6
-1.204, 4.410e-6
-1.205, 4.724e-6
-1.206, 5.048e-6
-1.207, 5.398e-6
-1.208, 5.800e-6
-1.209, 6.131e-6
-1.210, 6.502e-6
-1.211, 6.813e-6
-1.212, 7.119e-6
-1.213, 7.413e-6
-1.214, 7.708e-6
-1.215, 7.963e-6
-1.216, 8.211e-6
-1.217, 8.428e-6
-1.218, 8.632e-6
-1.219, 8.815e-6
-1.220, 9.010e-6
-1.221, 9.191e-6
-1.222, 9.396e-6
-1.223, 9.539e-6
-1.224, 9.718e-6
-1.225, 9.900e-6
-1.226, 1.008e-5
-1.227, 1.023e-5
-1.228, 1.041e-5
-1.229, 1.061e-5
-1.230, 1.078e-5
-1.231, 1.097e-5
-1.232, 1.112e-5
-1.233, 1.128e-5
-1.234, 1.147e-5
-1.235, 1.165e-5
-1.236, 1.185e-5
-1.237, 1.204e-5
-1.238, 1.222e-5
-1.239, 1.246e-5
-1.240, 1.264e-5
-1.241, 1.284e-5
-1.242, 1.303e-5
-1.243, 1.323e-5
-1.244, 1.345e-5
-1.245, 1.372e-5
-1.246, 1.394e-5
-1.247, 1.419e-5
-1.248, 1.442e-5
-1.249, 1.466e-5
-1.250, 1.492e-5
-1.251, 1.518e-5
-1.252, 1.547e-5
-1.253, 1.575e-5
-1.254, 1.606e-5
-1.255, 1.636e-5
-1.256, 1.670e-5
-1.257, 1.703e-5
-1.258, 1.737e-5
-1.259, 1.775e-5
-1.260, 1.814e-5
-1.261, 1.849e-5
-1.262, 1.886e-5
-1.263, 1.927e-5
-1.264, 1.971e-5
-1.265, 2.014e-5
-1.266, 2.062e-5
-1.267, 2.109e-5
-1.268, 2.156e-5
-1.269, 2.208e-5
-1.270, 2.261e-5
-1.271, 2.316e-5
-1.272, 2.373e-5
-1.273, 2.430e-5
-1.274, 2.492e-5
-1.275, 2.556e-5
-1.276, 2.623e-5
-1.277, 2.688e-5
-1.278, 2.756e-5
-1.279, 2.827e-5
-1.280, 2.902e-5
-1.281, 2.982e-5
-1.282, 3.063e-5
-1.283, 3.142e-5
-1.284, 3.227e-5
-1.285, 3.314e-5
-1.286, 3.405e-5
-1.287, 3.500e-5
-1.288, 3.595e-5
-1.289, 3.699e-5
-1.290, 3.802e-5
-1.291, 3.904e-5
-1.292, 4.019e-5
-1.293, 4.136e-5
-1.294, 4.259e-5
-1.295, 4.381e-5
-1.296, 4.511e-5
-1.297, 4.649e-5
-1.298, 4.787e-5
-1.299, 4.935e-5
-1.300, 5.088e-5
-1.301, 5.243e-5
-1.302, 5.411e-5
-1.303, 5.585e-5
-1.304, 5.765e-5
-1.305, 5.956e-5
-1.306, 6.153e-5
-1.307, 6.360e-5
-1.308, 6.578e-5
-1.309, 6.803e-5
-1.310, 7.041e-5
-1.311, 7.291e-5
-1.312, 7.551e-5
-1.313, 7.820e-5
-1.314, 8.104e-5
-1.315, 8.402e-5
-1.316, 8.716e-5
-1.317, 9.046e-5
-1.318, 9.396e-5
-1.319, 9.770e-5
-1.320, 1.016e-4
-1.321, 1.056e-4
-1.322, 1.099e-4
-1.323, 1.144e-4
-1.324, 1.191e-4
-1.325, 1.241e-4
-1.326, 1.294e-4
-1.327, 1.349e-4
-1.328, 1.408e-4
-1.329, 1.470e-4
-1.330, 1.536e-4
-1.331, 1.604e-4
-1.332, 1.677e-4
-1.333, 1.752e-4
-1.334, 1.833e-4
-1.335, 1.917e-4
-1.336, 2.006e-4
-1.337, 2.098e-4
-1.338, 2.194e-4
-1.339, 2.295e-4
-1.340, 2.401e-4
-1.341, 2.511e-4
-1.342, 2.626e-4
-1.343, 2.745e-4
-1.344, 2.868e-4
-1.345, 2.996e-4
-1.346, 3.129e-4
-1.347, 3.265e-4
-1.348, 3.405e-4
-1.349, 3.550e-4
-1.350, 3.697e-4
-1.351, 3.847e-4
-1.352, 4.000e-4
-1.353, 4.152e-4
-1.354, 4.304e-4
-1.355, 4.457e-4
-1.356, 4.617e-4
-1.357, 4.777e-4
-1.358, 4.934e-4
-1.359, 5.091e-4
-1.360, 5.246e-4
-1.361, 5.400e-4
-1.362, 5.551e-4
-1.363, 5.698e-4
-1.364, 5.843e-4
-1.365, 5.984e-4
-1.366, 6.120e-4
-1.367, 6.247e-4
-1.368, 6.368e-4
-1.369, 6.488e-4
-1.370, 6.600e-4
-1.371, 6.707e-4
-1.372, 6.803e-4
-1.373, 6.893e-4
-1.374, 6.974e-4
-1.375, 7.047e-4
-1.376, 7.108e-4
-1.377, 7.161e-4
-1.378, 7.207e-4
-1.379, 7.243e-4
-1.380, 7.274e-4
-1.381, 7.295e-4
-1.382, 7.305e-4
-1.383, 7.301e-4
-1.384, 7.290e-4
-1.385, 7.279e-4
-1.386, 7.261e-4
-1.387, 7.240e-4
-1.388, 7.216e-4
-1.389, 7.186e-4
-1.390, 7.154e-4
-1.391, 7.119e-4
-1.392, 7.079e-4
-1.393, 7.043e-4
-1.394, 7.017e-4
-1.395, 6.991e-4
-1.396, 6.969e-4
-1.397, 6.944e-4
-1.398, 6.924e-4
-1.399, 6.910e-4
-1.400, 6.750e-4
-1.399, 6.448e-4
-1.398, 6.170e-4
-1.397, 5.912e-4
-1.396, 5.671e-4
-1.395, 5.447e-4
-1.394, 5.236e-4
-1.393, 5.033e-4
-1.392, 4.838e-4
-1.391, 4.655e-4
-1.390, 4.481e-4
-1.389, 4.314e-4
-1.388, 4.156e-4
-1.387, 4.000e-4
-1.386, 3.850e-4
-1.385, 3.706e-4
-1.384, 3.568e-4
-1.383, 3.434e-4
-1.382, 3.304e-4
-1.381, 3.181e-4
-1.380, 3.061e-4
-1.379, 2.948e-4
-1.378, 2.839e-4
-1.377, 2.731e-4
-1.376, 2.630e-4
-1.375, 2.530e-4
-1.374, 2.433e-4
-1.373, 2.341e-4
-1.372, 2.252e-4
-1.371, 2.169e-4
-1.370, 2.089e-4
-1.369, 2.009e-4
-1.368, 1.932e-4
-1.367, 1.857e-4
-1.366, 1.785e-4
-1.365, 1.716e-4
-1.364, 1.650e-4
-1.363, 1.587e-4
-1.362, 1.525e-4
-1.361, 1.466e-4
-1.360, 1.410e-4
-1.359, 1.355e-4
-1.358, 1.302e-4
-1.357, 1.250e-4
-1.356, 1.201e-4
-1.355, 1.155e-4
-1.354, 1.109e-4
-1.353, 1.065e-4
-1.352, 1.022e-4
-1.351, 9.821e-5
-1.350, 9.425e-5
-1.349, 9.053e-5
-1.348, 8.703e-5
-1.347, 8.347e-5
-1.346, 8.018e-5
-1.345, 7.685e-5
-1.344, 7.359e-5
-1.343, 7.054e-5
-1.342, 6.746e-5
-1.341, 6.478e-5
-1.340, 6.218e-5
-1.339, 5.970e-5
-1.338, 5.722e-5
-1.337, 5.466e-5
-1.336, 5.230e-5
-1.335, 4.998e-5
-1.334, 4.772e-5
-1.333, 4.563e-5
-1.332, 4.355e-5
-1.331, 4.164e-5
-1.330, 3.976e-5
-1.329, 3.793e-5
-1.328, 3.628e-5
-1.327, 3.453e-5
-1.326, 3.299e-5
-1.325, 3.148e-5
-1.324, 2.989e-5
-1.323, 2.846e-5
-1.322, 2.707e-5
-1.321, 2.582e-5
-1.320, 2.466e-5
-1.319, 2.346e-5
-1.318, 2.222e-5
-1.317, 2.101e-5
-1.316, 1.992e-5
-1.315, 1.882e-5
-1.314, 1.785e-5
-1.313, 1.693e-5
-1.312, 1.601e-5
-1.311, 1.530e-5
-1.310, 1.449e-5
-1.309, 1.368e-5
-1.308, 1.294e-5
-1.307, 1.203e-5
-1.306, 1.135e-5
-1.305, 1.069e-5
-1.304, 1.009e-5
-1.303, 9.593e-6
-1.302, 8.973e-6
-1.301, 8.442e-6
-1.300, 7.963e-6
-1.299, 7.386e-6
-1.298, 6.938e-6
-1.297, 6.358e-6
-1.296, 6.038e-6
-1.295, 5.721e-6
-1.294, 5.223e-6
-1.293, 4.962e-6
-1.292, 4.485e-6
-1.291, 4.166e-6
-1.290, 3.905e-6
-1.289, 3.547e-6
-1.288, 3.247e-6
-1.287, 2.901e-6
-1.286, 2.696e-6
-1.285, 2.538e-6
-1.284, 2.307e-6
-1.283, 2.125e-6
-1.282, 1.867e-6
-1.281, 1.678e-6
-1.280, 1.481e-6
-1.279, 1.262e-6
-1.278, 1.105e-6
-1.277, 8.532e-7
-1.276, 8.157e-7
-1.275, 6.490e-7
-1.274, 5.474e-7
-1.273, 4.645e-7
-1.272, 2.731e-7
-1.271, 1.892e-7
-1.270, 9.353e-8
-1.269, -5.446e-8
-1.268, -1.235e-7
-1.267, -3.159e-7
-1.266, -3.208e-7
-1.265, -3.781e-7
-1.264, -4.886e-7
-1.263, -5.517e-7
-1.262, -6.770e-7
-1.261, -7.372e-7
-1.260, -7.540e-7
-1.259, -8.201e-7
-1.258, -8.447e-7
-1.257, -9.907e-7
-1.256, -9.868e-7
-1.255, -1.040e-6
-1.254, -1.129e-6
-1.253, -1.182e-6
-1.252, -1.241e-6
-1.251, -1.232e-6
-1.250, -1.281e-6
-1.249, -1.317e-6
-1.248, -1.378e-6
-1.247, -1.465e-6
-1.246, -1.521e-6
-1.245, -1.472e-6
-1.244, -1.518e-6
-1.243, -1.528e-6
-1.242, -1.609e-6
-1.241, -1.600e-6
-1.240, -1.597e-6
-1.239, -1.670e-6
-1.238, -1.760e-6
-1.237, -1.806e-6
-1.236, -1.776e-6
-1.235, -1.824e-6
-1.234, -1.815e-6
-1.233, -1.892e-6
-1.232, -1.934e-6
-1.231, -1.926e-6
-1.230, -1.921e-6
-1.229, -1.976e-6
-1.228, -1.959e-6
-1.227, -2.098e-6
-1.226, -2.086e-6
-1.225, -2.149e-6
-1.224, -2.177e-6
-1.223, -2.144e-6
-1.222, -2.246e-6
-1.221, -2.200e-6
-1.220, -2.168e-6
-1.219, -2.227e-6
-1.218, -2.156e-6
-1.217, -2.225e-6
-1.216, -2.218e-6
-1.215, -2.130e-6
-1.214, -2.239e-6
-1.213, -2.229e-6
-1.212, -2.375e-6
-1.211, -2.394e-6
-1.210, -2.386e-6
-1.209, -2.374e-6
-1.208, -2.332e-6
-1.207, -2.340e-6
-1.206, -2.383e-6
-1.205, -2.282e-6
-1.204, -2.348e-6
-1.203, -2.410e-6
-1.202, -2.471e-6
-1.201, -2.491e-6
-1.200, -2.516e-6
-1.199, -2.533e-6
-1.198, -2.584e-6
-1.197, -2.583e-6
-1.196, -2.515e-6
-1.195, -2.480e-6
-1.194, -2.456e-6
-1.193, -2.403e-6
-1.192, -2.505e-6
-1.191, -2.477e-6
-1.190, -2.575e-6
-1.189, -2.622e-6
-1.188, -2.657e-6
-1.187, -2.731e-6
-1.186, -2.691e-6
-1.185, -2.648e-6
-1.184, -2.655e-6
-1.183, -2.629e-6
-1.182, -2.683e-6
-1.181, -2.631e-6
-1.180, -2.595e-6
-1.179, -2.593e-6
-1.178, -2.602e-6
-1.177, -2.700e-6
-1.176, -2.640e-6
-1.175, -2.667e-6
-1.174, -2.712e-6
-1.173, -2.672e-6
-1.172, -2.753e-6
-1.171, -2.742e-6
-1.170, -2.672e-6
-1.169, -2.765e-6
-1.168, -2.785e-6
-1.167, -2.859e-6
-1.166, -2.844e-6
-1.165, -2.807e-6
-1.164, -2.842e-6
-1.163, -2.842e-6
-1.162, -2.908e-6
-1.161, -2.954e-6
-1.160, -2.927e-6
-1.159, -2.969e-6
-1.158, -3.017e-6
-1.157, -3.050e-6
-1.156, -2.997e-6
-1.155, -2.991e-6
-1.154, -3.042e-6
-1.153, -3.061e-6
-1.152, -3.238e-6
-1.151, -3.232e-6
-1.150, -3.259e-6
-1.149, -3.265e-6
-1.148, -3.259e-6
-1.147, -3.307e-6
-1.146, -3.299e-6
-1.145, -3.346e-6
-1.144, -3.452e-6
-1.143, -3.495e-6
-1.142, -3.667e-6
-1.141, -3.662e-6
-1.140, -3.652e-6
-1.139, -3.678e-6
-1.138, -3.707e-6
-1.137, -3.844e-6
-1.136, -3.861e-6
-1.135, -3.857e-6
-1.134, -3.930e-6
-1.133, -3.989e-6
-1.132, -4.096e-6
-1.131, -4.172e-6
-1.130, -4.230e-6
-1.129, -4.307e-6
-1.128, -4.256e-6
-1.127, -4.332e-6
-1.126, -4.447e-6
-1.125, -4.459e-6
-1.124, -4.573e-6
-1.123, -4.679e-6
-1.122, -4.752e-6
-1.121, -4.786e-6
-1.120, -4.801e-6
-1.119, -4.875e-6
-1.118, -4.945e-6
-1.117, -5.080e-6
-1.116, -5.173e-6
-1.115, -5.241e-6
-1.114, -5.351e-6
-1.113, -5.443e-6
-1.112, -5.520e-6
-1.111, -5.586e-6
-1.110, -5.601e-6
-1.109, -5.662e-6
-1.108, -5.709e-6
-1.107, -5.874e-6
-1.106, -6.004e-6
-1.105, -6.069e-6
-1.104, -6.206e-6
-1.103, -6.347e-6
-1.102, -6.391e-6
-1.101, -6.339e-6
-1.100, -6.329e-6
-1.099, -6.360e-6
-1.098, -6.399e-6
-1.097, -6.604e-6
-1.096, -6.748e-6
-1.095, -6.809e-6
-1.094, -6.980e-6
-1.093, -6.949e-6
-1.092, -7.049e-6
-1.091, -7.070e-6
-1.090, -7.078e-6
-1.089, -7.179e-6
-1.088, -7.306e-6
-1.087, -7.449e-6
-1.086, -7.482e-6
-1.085, -7.449e-6
-1.084, -7.441e-6
-1.083, -7.475e-6
-1.082, -7.538e-6
-1.081, -7.602e-6
-1.080, -7.625e-6
-1.079, -7.766e-6
-1.078, -7.897e-6
-1.077, -7.987e-6
-1.076, -7.972e-6
-1.075, -7.951e-6
-1.074, -7.887e-6
-1.073, -7.909e-6
-1.072, -8.008e-6
-1.071, -8.090e-6
-1.070, -8.277e-6
-1.069, -8.348e-6
-1.068, -8.411e-6
-1.067, -8.379e-6
-1.066, -8.260e-6
-1.065, -8.162e-6
-1.064, -8.048e-6
-1.063, -7.989e-6
-1.062, -7.960e-6
-1.061, -7.881e-6
-1.060, -7.888e-6
-1.059, -7.944e-6
-1.058, -7.999e-6
-1.057, -8.092e-6
-1.056, -8.062e-6
-1.055, -7.977e-6
-1.054, -7.936e-6
-1.053, -7.749e-6
-1.052, -7.609e-6
-1.051, -7.479e-6
-1.050, -7.300e-6
-1.049, -7.166e-6
-1.048, -7.008e-6
-1.047, -6.982e-6
-1.046, -6.862e-6
-1.045, -6.815e-6
-1.044, -6.684e-6
-1.043, -6.655e-6
-1.042, -6.509e-6
-1.041, -6.314e-6
-1.040, -6.165e-6
-1.039, -6.009e-6
-1.038, -5.925e-6
-1.037, -5.784e-6
-1.036, -5.650e-6
-1.035, -5.504e-6
-1.034, -5.352e-6
-1.033, -5.271e-6
-1.032, -5.237e-6
-1.031, -5.179e-6
-1.030, -5.061e-6
-1.029, -4.898e-6
-1.028, -4.762e-6
-1.027, -4.695e-6
-1.026, -4.476e-6
-1.025, -4.454e-6
-1.024, -4.341e-6
-1.023, -4.270e-6
-1.022, -4.246e-6
-1.021, -4.112e-6
-1.020, -4.068e-6
-1.019, -3.919e-6
-1.018, -3.823e-6
-1.017, -3.805e-6
-1.016, -3.654e-6
-1.015, -3.602e-6
-1.014, -3.545e-6
-1.013, -3.508e-6
-1.012, -3.471e-6
-1.011, -3.470e-6
-1.010, -3.370e-6
-1.009, -3.281e-6
-1.008, -3.200e-6
-1.007, -3.173e-6
-1.006, -3.110e-6
-1.005, -3.077e-6
-1.004, -3.038e-6
-1.003, -3.106e-6
-1.002, -3.003e-6
-1.001, -2.984e-6
-1.000, -8.053e-7
-1.001, -1.847e-7
-1.002, -3.769e-8
-1.003, 7.478e-8
-1.004, 1.961e-7
-1.005, 3.185e-7
-1.006, 4.763e-7
-1.007, 5.365e-7
-1.008, 5.819e-7
-1.009, 6.411e-7
-1.010, 7.289e-7
-1.011, 8.187e-7
-1.012, 8.611e-7
-1.013, 9.124e-7
-1.014, 9.035e-7
-1.015, 1.032e-6
-1.016, 1.118e-6
-1.017, 1.120e-6
-1.018, 1.206e-6
-1.019, 1.241e-6
-1.020, 1.246e-6
-1.021, 1.365e-6
-1.022, 1.323e-6
-1.023, 1.410e-6
-1.024, 1.464e-6
-1.025, 1.489e-6
-1.026, 1.549e-6
-1.027, 1.572e-6
-1.028, 1.606e-6
-1.029, 1.644e-6
-1.030, 1.698e-6
-1.031, 1.732e-6
-1.032, 1.760e-6
-1.033, 1.758e-6
-1.034, 1.833e-6
-1.035, 1.860e-6
-1.036, 1.923e-6
-1.037, 1.960e-6
-1.038, 2.017e-6
-1.039, 2.000e-6
-1.040, 2.072e-6
-1.041, 2.073e-6
-1.042, 2.115e-6
-1.043, 2.166e-6
-1.044, 2.199e-6
-1.045, 2.260e-6
-1.046, 2.286e-6
-1.047, 2.339e-6
-1.048, 2.368e-6
-1.049, 2.374e-6
-1.050, 2.423e-6
-1.051, 2.492e-6
-1.052, 2.506e-6
-1.053, 2.585e-6
-1.054, 2.604e-6
-1.055, 2.641e-6
-1.056, 2.679e-6
-1.057, 2.715e-6
-1.058, 2.796e-6
-1.059, 2.827e-6
-1.060, 2.852e-6
-1.061, 2.911e-6
-1.062, 2.942e-6
-1.063, 3.017e-6
-1.064, 3.039e-6
-1.065, 3.066e-6
-1.066, 3.131e-6
-1.067, 3.213e-6
-1.068, 3.215e-6
-1.069, 3.333e-6
-1.070, 3.343e-6
-1.071, 3.361e-6
-1.072, 3.451e-6
-1.073, 3.466e-6
-1.074, 3.524e-6
-1.075, 3.636e-6
-1.076, 3.623e-6
-1.077, 3.691e-6
-1.078, 3.762e-6
-1.079, 3.807e-6
-1.080, 3.868e-6
-1.081, 3.908e-6
-1.082, 3.943e-6
-1.083, 3.983e-6
-1.084, 4.032e-6
-1.085, 4.144e-6
-1.086, 4.139e-6
-1.087, 4.256e-6
-1.088, 4.288e-6
-1.089, 4.260e-6
-1.090, 4.397e-6
-1.091, 4.413e-6
-1.092, 4.470e-6
-1.093, 4.547e-6
-1.094, 4.543e-6
-1.095, 4.710e-6
-1.096, 4.692e-6
-1.097, 4.750e-6
-1.098, 4.804e-6
-1.099, 4.806e-6
-1.100, 4.956e-6
-1.101, 5.004e-6
-1.102, 5.053e-6
-1.103, 5.079e-6
-1.104, 5.099e-6
-1.105, 5.200e-6
-1.106, 5.266e-6
-1.107, 5.282e-6
-1.108, 5.280e-6
-1.109, 5.369e-6
-1.110, 5.448e-6
-1.111, 5.486e-6
-1.112, 5.570e-6
-1.113, 5.615e-6
-1.114, 5.643e-6
-1.115, 5.751e-6
-1.116, 5.698e-6
-1.117, 5.781e-6
-1.118, 5.836e-6
-1.119, 5.844e-6
-1.120, 6.005e-6
-1.121, 6.001e-6
-1.122, 6.058e-6
-1.123, 6.076e-6
-1.124, 6.063e-6
-1.125, 6.238e-6
-1.126, 6.219e-6
-1.127, 6.315e-6
-1.128, 6.330e-6
-1.129, 6.424e-6
-1.130, 6.499e-6
-1.131, 6.480e-6
-1.132, 6.541e-6
-1.133, 6.557e-6
-1.134, 6.584e-6
-1.135, 6.723e-6
-1.136, 6.701e-6
-1.137, 6.742e-6
-1.138, 6.808e-6
-1.139, 6.798e-6
-1.140, 6.900e-6
-1.141, 6.925e-6
-1.142, 6.967e-6
-1.143, 7.004e-6
-1.144, 6.990e-6
-1.145, 7.150e-6
-1.146, 7.125e-6
-1.147, 7.175e-6
-1.148, 7.161e-6
-1.149, 7.142e-6
-1.150, 7.258e-6
-1.151, 7.251e-6
-1.152, 7.296e-6
-1.153, 7.314e-6
-1.154, 7.316e-6
-1.155, 7.423e-6
-1.156, 7.383e-6
-1.157, 7.427e-6
-1.158, 7.478e-6
-1.159, 7.431e-6
-1.160, 7.612e-6
-1.161, 7.517e-6
-1.162, 7.600e-6
-1.163, 7.564e-6
-1.164, 7.526e-6
-1.165, 7.651e-6
-1.166, 7.574e-6
-1.167, 7.691e-6
-1.168, 7.619e-6
-1.169, 7.631e-6
-1.170, 7.742e-6
-1.171, 7.687e-6
-1.172, 7.692e-6
-1.173, 7.709e-6
-1.174, 7.669e-6
-1.175, 7.793e-6
-1.176, 7.730e-6
-1.177, 7.796e-6
-1.178, 7.764e-6
-1.179, 7.665e-6
-1.180, 7.772e-6
-1.181, 7.760e-6
-1.182, 7.761e-6
-1.183, 7.750e-6
-1.184, 7.699e-6
-1.185, 7.814e-6
-1.186, 7.742e-6
-1.187, 7.761e-6
-1.188, 7.738e-6
-1.189, 7.709e-6
-1.190, 7.815e-6
-1.191, 7.760e-6
-1.192, 7.721e-6
-1.193, 7.705e-6
-1.194, 7.718e-6
-1.195, 7.802e-6
-1.196, 7.679e-6
-1.197, 7.752e-6
-1.198, 7.685e-6
-1.199, 7.711e-6
-1.200, 7.769e-6
-1.201, 7.723e-6
-1.202, 7.747e-6
-1.203, 7.664e-6
-1.204, 7.661e-6
-1.205, 7.714e-6
-1.206, 7.730e-6
-1.207, 7.726e-6
-1.208, 7.695e-6
-1.209, 7.687e-6
-1.210, 7.762e-6
-1.211, 7.730e-6
-1.212, 7.731e-6
-1.213, 7.746e-6
-1.214, 7.739e-6
-1.215, 7.839e-6
-1.216, 7.801e-6
-1.217, 7.807e-6
-1.218, 7.810e-6
-1.219, 7.831e-6
-1.220, 7.920e-6
-1.221, 7.898e-6
-1.222, 7.943e-6
-1.223, 7.922e-6
-1.224, 7.937e-6
-1.225, 8.044e-6
-1.226, 8.034e-6
-1.227, 8.057e-6
-1.228, 8.077e-6
-1.229, 8.115e-6
-1.230, 8.235e-6
-1.231, 8.200e-6
-1.232, 8.253e-6
-1.233, 8.241e-6
-1.234, 8.319e-6
-1.235, 8.375e-6
-1.236, 8.391e-6
-1.237, 8.432e-6
-1.238, 8.415e-6
-1.239, 8.500e-6
-1.240, 8.605e-6
-1.241, 8.672e-6
-1.242, 8.740e-6
-1.243, 8.745e-6
-1.244, 8.763e-6
-1.245, 8.915e-6
-1.246, 8.930e-6
-1.247, 8.960e-6
-1.248, 9.001e-6
-1.249, 9.115e-6
-1.250, 9.265e-6
-1.251, 9.343e-6
-1.252, 9.382e-6
-1.253, 9.481e-6
-1.254, 9.548e-6
-1.255, 9.773e-6
-1.256, 9.823e-6
-1.257, 9.890e-6
-1.258, 9.947e-6
-1.259, 1.012e-5
-1.260, 1.029e-5
-1.261, 1.041e-5
-1.262, 1.054e-5
-1.263, 1.067e-5
-1.264, 1.081e-5
-1.265, 1.101e-5
-1.266, 1.117e-5
-1.267, 1.133e-5
-1.268, 1.149e-5
-1.269, 1.170e-5
-1.270, 1.196e-5
-1.271, 1.219e-5
-1.272, 1.243e-5
-1.273, 1.259e-5
-1.274, 1.290e-5
-1.275, 1.319e-5
-1.276, 1.347e-5
-1.277, 1.373e-5
-1.278, 1.401e-5
-1.279, 1.434e-5
-1.280, 1.474e-5
-1.281, 1.511e-5
-1.282, 1.544e-5
-1.283, 1.580e-5
-1.284, 1.624e-5
-1.285, 1.672e-5
-1.286, 1.720e-5
-1.287, 1.766e-5
-1.288, 1.811e-5
-1.289, 1.865e-5
-1.290, 1.927e-5
-1.291, 1.988e-5
-1.292, 2.044e-5
-1.293, 2.102e-5
-1.294, 2.166e-5
-1.295, 2.239e-5
-1.296, 2.315e-5
-1.297, 2.383e-5
-1.298, 2.461e-5
-1.299, 2.539e-5
-1.300, 2.622e-5
-1.301, 2.716e-5
-1.302, 2.799e-5
-1.303, 2.888e-5
-1.304, 2.984e-5
-1.305, 3.086e-5
-1.306, 3.196e-5
-1.307, 3.298e-5
-1.308, 3.401e-5
-1.309, 3.513e-5
-1.310, 3.626e-5
-1.311, 3.751e-5
-1.312, 3.865e-5
-1.313, 3.986e-5
-1.314, 4.110e-5
-1.315, 4.237e-5
-1.316, 4.377e-5
-1.317, 4.505e-5
-1.318, 4.639e-5
-1.319, 4.783e-5
-1.320, 4.919e-5
-1.321, 5.063e-5
-1.322, 5.205e-5
-1.323, 5.331e-5
-1.324, 5.474e-5
-1.325, 5.619e-5
-1.326, 5.775e-5
-1.327, 5.923e-5
-1.328, 6.058e-5
-1.329, 6.198e-5
-1.330, 6.342e-5
-1.331, 6.486e-5
-1.332, 6.616e-5
-1.333, 6.753e-5
-1.334, 6.894e-5
-1.335, 7.031e-5
-1.336, 7.168e-5
-1.337, 7.296e-5
-1.338, 7.423e-5
-1.339, 7.550e-5
-1.340, 7.681e-5
-1.341, 7.805e-5
-1.342, 7.924e-5
-1.343, 8.032e-5
-1.344, 8.141e-5
-1.345, 8.248e-5
-1.346, 8.356e-5
-1.347, 8.449e-5
-1.348, 8.546e-5
-1.349, 8.644e-5
-1.350, 8.729e-5
-1.351, 8.817e-5
-1.352, 8.883e-5
-1.353, 8.949e-5
-1.354, 9.022e-5
-1.355, 9.075e-5
-1.356, 9.127e-5
-1.357, 9.171e-5
-1.358, 9.203e-5
-1.359, 9.239e-5
-1.360, 9.269e-5
-1.361, 9.297e-5
-1.362, 9.309e-5
-1.363, 9.306e-5
-1.364, 9.304e-5
-1.365, 9.288e-5
-1.366, 9.273e-5
-1.367, 9.255e-5
-1.368, 9.225e-5
-1.369, 9.190e-5
-1.370, 9.153e-5
-1.371, 9.107e-5
-1.372, 9.053e-5
-1.373, 8.992e-5
-1.374, 8.929e-5
-1.375, 8.852e-5
-1.376, 8.787e-5
-1.377, 8.710e-5
-1.378, 8.625e-5
-1.379, 8.542e-5
-1.380, 8.457e-5
-1.381, 8.369e-5
-1.382, 8.275e-5
-1.383, 8.167e-5
-1.384, 8.054e-5
-1.385, 7.940e-5
-1.386, 7.835e-5
-1.387, 7.716e-5
-1.388, 7.601e-5
-1.389, 7.487e-5
-1.390, 7.360e-5
-1.391, 7.244e-5
-1.392, 7.107e-5
-1.393, 6.971e-5
-1.394, 6.845e-5
-1.395, 6.718e-5
-1.396, 6.600e-5
-1.397, 6.476e-5
-1.398, 6.349e-5
-1.399, 6.231e-5
-1.400, 5.732e-5
-1.399, 5.319e-5
-1.398, 4.976e-5
-1.397, 4.671e-5
-1.396, 4.403e-5
-1.395, 4.148e-5
-1.394, 3.920e-5
-1.393, 3.698e-5
-1.392, 3.490e-5
-1.391, 3.300e-5
-1.390, 3.118e-5
-1.389, 2.965e-5
-1.388, 2.803e-5
-1.387, 2.656e-5
-1.386, 2.528e-5
-1.385, 2.391e-5
-1.384, 2.276e-5
-1.383, 2.165e-5
-1.382, 2.050e-5
-1.381, 1.955e-5
-1.380, 1.857e-5
-1.379, 1.777e-5
-1.378, 1.692e-5
-1.377, 1.609e-5
-1.376, 1.541e-5
-1.375, 1.473e-5
-1.374, 1.408e-5
-1.373, 1.348e-5
-1.372, 1.290e-5
-1.371, 1.234e-5
-1.370, 1.186e-5
-1.369, 1.137e-5
-1.368, 1.087e-5
-1.367, 1.034e-5
-1.366, 9.853e-6
-1.365, 9.415e-6
-1.364, 9.150e-6
-1.363, 8.773e-6
-1.362, 8.366e-6
-1.361, 8.079e-6
-1.360, 7.707e-6
-1.359, 7.421e-6
-1.358, 7.108e-6
-1.357, 6.750e-6
-1.356, 6.499e-6
-1.355, 6.172e-6
-1.354, 6.013e-6
-1.353, 5.766e-6
-1.352, 5.510e-6
-1.351, 5.276e-6
-1.350, 5.043e-6
-1.349, 4.898e-6
-1.348, 4.690e-6
-1.347, 4.399e-6
-1.346, 4.224e-6
-1.345, 4.024e-6
-1.344, 3.891e-6
-1.343, 3.753e-6
-1.342, 3.539e-6
-1.341, 3.462e-6
-1.340, 3.311e-6
-1.339, 3.176e-6
-1.338, 3.031e-6
-1.337, 2.844e-6
-1.336, 2.712e-6
-1.335, 2.535e-6
-1.334, 2.503e-6
-1.333, 2.409e-6
-1.332, 2.300e-6
-1.331, 2.157e-6
-1.330, 2.073e-6
-1.329, 1.963e-6
-1.328, 1.887e-6
-1.327, 1.760e-6
-1.326, 1.645e-6
-1.325, 1.587e-6
-1.324, 1.589e-6
-1.323, 1.413e-6
-1.322, 1.306e-6
-1.321, 1.225e-6
-1.320, 1.244e-6
-1.319, 1.219e-6
-1.318, 1.052e-6
-1.317, 1.005e-6
-1.316, 9.479e-7
-1.315, 8.473e-7
-1.314, 8.276e-7
-1.313, 7.526e-7
-1.312, 7.102e-7
-1.311, 6.214e-7
-1.310, 5.602e-7
-1.309, 5.740e-7
-1.308, 4.694e-7
-1.307, 4.122e-7
-1.306, 3.915e-7
-1.305, 3.066e-7
-1.304, 3.204e-7
-1.303, 2.760e-7
-1.302, 1.665e-7
-1.301, 8.268e-8
-1.300, 1.231e-7
-1.299, 8.761e-8
-1.298, 1.014e-7
-1.297, 7.695e-9
-1.296, -1.894e-8
-1.295, -1.796e-8
-1.294, -7.814e-8
-1.293, -1.196e-7
-1.292, -1.798e-7
-1.291, -2.468e-7
-1.290, -1.807e-7
-1.289, -2.695e-7
-1.288, -2.725e-7
-1.287, -2.903e-7
-1.286, -3.682e-7
-1.285, -3.435e-7
-1.284, -3.840e-7
-1.283, -4.747e-7
-1.282, -4.215e-7
-1.281, -5.369e-7
-1.280, -5.172e-7
-1.279, -5.004e-7
-1.278, -5.487e-7
-1.277, -5.468e-7
-1.276, -6.218e-7
-1.275, -6.060e-7
-1.274, -5.852e-7
-1.273, -6.247e-7
-1.272, -6.494e-7
-1.271, -7.392e-7
-1.270, -7.313e-7
-1.269, -7.027e-7
-1.268, -7.332e-7
-1.267, -7.806e-7
-1.266, -8.536e-7
-1.265, -7.697e-7
-1.264, -7.648e-7
-1.263, -7.895e-7
-1.262, -8.427e-7
-1.261, -9.059e-7
-1.260, -8.694e-7
-1.259, -8.723e-7
-1.258, -8.585e-7
-1.257, -9.118e-7
-1.256, -9.927e-7
-1.255, -9.335e-7
-1.254, -9.868e-7
-1.253, -9.976e-7
-1.252, -9.907e-7
-1.251, -1.069e-6
-1.250, -9.917e-7
-1.249, -1.017e-6
-1.248, -1.033e-6
-1.247, -1.037e-6
-1.246, -1.196e-6
-1.245, -1.125e-6
-1.244, -1.139e-6
-1.243, -1.165e-6
-1.242, -1.140e-6
-1.241, -1.206e-6
-1.240, -1.166e-6
-1.239, -1.180e-6
-1.238, -1.211e-6
-1.237, -1.229e-6
-1.236, -1.281e-6
-1.235, -1.235e-6
-1.234, -1.256e-6
-1.233, -1.263e-6
-1.232, -1.310e-6
-1.231, -1.368e-6
-1.230, -1.286e-6
-1.229, -1.304e-6
-1.228, -1.319e-6
-1.227, -1.389e-6
-1.226, -1.434e-6
-1.225, -1.382e-6
-1.224, -1.434e-6
-1.223, -1.411e-6
-1.222, -1.470e-6
-1.221, -1.495e-6
-1.220, -1.488e-6
-1.219, -1.539e-6
-1.218, -1.492e-6
-1.217, -1.488e-6
-1.216, -1.543e-6
-1.215, -1.529e-6
-1.214, -1.617e-6
-1.213, -1.562e-6
-1.212, -1.625e-6
-1.211, -1.652e-6
-1.210, -1.598e-6
-1.209, -1.647e-6
-1.208, -1.632e-6
-1.207, -1.672e-6
-1.206, -1.738e-6
-1.205, -1.638e-6
-1.204, -1.739e-6
-1.203, -1.770e-6
-1.202, -1.791e-6
-1.201, -1.788e-6
-1.200, -1.752e-6
-1.199, -1.829e-6
-1.198, -1.827e-6
-1.197, -1.826e-6
-1.196, -1.847e-6
-1.195, -1.869e-6
-1.194, -1.846e-6
-1.193, -1.851e-6
-1.192, -1.860e-6
-1.191, -1.821e-6
-1.190, -1.894e-6
-1.189, -1.926e-6
-1.188, -1.892e-6
-1.187, -2.017e-6
-1.186, -1.989e-6
-1.185, -1.979e-6
-1.184, -1.993e-6
-1.183, -1.920e-6
-1.182, -2.015e-6
-1.181, -1.984e-6
-1.180, -1.993e-6
-1.179, -2.006e-6
-1.178, -2.019e-6
-1.177, -2.076e-6
-1.176, -2.029e-6
-1.175, -2.047e-6
-1.174, -2.041e-6
-1.173, -1.967e-6
-1.172, -2.085e-6
-1.171, -2.116e-6
-1.170, -2.101e-6
-1.169, -2.121e-6
-1.168, -2.103e-6
-1.167, -2.144e-6
-1.166, -2.137e-6
-1.165, -2.135e-6
-1.164, -2.103e-6
-1.163, -2.096e-6
-1.162, -2.230e-6
-1.161, -2.158e-6
-1.160, -2.235e-6
-1.159, -2.190e-6
-1.158, -2.179e-6
-1.157, -2.258e-6
-1.156, -2.212e-6
-1.155, -2.182e-6
-1.154, -2.187e-6
-1.153, -2.184e-6
-1.152, -2.256e-6
-1.151, -2.240e-6
-1.150, -2.273e-6
-1.149, -2.274e-6
-1.148, -2.221e-6
-1.147, -2.337e-6
-1.146, -2.239e-6
-1.145, -2.283e-6
-1.144, -2.259e-6
-1.143, -2.170e-6
-1.142, -2.323e-6
-1.141, -2.297e-6
-1.140, -2.296e-6
-1.139, -2.288e-6
-1.138, -2.260e-6
-1.137, -2.398e-6
-1.136, -2.285e-6
-1.135, -2.242e-6
-1.134, -2.267e-6
-1.133, -2.232e-6
-1.132, -2.366e-6
-1.131, -2.303e-6
-1.130, -2.366e-6
-1.129, -2.310e-6
-1.128, -2.256e-6
-1.127, -2.329e-6
-1.126, -2.295e-6
-1.125, -2.264e-6
-1.124, -2.287e-6
-1.123, -2.300e-6
-1.122, -2.372e-6
-1.121, -2.334e-6
-1.120, -2.298e-6
-1.119, -2.247e-6
-1.118, -2.259e-6
-1.117, -2.310e-6
-1.116, -2.247e-6
-1.115, -2.284e-6
-1.114, -2.260e-6
-1.113, -2.291e-6
-1.112, -2.355e-6
-1.111, -2.312e-6
-1.110, -2.249e-6
-1.109, -2.230e-6
-1.108, -2.232e-6
-1.107, -2.307e-6
-1.106, -2.257e-6
-1.105, -2.260e-6
-1.104, -2.211e-6
-1.103, -2.235e-6
-1.102, -2.247e-6
-1.101, -2.223e-6
-1.100, -2.204e-6
-1.099, -2.180e-6
-1.098, -2.193e-6
-1.097, -2.215e-6
-1.096, -2.208e-6
-1.095, -2.230e-6
-1.094, -2.119e-6
-1.093, -2.181e-6
-1.092, -2.190e-6
-1.091, -2.196e-6
-1.090, -2.159e-6
-1.089, -2.162e-6
-1.088, -2.129e-6
-1.087, -2.113e-6
-1.086, -2.161e-6
-1.085, -2.104e-6
-1.084, -2.071e-6
-1.083, -2.100e-6
-1.082, -2.083e-6
-1.081, -2.167e-6
-1.080, -2.095e-6
-1.079, -2.043e-6
-1.078, -2.056e-6
-1.077, -2.033e-6
-1.076, -2.063e-6
-1.075, -2.054e-6
-1.074, -2.016e-6
-1.073, -2.041e-6
-1.072, -2.061e-6
-1.071, -2.128e-6
-1.070, -2.037e-6
-1.069, -1.999e-6
-1.068, -1.972e-6
-1.067, -2.017e-6
-1.066, -2.058e-6
-1.065, -2.002e-6
-1.064, -1.982e-6
-1.063, -1.992e-6
-1.062, -2.037e-6
-1.061, -2.051e-6
-1.060, -2.041e-6
-1.059, -1.966e-6
-1.058, -2.019e-6
-1.057, -1.983e-6
-1.056, -2.021e-6
-1.055, -2.020e-6
-1.054, -1.976e-6
-1.053, -2.006e-6
-1.052, -1.963e-6
-1.051, -2.090e-6
-1.050, -1.992e-6
-1.049, -2.028e-6
-1.048, -1.999e-6
-1.047, -2.004e-6
-1.046, -2.050e-6
-1.045, -1.990e-6
-1.044, -1.970e-6
-1.043, -2.048e-6
-1.042, -2.010e-6
-1.041, -2.084e-6
-1.040, -2.023e-6
-1.039, -2.014e-6
-1.038, -2.029e-6
-1.037, -2.014e-6
-1.036, -2.079e-6
-1.035, -2.044e-6
-1.034, -2.052e-6
-1.033, -2.043e-6
-1.032, -2.023e-6
-1.031, -2.107e-6
-1.030, -2.055e-6
-1.029, -2.037e-6
-1.028, -2.053e-6
-1.027, -2.078e-6
-1.026, -2.141e-6
-1.025, -2.138e-6
-1.024, -2.047e-6
-1.023, -2.085e-6
-1.022, -2.146e-6
-1.021, -2.129e-6
-1.020, -2.155e-6
-1.019, -2.123e-6
-1.018, -2.145e-6
-1.017, -2.156e-6
-1.016, -2.168e-6
-1.015, -2.172e-6
-1.014, -2.170e-6
-1.013, -2.207e-6
-1.012, -2.146e-6
-1.011, -2.260e-6
-1.010, -2.260e-6
-1.009, -2.210e-6
-1.008, -2.234e-6
-1.007, -2.223e-6
-1.006, -2.299e-6
-1.005, -2.294e-6
-1.004, -2.250e-6
-1.003, -2.294e-6
-1.002, -2.306e-6
-1.001, -2.323e-6
-1.000, 1.064e-7
-1.001, 6.993e-7
-1.002, 8.394e-7
-1.003, 9.706e-7
-1.004, 9.716e-7
-1.005, 1.052e-6
-1.006, 1.126e-6
-1.007, 1.197e-6
-1.008, 1.210e-6
-1.009, 1.258e-6
-1.010, 1.292e-6
-1.011, 1.339e-6
-1.012, 1.400e-6
-1.013, 1.378e-6
-1.014, 1.388e-6
-1.015, 1.444e-6
-1.016, 1.471e-6
-1.017, 1.464e-6
-1.018, 1.522e-6
-1.019, 1.506e-6
-1.020, 1.522e-6
-1.021, 1.548e-6
-1.022, 1.614e-6
-1.023, 1.612e-6
-1.024, 1.579e-6
-1.025, 1.651e-6
-1.026, 1.654e-6
-1.027, 1.681e-6
-1.028, 1.657e-6
-1.029, 1.672e-6
-1.030, 1.718e-6
-1.031, 1.722e-6
-1.032, 1.729e-6
-1.033, 1.751e-6
-1.034, 1.760e-6
-1.035, 1.753e-6
-1.036, 1.747e-6
-1.037, 1.841e-6
-1.038, 1.808e-6
-1.039, 1.797e-6
-1.040, 1.826e-6
-1.041, 1.840e-6
-1.042, 1.882e-6
-1.043, 1.825e-6
-1.044, 1.873e-6
-1.045, 1.884e-6
-1.046, 1.877e-6
-1.047, 1.951e-6
-1.048, 1.899e-6
-1.049, 1.912e-6
-1.050, 1.938e-6
-1.051, 1.899e-6
-1.052, 1.987e-6
-1.053, 1.988e-6
-1.054, 1.908e-6
-1.055, 1.987e-6
-1.056, 1.991e-6
-1.057, 2.026e-6
-1.058, 2.020e-6
-1.059, 2.023e-6
-1.060, 2.005e-6
-1.061, 2.031e-6
-1.062, 2.085e-6
-1.063, 2.017e-6
-1.064, 2.047e-6
-1.065, 2.080e-6
-1.066, 2.097e-6
-1.067, 2.105e-6
-1.068, 2.103e-6
-1.069, 2.131e-6
-1.070, 2.073e-6
-1.071, 2.153e-6
-1.072, 2.180e-6
-1.073, 2.144e-6
-1.074, 2.175e-6
-1.075, 2.154e-6
-1.076, 2.180e-6
-1.077, 2.203e-6
-1.078, 2.186e-6
-1.079, 2.231e-6
-1.080, 2.221e-6
-1.081, 2.251e-6
-1.082, 2.276e-6
-1.083, 2.251e-6
-1.084, 2.262e-6
-1.085, 2.238e-6
-1.086, 2.309e-6
-1.087, 2.325e-6
-1.088, 2.281e-6
-1.089, 2.300e-6
-1.090, 2.328e-6
-1.091, 2.335e-6
-1.092, 2.325e-6
-1.093, 2.372e-6
-1.094, 2.386e-6
-1.095, 2.345e-6
-1.096, 2.455e-6
-1.097, 2.397e-6
-1.098, 2.390e-6
-1.099, 2.415e-6
-1.100, 2.388e-6
-1.101, 2.527e-6
-1.102, 2.442e-6
-1.103, 2.510e-6
-1.104, 2.482e-6
-1.105, 2.470e-6
-1.106, 2.520e-6
-1.107, 2.489e-6
-1.108, 2.528e-6
-1.109, 2.521e-6
-1.110, 2.496e-6
-1.111, 2.563e-6
-1.112, 2.539e-6
-1.113, 2.610e-6
-1.114, 2.604e-6
-1.115, 2.568e-6
-1.116, 2.692e-6
-1.117, 2.647e-6
-1.118, 2.657e-6
-1.119, 2.673e-6
-1.120, 2.647e-6
-1.121, 2.746e-6
-1.122, 2.672e-6
-1.123, 2.730e-6
-1.124, 2.776e-6
-1.125, 2.711e-6
-1.126, 2.783e-6
-1.127, 2.787e-6
-1.128, 2.848e-6
-1.129, 2.792e-6
-1.130, 2.805e-6
-1.131, 2.880e-6
-1.132, 2.835e-6
-1.133, 2.858e-6
-1.134, 2.817e-6
-1.135, 2.858e-6
-1.136, 2.961e-6
-1.137, 2.906e-6
-1.138, 2.952e-6
-1.139, 2.897e-6
-1.140, 2.920e-6
-1.141, 3.024e-6
-1.142, 2.993e-6
-1.143, 3.025e-6
-1.144, 2.986e-6
-1.145, 2.985e-6
-1.146, 3.120e-6
-1.147, 3.105e-6
-1.148, 3.026e-6
-1.149, 3.038e-6
-1.150, 3.060e-6
-1.151, 3.177e-6
-1.152, 3.144e-6
-1.153, 3.143e-6
-1.154, 3.160e-6
-1.155, 3.175e-6
-1.156, 3.221e-6
-1.157, 3.255e-6
-1.158, 3.187e-6
-1.159, 3.184e-6
-1.160, 3.240e-6
-1.161, 3.291e-6
-1.162, 3.345e-6
-1.163, 3.276e-6
-1.164, 3.230e-6
-1.165, 3.302e-6
-1.166, 3.347e-6
-1.167, 3.386e-6
-1.168, 3.339e-6
-1.169, 3.324e-6
-1.170, 3.375e-6
-1.171, 3.371e-6
-1.172, 3.453e-6
-1.173, 3.429e-6
-1.174, 3.443e-6
-1.175, 3.426e-6
-1.176, 3.465e-6
-1.177, 3.508e-6
-1.178, 3.497e-6
-1.179, 3.452e-6
-1.180, 3.509e-6
-1.181, 3.547e-6
-1.182, 3.610e-6
-1.183, 3.603e-6
-1.184, 3.555e-6
-1.185, 3.579e-6
-1.186, 3.578e-6
-1.187, 3.664e-6
-1.188, 3.601e-6
-1.189, 3.614e-6
-1.190, 3.633e-6
-1.191, 3.666e-6
-1.192, 3.676e-6
-1.193, 3.687e-6
-1.194, 3.641e-6
-1.195, 3.691e-6
-1.196, 3.719e-6
-1.197, 3.802e-6
-1.198, 3.784e-6
-1.199, 3.753e-6
-1.200, 3.683e-6
-1.201, 3.753e-6
-1.202, 3.864e-6
-1.203, 3.791e-6
-1.204, 3.776e-6
-1.205, 3.818e-6
-1.206, 3.820e-6
-1.207, 3.918e-6
-1.208, 3.868e-6
-1.209, 3.854e-6
-1.210, 3.880e-6
-1.211, 3.863e-6
-1.212, 3.916e-6
-1.213, 3.976e-6
-1.214, 3.906e-6
-1.215, 3.944e-6
-1.216, 3.954e-6
-1.217, 3.992e-6
-1.218, 4.028e-6
-1.219, 3.923e-6
-1.220, 4.001e-6
-1.221, 3.996e-6
-1.222, 4.083e-6
-1.223, 4.085e-6
-1.224, 4.032e-6
-1.225, 4.055e-6
-1.226, 4.046e-6
-1.227, 4.144e-6
-1.228, 4.176e-6
-1.229, 4.107e-6
-1.230, 4.154e-6
-1.231, 4.144e-6
-1.232, 4.183e-6
-1.233, 4.228e-6
-1.234, 4.194e-6
-1.235, 4.187e-6
-1.236, 4.229e-6
-1.237, 4.276e-6
-1.238, 4.291e-6
-1.239, 4.279e-6
-1.240, 4.244e-6
-1.241, 4.300e-6
-1.242, 4.351e-6
-1.243, 4.393e-6
-1.244, 4.329e-6
-1.245, 4.408e-6
-1.246, 4.381e-6
-1.247, 4.454e-6
-1.248, 4.460e-6
-1.249, 4.469e-6
-1.250, 4.465e-6
-1.251, 4.488e-6
-1.252, 4.557e-6
-1.253, 4.564e-6
-1.254, 4.532e-6
-1.255, 4.549e-6
-1.256, 4.598e-6
-1.257, 4.642e-6
-1.258, 4.632e-6
-1.259, 4.653e-6
-1.260, 4.690e-6
-1.261, 4.703e-6
-1.262, 4.723e-6
-1.263, 4.699e-6
-1.264, 4.741e-6
-1.265, 4.727e-6
-1.266, 4.836e-6
-1.267, 4.888e-6
-1.268, 4.874e-6
-1.269, 4.904e-6
-1.270, 4.845e-6
-1.271, 4.939e-6
-1.272, 4.947e-6
-1.273, 4.989e-6
-1.274, 5.029e-6
-1.275, 5.016e-6
-1.276, 5.047e-6
-1.277, 5.129e-6
-1.278, 5.100e-6
-1.279, 5.128e-6
-1.280, 5.112e-6
-1.281, 5.226e-6
-1.282, 5.269e-6
-1.283, 5.272e-6
-1.284, 5.298e-6
-1.285, 5.307e-6
-1.286, 5.339e-6
-1.287, 5.418e-6
-1.288, 5.393e-6
-1.289, 5.496e-6
-1.290, 5.419e-6
-1.291, 5.544e-6
-1.292, 5.567e-6
-1.293, 5.632e-6
-1.294, 5.619e-6
-1.295, 5.591e-6
-1.296, 5.696e-6
-1.297, 5.736e-6
-1.298, 5.785e-6
-1.299, 5.808e-6
-1.300, 5.794e-6
-1.301, 5.902e-6
-1.302, 5.940e-6
-1.303, 5.958e-6
-1.304, 6.000e-6
-1.305, 6.006e-6
-1.306, 6.079e-6
-1.307, 6.099e-6
-1.308, 6.197e-6
-1.309, 6.241e-6
-1.310, 6.246e-6
-1.311, 6.348e-6
-1.312, 6.360e-6
-1.313, 6.406e-6
-1.314, 6.452e-6
-1.315, 6.453e-6
-1.316, 6.541e-6
-1.317, 6.563e-6
-1.318, 6.634e-6
-1.319, 6.721e-6
-1.320, 6.694e-6
-1.321, 6.727e-6
-1.322, 6.776e-6
-1.323, 6.926e-6
-1.324, 6.926e-6
-1.325, 6.999e-6
-1.326, 7.053e-6
-1.327, 7.125e-6
-1.328, 7.143e-6
-1.329, 7.191e-6
-1.330, 7.225e-6
-1.331, 7.353e-6
-1.332, 7.382e-6
-1.333, 7.455e-6
-1.334, 7.456e-6
-1.335, 7.545e-6
-1.336, 7.615e-6
-1.337, 7.654e-6
-1.338, 7.748e-6
-1.339, 7.729e-6
-1.340, 7.816e-6
-1.341, 7.936e-6
-1.342, 7.978e-6
-1.343, 8.063e-6
-1.344, 8.037e-6
-1.345, 8.131e-6
-1.346, 8.280e-6
-1.347, 8.298e-6
-1.348, 8.372e-6
-1.349, 8.383e-6
-1.350, 8.453e-6
-1.351, 8.540e-6
-1.352, 8.592e-6
-1.353, 8.673e-6
-1.354, 8.682e-6
-1.355, 8.802e-6
-1.356, 8.888e-6
-1.357, 8.917e-6
-1.358, 9.022e-6
-1.359, 9.001e-6
-1.360, 9.133e-6
-1.361, 9.207e-6
-1.362, 9.288e-6
-1.363, 9.402e-6
-1.364, 9.393e-6
-1.365, 9.547e-6
-1.366, 9.561e-6
-1.367, 9.692e-6
-1.368, 9.760e-6
-1.369, 9.771e-6
-1.370, 9.913e-6
-1.371, 9.940e-6
-1.372, 1.008e-5
-1.373, 1.018e-5
-1.374, 1.016e-5
-1.375, 1.031e-5
-1.376, 1.034e-5
-1.377, 1.047e-5
-1.378, 1.057e-5
-1.379, 1.055e-5
-1.380, 1.074e-5
-1.381, 1.075e-5
-1.382, 1.092e-5
-1.383, 1.104e-5
-1.384, 1.100e-5
-1.385, 1.114e-5
-1.386, 1.124e-5
-1.387, 1.140e-5
-1.388, 1.148e-5
-1.389, 1.146e-5
-1.390, 1.163e-5
-1.391, 1.170e-5
-1.392, 1.185e-5
-1.393, 1.192e-5
-1.394, 1.193e-5
-1.395, 1.211e-5
-1.396, 1.219e-5
-1.397, 1.232e-5
-1.398, 1.237e-5
-1.399, 1.245e-5
-1.400, 9.838e-6
-1.399, 8.981e-6
-1.398, 8.474e-6
-1.397, 8.085e-6
-1.396, 7.636e-6
-1.395, 7.287e-6
-1.394, 7.008e-6
-1.393, 6.723e-6
-1.392, 6.425e-6
-1.391, 6.089e-6
-1.390, 5.830e-6
-1.389, 5.653e-6
-1.388, 5.484e-6
-1.387, 5.251e-6
-1.386, 4.985e-6
-1.385, 4.807e-6
-1.384, 4.654e-6
-1.383, 4.555e-6
-1.382, 4.305e-6
-1.381, 4.147e-6
-1.380, 3.993e-6
-1.379, 3.864e-6
-1.378, 3.779e-6
-1.377, 3.599e-6
-1.376, 3.447e-6
-1.375, 3.291e-6
-1.374, 3.189e-6
-1.373, 3.124e-6
-1.372, 3.015e-6
-1.371, 2.820e-6
-1.370, 2.709e-6
-1.369, 2.635e-6
-1.368, 2.598e-6
-1.367, 2.439e-6
-1.366, 2.366e-6
-1.365, 2.239e-6
-1.364, 2.188e-6
-1.363, 2.138e-6
-1.362, 2.053e-6
-1.361, 1.962e-6
-1.360, 1.844e-6
-1.359, 1.808e-6
-1.358, 1.767e-6
-1.357, 1.674e-6
-1.356, 1.613e-6
-1.355, 1.471e-6
-1.354, 1.467e-6
-1.353, 1.410e-6
-1.352, 1.409e-6
-1.351, 1.283e-6
-1.350, 1.220e-6
-1.349, 1.190e-6
-1.348, 1.162e-6
-1.347, 1.049e-6
-1.346, 1.029e-6
-1.345, 8.720e-7
-1.344, 9.025e-7
-1.343, 9.124e-7
-1.342, 8.364e-7
-1.341, 8.364e-7
-1.340, 7.585e-7
-1.339, 6.588e-7
-1.338, 6.973e-7
-1.337, 5.740e-7
-1.336, 6.440e-7
-1.335, 5.079e-7
-1.334, 5.188e-7
-1.333, 4.901e-7
-1.332, 4.428e-7
-1.331, 4.181e-7
-1.330, 3.135e-7
-1.329, 3.747e-7
-1.328, 3.540e-7
-1.327, 2.849e-7
-1.326, 2.376e-7
-1.325, 1.577e-7
-1.324, 1.823e-7
-1.323, 1.675e-7
-1.322, 1.271e-7
-1.321, 1.073e-7
-1.320, 6.985e-8
-1.319, 4.617e-8
-1.318, 3.749e-9
-1.317, 5.722e-9
-1.316, -2.388e-8
-1.315, -6.926e-8
-1.314, -7.912e-8
-1.313, -4.262e-8
-1.312, -1.137e-7
-1.311, -1.137e-7
-1.310, -2.182e-7
-1.309, -2.172e-7
-1.308, -1.709e-7
-1.307, -2.518e-7
-1.306, -1.946e-7
-1.305, -3.041e-7
-1.304, -2.538e-7
-1.303, -3.268e-7
-1.302, -3.376e-7
-1.301, -3.287e-7
-1.300, -3.633e-7
-1.299, -4.244e-7
-1.298, -3.465e-7
-1.297, -4.126e-7
-1.296, -4.126e-7
-1.295, -4.925e-7
-1.294, -5.142e-7
-1.293, -4.955e-7
-1.292, -4.866e-7
-1.291, -5.349e-7
-1.290, -5.616e-7
-1.289, -6.198e-7
-1.288, -5.566e-7
-1.287, -5.379e-7
-1.286, -5.892e-7
-1.285, -6.454e-7
-1.284, -6.267e-7
-1.283, -6.070e-7
-1.282, -6.346e-7
-1.281, -6.464e-7
-1.280, -7.411e-7
-1.279, -7.352e-7
-1.278, -7.244e-7
-1.277, -7.609e-7
-1.276, -7.520e-7
-1.275, -7.934e-7
-1.274, -8.082e-7
-1.273, -7.984e-7
-1.272, -8.201e-7
-1.271, -8.250e-7
-1.270, -9.010e-7
-1.269, -8.427e-7
-1.268, -8.635e-7
-1.267, -8.990e-7
-1.266, -8.783e-7
-1.265, -9.641e-7
-1.264, -9.434e-7
-1.263, -9.306e-7
-1.262, -9.503e-7
-1.261, -9.365e-7
-1.260, -1.023e-6
-1.259, -1.034e-6
-1.258, -1.045e-6
-1.257, -1.001e-6
-1.256, -1.035e-6
-1.255, -1.042e-6
-1.254, -1.091e-6
-1.253, -1.067e-6
-1.252, -1.084e-6
-1.251, -1.104e-6
-1.250, -1.167e-6
-1.249, -1.125e-6
-1.248, -1.147e-6
-1.247, -1.155e-6
-1.246, -1.178e-6
-1.245, -1.215e-6
-1.244, -1.177e-6
-1.243, -1.217e-6
-1.242, -1.180e-6
-1.241, -1.217e-6
-1.240, -1.251e-6
-1.239, -1.243e-6
-1.238, -1.202e-6
-1.237, -1.248e-6
-1.236, -1.208e-6
-1.235, -1.292e-6
-1.234, -1.279e-6
-1.233, -1.259e-6
-1.232, -1.239e-6
-1.231, -1.298e-6
-1.230, -1.337e-6
-1.229, -1.331e-6
-1.228, -1.324e-6
-1.227, -1.340e-6
-1.226, -1.378e-6
-1.225, -1.416e-6
-1.224, -1.348e-6
-1.223, -1.374e-6
-1.222, -1.325e-6
-1.221, -1.378e-6
-1.220, -1.394e-6
-1.219, -1.409e-6
-1.218, -1.431e-6
-1.217, -1.403e-6
-1.216, -1.424e-6
-1.215, -1.445e-6
-1.214, -1.421e-6
-1.213, -1.410e-6
-1.212, -1.369e-6
-1.211, -1.506e-6
-1.210, -1.446e-6
-1.209, -1.459e-6
-1.208, -1.476e-6
-1.207, -1.425e-6
-1.206, -1.475e-6
-1.205, -1.444e-6
-1.204, -1.467e-6
-1.203, -1.481e-6
-1.202, -1.468e-6
-1.201, -1.481e-6
-1.200, -1.498e-6
-1.199, -1.471e-6
-1.198, -1.519e-6
-1.197, -1.444e-6
-1.196, -1.481e-6
-1.195, -1.487e-6
-1.194, -1.475e-6
-1.193, -1.510e-6
-1.192, -1.494e-6
-1.191, -1.469e-6
-1.190, -1.467e-6
-1.189, -1.508e-6
-1.188, -1.492e-6
-1.187, -1.509e-6
-1.186, -1.509e-6
-1.185, -1.467e-6
-1.184, -1.518e-6
-1.183, -1.529e-6
-1.182, -1.524e-6
-1.181, -1.492e-6
-1.180, -1.497e-6
-1.179, -1.496e-6
-1.178, -1.539e-6
-1.177, -1.523e-6
-1.176, -1.564e-6
-1.175, -1.524e-6
-1.174, -1.564e-6
-1.173, -1.431e-6
-1.172, -1.512e-6
-1.171, -1.546e-6
-1.170, -1.484e-6
-1.169, -1.518e-6
-1.168, -1.463e-6
-1.167, -1.515e-6
-1.166, -1.536e-6
-1.165, -1.514e-6
-1.164, -1.553e-6
-1.163, -1.492e-6
-1.162, -1.503e-6
-1.161, -1.534e-6
-1.160, -1.492e-6
-1.159, -1.543e-6
-1.158, -1.493e-6
-1.157, -1.486e-6
-1.156, -1.529e-6
-1.155, -1.507e-6
-1.154, -1.516e-6
-1.153, -1.471e-6
-1.152, -1.532e-6
-1.151, -1.466e-6
-1.150, -1.516e-6
-1.149, -1.524e-6
-1.148, -1.452e-6
-1.147, -1.502e-6
-1.146, -1.501e-6
-1.145, -1.524e-6
-1.144, -1.557e-6
-1.143, -1.478e-6
-1.142, -1.503e-6
-1.141, -1.512e-6
-1.140, -1.475e-6
-1.139, -1.580e-6
-1.138, -1.494e-6
-1.137, -1.543e-6
-1.136, -1.555e-6
-1.135, -1.523e-6
-1.134, -1.557e-6
-1.133, -1.485e-6
-1.132, -1.536e-6
-1.131, -1.512e-6
-1.130, -1.523e-6
-1.129, -1.578e-6
-1.128, -1.486e-6
-1.127, -1.531e-6
-1.126, -1.551e-6
-1.125, -1.544e-6
-1.124, -1.595e-6
-1.123, -1.520e-6
-1.122, -1.572e-6
-1.121, -1.519e-6
-1.120, -1.579e-6
-1.119, -1.595e-6
-1.118, -1.492e-6
-1.117, -1.574e-6
-1.116, -1.542e-6
-1.115, -1.625e-6
-1.114, -1.581e-6
-1.113, -1.541e-6
-1.112, -1.597e-6
-1.111, -1.590e-6
-1.110, -1.631e-6
-1.109, -1.642e-6
-1.108, -1.547e-6
-1.107, -1.621e-6
-1.106, -1.604e-6
-1.105, -1.636e-6
-1.104, -1.641e-6
-1.103, -1.593e-6
-1.102, -1.651e-6
-1.101, -1.640e-6
-1.100, -1.672e-6
-1.099, -1.728e-6
-1.098, -1.589e-6
-1.097, -1.641e-6
-1.096, -1.628e-6
-1.095, -1.708e-6
-1.094, -1.723e-6
-1.093, -1.581e-6
-1.092, -1.660e-6
-1.091, -1.702e-6
-1.090, -1.723e-6
-1.089, -1.735e-6
-1.088, -1.652e-6
-1.087, -1.689e-6
-1.086, -1.733e-6
-1.085, -1.732e-6
-1.084, -1.735e-6
-1.083, -1.704e-6
-1.082, -1.706e-6
-1.081, -1.727e-6
-1.080, -1.775e-6
-1.079, -1.771e-6
-1.078, -1.744e-6
-1.077, -1.738e-6
-1.076, -1.781e-6
-1.075, -1.814e-6
-1.074, -1.824e-6
-1.073, -1.771e-6
-1.072, -1.758e-6
-1.071, -1.804e-6
-1.070, -1.830e-6
-1.069, -1.875e-6
-1.068, -1.813e-6
-1.067, -1.756e-6
-1.066, -1.865e-6
-1.065, -1.900e-6
-1.064, -1.882e-6
-1.063, -1.827e-6
-1.062, -1.849e-6
-1.061, -1.854e-6
-1.060, -1.923e-6
-1.059, -1.908e-6
-1.058, -1.901e-6
-1.057, -1.874e-6
-1.056, -1.891e-6
-1.055, -1.963e-6
-1.054, -1.947e-6
-1.053, -1.921e-6
-1.052, -1.899e-6
-1.051, -1.967e-6
-1.050, -2.010e-6
-1.049, -1.974e-6
-1.048, -1.989e-6
-1.047, -1.965e-6
-1.046, -2.022e-6
-1.045, -1.987e-6
-1.044, -2.050e-6
-1.043, -2.039e-6
-1.042, -2.008e-6
-1.041, -2.050e-6
-1.040, -2.085e-6
-1.039, -2.093e-6
-1.038, -2.139e-6
-1.037, -2.025e-6
-1.036, -2.081e-6
-1.035, -2.172e-6
-1.034, -2.159e-6
-1.033, -2.163e-6
-1.032, -2.113e-6
-1.031, -2.161e-6
-1.030, -2.245e-6
-1.029, -2.197e-6
-1.028, -2.186e-6
-1.027, -2.181e-6
-1.026, -2.235e-6
-1.025, -2.256e-6
-1.024, -2.275e-6
-1.023, -2.276e-6
-1.022, -2.259e-6
-1.021, -2.270e-6
-1.020, -2.350e-6
-1.019, -2.326e-6
-1.018, -2.380e-6
-1.017, -2.289e-6
-1.016, -2.347e-6
-1.015, -2.373e-6
-1.014, -2.387e-6
-1.013, -2.388e-6
-1.012, -2.352e-6
-1.011, -2.442e-6
-1.010, -2.464e-6
-1.009, -2.492e-6
-1.008, -2.472e-6
-1.007, -2.419e-6
-1.006, -2.476e-6
-1.005, -2.539e-6
-1.004, -2.506e-6
-1.003, -2.536e-6
-1.002, -2.499e-6
-1.001, -2.539e-6
