Potential V vs RHE, Current mA cm-2
0.4132999999999999,0.00112243194531292
0.4122999999999999,-0.0007422990190391847
0.4112999999999999,-0.001655212220842093
0.4102999999999999,-0.002238073276386488
0.4092999999999999,-0.0026723896454450544
0.4082999999999999,-0.0030685088094072645
0.4072999999999999,-0.0034518955716706895
0.4062999999999999,-0.0038055733966369486
0.4052999999999999,-0.004070124409711711
0.4042999999999999,-0.0043233577323875515
0.4032999999999999,-0.004531320293467712
0.4022999999999999,-0.004766162369245309
0.4012999999999999,-0.0049613925286266835
0.4002999999999999,-0.005125499039411028
0.3992999999999999,-0.005288190838895508
0.3982999999999999,-0.005452297349679851
0.3972999999999999,-0.005588109634466895
0.3962999999999999,-0.005743727877452049
0.3952999999999999,-0.005849831224941926
0.3942999999999999,-0.005946031593332749
0.39329999999999987,-0.006060623208621817
0.39229999999999987,-0.006158238288312504
0.39129999999999987,-0.0063067829747983336
0.39029999999999987,-0.006369030271992395
0.38929999999999987,-0.006445424682185107
0.38829999999999987,-0.006500598422879843
0.38729999999999987,-0.006608116481669587
0.38629999999999987,-0.006711390406559735
0.38529999999999986,-0.006783540682852852
0.38429999999999986,-0.006825982021848803
0.38329999999999986,-0.006893888164242324
0.38229999999999986,-0.006956135461436385
0.38129999999999986,-0.007055165252426938
0.38029999999999986,-0.007111753704421539
0.37929999999999986,-0.007144292064318436
0.37829999999999986,-0.007209368784112226
0.37729999999999986,-0.0072744455039060185
0.37629999999999986,-0.007369231160996976
0.37529999999999986,-0.0074201607677921175
0.37429999999999986,-0.007444210859889824
0.37329999999999985,-0.007520605270082535
0.37229999999999985,-0.007582852567276597
0.37129999999999985,-0.007653588132269849
0.37029999999999985,-0.007713006006864179
0.36929999999999985,-0.007752617923260401
0.36829999999999985,-0.007799303396155947
0.36729999999999985,-0.00786438011594974
0.36629999999999985,-0.00795209221654137
0.36529999999999985,-0.007994533555537323
0.36429999999999985,-0.008029901338033947
0.36329999999999985,-0.008062439697930844
0.36229999999999984,-0.00813176055162423
0.36129999999999984,-0.008229375631314918
0.36029999999999984,-0.008268987547711139
0.35929999999999984,-0.00830859946410736
0.35829999999999984,-0.008352455514403176
0.35729999999999984,-0.008414702811597239
0.35629999999999984,-0.008506659046088464
0.35529999999999984,-0.008539197405985362
0.35429999999999984,-0.008592956435380232
0.35329999999999984,-0.008624080083977264
0.35229999999999984,-0.00868491266987146
0.35129999999999983,-0.008776868904362687
0.35029999999999983,-0.008817895532058775
0.34929999999999983,-0.008863166293654455
0.34829999999999983,-0.008916925323049326
0.34729999999999983,-0.008997563867141633
0.34629999999999983,-0.009068299432134885
0.34529999999999983,-0.009133376151928677
0.34429999999999983,-0.009161670377925977
0.3432999999999998,-0.00921542940732085
0.3422999999999998,-0.00929182381751356
0.3412999999999998,-0.009380950629405057
0.3402999999999998,-0.009458759750897636
0.3392999999999998,-0.00948563926559507
0.3382999999999998,-0.009545057140189403
0.3372999999999998,-0.009624280972981845
0.3362999999999998,-0.009710578362273611
0.3352999999999998,-0.009774240370767538
0.3342999999999998,-0.00983365824536187
0.3332999999999998,-0.009904393810355122
0.3322999999999998,-0.00997654408664824
0.3312999999999998,-0.010076988588938657
0.3302999999999998,-0.01016470068953029
0.3292999999999998,-0.010225533275424485
0.3282999999999998,-0.010309001242116523
0.3272999999999998,-0.010396713342708155
0.3262999999999998,-0.010499987267598302
0.3252999999999999,-0.010566478698691957
0.3242999999999999,-0.010649946665383997
0.3232999999999999,-0.010713608673877923
0.3222999999999999,-0.010842347402165642
0.3212999999999999,-0.010969671419153495
0.3202999999999999,-0.011058798231044992
0.3192999999999999,-0.011149339754236355
0.3182999999999999,-0.01125544310172623
0.3172999999999999,-0.011374278850914896
0.3162999999999999,-0.011534141227799643
0.3152999999999999,-0.011641659286589386
0.3142999999999999,-0.011733615521080614
0.3132999999999999,-0.011863768960668198
0.3122999999999999,-0.011986848843756457
0.3112999999999999,-0.012149540643240935
0.3102999999999999,-0.012269791103729463
0.3092999999999999,-0.012407018099816373
0.3082999999999999,-0.012552733363702469
0.3072999999999999,-0.01268996035978938
0.3062999999999999,-0.012890849364370214
0.3052999999999999,-0.013039394050856043
0.3042999999999999,-0.013170962201743491
0.3032999999999999,-0.013350630536826351
0.3022999999999999,-0.01352746944930948
0.3012999999999999,-0.01372411431999072
0.3002999999999999,-0.01388397669687547
0.2992999999999999,-0.014016959559062781
0.2982999999999999,-0.014203701450644968
0.2972999999999999,-0.014401761032626074
0.2962999999999999,-0.014628114840604478
0.2952999999999999,-0.014797880196588285
0.2942999999999999,-0.014967645552572089
0.2932999999999999,-0.015137410908555892
0.2922999999999999,-0.015335470490536997
0.2912999999999999,-0.015519382959519455
0.2902999999999999,-0.01568914831550326
0.2892999999999999,-0.01584476655848841
0.2882999999999999,-0.016014531914472215
0.2872999999999999,-0.01618429727045602
0.2862999999999999,-0.01638235685243712
0.2852999999999999,-0.016552122208420932
0.2842999999999999,-0.01670774045140608
0.2832999999999999,-0.016849211581392583
0.2822999999999999,-0.01703312405037504
0.2812999999999999,-0.017217036519357496
0.2802999999999999,-0.017358507649344
0.2792999999999999,-0.01748583166633185
0.2782999999999999,-0.017599008570321057
0.2772999999999999,-0.01774047970030756
0.2762999999999999,-0.017910245056291362
0.2752999999999999,-0.01803756907327922
0.2742999999999999,-0.01813659886426977
0.2732999999999999,-0.018249775768258973
0.2722999999999999,-0.018348805559249524
0.2712999999999999,-0.01853271802823198
0.2702999999999999,-0.018603453593225232
0.2692999999999999,-0.018716630497214438
0.26829999999999987,-0.018801513175206338
0.26729999999999987,-0.018886395853198238
0.26629999999999987,-0.019013719870186095
0.26529999999999987,-0.019098602548177995
0.26429999999999987,-0.0191551910001726
0.26329999999999987,-0.019240073678164497
0.26229999999999987,-0.019310809243157753
0.26129999999999987,-0.019423986147146955
0.26029999999999986,-0.019466427486142905
0.25929999999999986,-0.019494721712140204
0.25829999999999986,-0.019579604390132108
0.25729999999999986,-0.01965033995512536
0.25629999999999986,-0.01973522263311726
0.25529999999999986,-0.019777663972113214
0.25429999999999986,-0.019805958198110513
0.25329999999999986,-0.019848399537106463
0.25229999999999986,-0.019919135102099715
0.25129999999999986,-0.019961576441095665
0.25029999999999986,-0.020018164893090266
0.24929999999999986,-0.02003231200608892
0.24829999999999985,-0.02008890045808352
0.24729999999999985,-0.020131341797079472
0.24629999999999985,-0.020187930249074077
0.24529999999999985,-0.020230371588070024
0.24429999999999985,-0.020258665814067326
0.24329999999999985,-0.020272812927065977
0.24229999999999985,-0.02032940137906058
0.24129999999999985,-0.02038598983105518
0.24029999999999985,-0.020400136944053827
0.23929999999999985,-0.02041428405705248
0.23829999999999985,-0.02042843117005113
0.23729999999999984,-0.020470872509047083
0.23629999999999984,-0.020541608074040336
0.23529999999999984,-0.020541608074040336
0.23429999999999984,-0.02055575518703898
0.23329999999999984,-0.020584049413036282
0.23229999999999984,-0.020626490752032236
0.23129999999999984,-0.020683079204026837
0.23029999999999984,-0.020683079204026837
0.22929999999999984,-0.020697226317025485
0.22829999999999984,-0.02071137343002414
0.22729999999999984,-0.020725520543022787
0.22629999999999983,-0.02078210899501739
0.22529999999999983,-0.02079625610801604
0.22429999999999983,-0.02079625610801604
0.22329999999999983,-0.020824550334013342
0.22229999999999983,-0.02085284456001064
0.22129999999999983,-0.02088113878600794
0.22029999999999983,-0.020909433012005242
0.21929999999999983,-0.020895285899006594
0.21829999999999983,-0.020923580125003893
0.21729999999999983,-0.020937727238002544
0.21629999999999983,-0.020994315689997142
0.21529999999999982,-0.020980168576998495
0.21429999999999982,-0.020994315689997142
0.21329999999999982,-0.020994315689997142
0.21229999999999982,-0.021036757028993096
0.21129999999999982,-0.021065051254990398
0.21029999999999982,-0.021093345480987697
0.20929999999999982,-0.021065051254990398
0.20829999999999982,-0.021093345480987697
0.20729999999999982,-0.021121639706984996
0.20629999999999982,-0.0211782281589796
0.20529999999999982,-0.0211782281589796
0.20429999999999982,-0.0211782281589796
0.20329999999999981,-0.0211782281589796
0.2022999999999998,-0.02122066949797555
0.2012999999999998,-0.021277257949970152
0.20029999999999992,-0.021305552175967454
0.19929999999999992,-0.021305552175967454
0.19829999999999992,-0.021319699288966102
0.19729999999999992,-0.021319699288966102
0.19629999999999992,-0.021376287740960703
0.19529999999999992,-0.021362140627962056
0.19429999999999992,-0.021404581966958002
0.19329999999999992,-0.021432876192955305
0.19229999999999992,-0.021447023305953956
0.19129999999999991,-0.02150361175794856
0.1902999999999999,-0.02150361175794856
0.1892999999999999,-0.02150361175794856
0.1882999999999999,-0.021546053096944507
0.1872999999999999,-0.02157434732294181
0.1862999999999999,-0.021602641548939108
0.1852999999999999,-0.02163093577493641
0.1842999999999999,-0.021602641548939108
0.1832999999999999,-0.02163093577493641
0.1822999999999999,-0.02167337711393236
0.1812999999999999,-0.021729965565926962
0.1802999999999999,-0.021744112678925617
0.1792999999999999,-0.021758259791924264
0.1782999999999999,-0.021786554017921567
0.1772999999999999,-0.021814848243918866
0.1762999999999999,-0.02185728958291482
0.1752999999999999,-0.021885583808912118
0.1742999999999999,-0.021871436695913467
0.1732999999999999,-0.021871436695913467
0.1722999999999999,-0.021913878034909417
0.1712999999999999,-0.021956319373905367
0.1702999999999999,-0.02198461359990267
0.1692999999999999,-0.02198461359990267
0.1682999999999999,-0.02199876071290132
0.1672999999999999,-0.02204120205189727
0.1662999999999999,-0.022069496277894573
0.1652999999999999,-0.02208364339089322
0.1642999999999999,-0.022097790503891875
0.1632999999999999,-0.022111937616890523
0.1622999999999999,-0.022168526068885124
0.1612999999999999,-0.022210967407881078
0.1602999999999999,-0.022239261633878377
0.1592999999999999,-0.022253408746877028
0.15829999999999989,-0.02226755585987568
0.15729999999999988,-0.022295850085872978
0.15629999999999988,-0.02238073276386488
0.15529999999999988,-0.02239487987686353
0.15429999999999988,-0.02239487987686353
0.15329999999999988,-0.02242317410286083
0.15229999999999988,-0.022437321215859483
0.15129999999999988,-0.022522203893851383
0.15029999999999988,-0.022522203893851383
0.14929999999999988,-0.022550498119848682
0.14829999999999988,-0.022578792345845984
0.14729999999999988,-0.022607086571843286
0.14629999999999987,-0.022663675023837888
0.14529999999999987,-0.02267782213683654
0.14429999999999987,-0.02267782213683654
0.14329999999999987,-0.02272026347583249
0.14229999999999987,-0.02279099904082574
0.14129999999999987,-0.022847587492820343
0.14029999999999987,-0.02287588171881764
0.13929999999999987,-0.022904175944814944
0.13829999999999987,-0.022890028831816296
0.13729999999999987,-0.022932470170812246
0.13629999999999987,-0.022974911509808196
0.13529999999999986,-0.022989058622806844
0.13429999999999986,-0.022989058622806844
0.13329999999999986,-0.023017352848804146
0.13229999999999986,-0.0230597941878001
0.13129999999999986,-0.023116382639794698
0.13029999999999986,-0.023158823978790648
0.12929999999999986,-0.023172971091789302
0.12829999999999986,-0.02318711820478795
0.12729999999999986,-0.023215412430785252
0.12629999999999986,-0.02327200088277985
0.12529999999999986,-0.023286147995778505
0.12429999999999986,-0.023286147995778505
0.12329999999999985,-0.023300295108777156
0.12229999999999985,-0.023356883560771757
0.12129999999999985,-0.02341347201276636
0.12029999999999985,-0.023427619125765006
0.11929999999999985,-0.023441766238763657
0.11829999999999985,-0.02345591335176231
0.11729999999999985,-0.023512501803756906
0.11629999999999985,-0.02356909025575151
0.11529999999999985,-0.02356909025575151
0.11429999999999985,-0.023611531594747465
0.11329999999999985,-0.023668120046742062
0.11229999999999984,-0.02373885561173532
0.11129999999999984,-0.023823738289727222
0.11029999999999984,-0.023823738289727222
0.10929999999999984,-0.023823738289727222
0.10829999999999984,-0.023837885402725866
0.10729999999999984,-0.02385203251572452
0.10629999999999984,-0.02393691519371642
0.10529999999999984,-0.023965209419713723
0.10429999999999984,-0.023993503645711022
0.10329999999999984,-0.024021797871708325
0.10229999999999984,-0.024050092097705623
0.10129999999999983,-0.024106680549700225
0.10029999999999983,-0.024149121888696175
0.09929999999999983,-0.024149121888696175
0.09829999999999983,-0.024163269001694826
0.09729999999999983,-0.024219857453689427
0.09629999999999983,-0.02429059301868268
0.09529999999999983,-0.024304740131681327
0.09429999999999983,-0.02433303435767863
0.09329999999999983,-0.02436132858367593
0.09229999999999983,-0.02438962280967323
0.09129999999999983,-0.024460358374666487
0.09029999999999982,-0.02447450548766513
0.08929999999999982,-0.02447450548766513
0.08829999999999982,-0.024516946826661085
0.08729999999999982,-0.02457353527865569
0.08629999999999982,-0.024644270843648942
0.08529999999999982,-0.02465841795664759
0.08429999999999982,-0.02468671218264489
0.08329999999999982,-0.024700859295643543
0.08229999999999982,-0.02475744774763814
0.08129999999999982,-0.024842330425630044
0.08029999999999982,-0.024870624651627343
0.07929999999999982,-0.0249413602166206
0.07829999999999981,-0.024983801555616546
0.07729999999999981,-0.0250262428946125
0.07629999999999981,-0.02509697845960575
0.07529999999999992,-0.02512527268560305
0.07429999999999992,-0.02515356691160035
0.07329999999999992,-0.025181861137597652
0.07229999999999992,-0.025238449589592253
0.07129999999999992,-0.025295038041586858
0.07029999999999992,-0.025323332267584157
0.06929999999999992,-0.025337479380582808
0.06829999999999992,-0.025365773606580107
0.06729999999999992,-0.02540821494557606
0.06629999999999991,-0.025507244736566608
0.06529999999999991,-0.02553553896256391
0.06429999999999991,-0.02554968607556256
0.06329999999999991,-0.025592127414558512
0.06229999999999991,-0.025634568753554465
0.06129999999999991,-0.02573359854454502
0.06029999999999991,-0.02577603988354097
0.05929999999999991,-0.025790186996539618
0.05829999999999991,-0.02580433410953827
0.05729999999999991,-0.025846775448534223
0.056299999999999906,-0.02591751101352747
0.055299999999999905,-0.025974099465522073
0.054299999999999904,-0.025988246578520724
0.0532999999999999,-0.026058982143513973
0.0522999999999999,-0.02612971770850723
0.0512999999999999,-0.026186306160501827
0.0502999999999999,-0.026257041725495082
0.0492999999999999,-0.026257041725495082
0.0482999999999999,-0.02628533595149238
0.0472999999999999,-0.026370218629484285
0.0462999999999999,-0.026469248420474833
0.045299999999999896,-0.02655413109846674
0.044299999999999895,-0.02656827821146539
0.043299999999999894,-0.02659657243746269
0.04229999999999989,-0.02662486666345999
0.04129999999999989,-0.026695602228453245
0.04029999999999989,-0.02673804356744919
0.03929999999999989,-0.026766337793446494
0.03829999999999989,-0.026780484906445145
0.03729999999999989,-0.026837073358439746
0.03629999999999989,-0.026907808923433
0.03529999999999989,-0.02695025026242895
0.034299999999999886,-0.026992691601424906
0.033299999999999885,-0.027049280053419503
0.032299999999999884,-0.027105868505414105
0.031299999999999883,-0.027204898296404656
0.030299999999999883,-0.02723319252240196
0.02929999999999988,-0.02727563386139791
0.02829999999999988,-0.02731807520039386
0.02729999999999988,-0.02736051653938981
0.02629999999999988,-0.02741710499138441
0.025299999999999878,-0.027459546330380363
0.024299999999999877,-0.027487840556377662
0.023299999999999876,-0.027516134782374965
0.022299999999999875,-0.027586870347368214
0.021299999999999875,-0.027671753025360117
0.020299999999999874,-0.02774248859035337
0.019299999999999873,-0.027799077042347967
0.018299999999999872,-0.027855665494342572
0.01729999999999987,-0.027912253946337173
0.01629999999999987,-0.02796884239833177
0.01529999999999987,-0.02802543085032638
0.014299999999999868,-0.028053725076323675
0.013299999999999867,-0.028082019302320977
0.012299999999999978,-0.02813860775431558
0.011299999999999866,-0.02820934331930883
0.010299999999999976,-0.028251784658304784
0.009299999999999864,-0.02829422599730073
0.008299999999999974,-0.028322520223298033
0.007299999999999862,-0.028407402901289937
0.006299999999999972,-0.02847813846628319
0.00529999999999986,-0.02850643269228049
0.0042999999999999705,-0.028534726918277787
0.0032999999999998586,-0.028563021144275093
0.0022999999999999687,-0.028647903822266993
0.0012999999999998568,-0.028704492274261594
0.00029999999999996696,-0.028732786500258897
-0.000700000000000145,-0.02880352206525215
-0.0017000000000000348,-0.028845963404248096
-0.0027000000000001467,-0.028916698969241348
-0.0037000000000000366,-0.029001581647233248
-0.0047000000000001485,-0.02902987587323055
-0.005700000000000038,-0.0290723172122265
-0.00670000000000015,-0.029114758551222454
-0.00770000000000004,-0.029185494116215707
-0.008700000000000152,-0.029284523907206258
-0.009700000000000042,-0.029341112359200863
-0.010700000000000154,-0.02939770081119546
-0.011700000000000044,-0.02946843637618871
-0.012700000000000156,-0.029525024828183317
-0.013700000000000045,-0.029652348845171168
-0.014700000000000157,-0.02969479018416712
-0.015700000000000047,-0.02973723152316307
-0.01670000000000016,-0.029765525749160374
-0.01770000000000005,-0.029850408427152274
-0.01870000000000016,-0.029935291105144177
-0.01970000000000005,-0.029991879557138775
-0.020700000000000163,-0.03000602667013743
-0.021700000000000053,-0.030048468009133376
-0.022700000000000164,-0.030133350687125283
-0.023700000000000054,-0.030218233365117184
-0.024700000000000166,-0.030274821817111785
-0.025700000000000056,-0.030303116043109087
-0.026700000000000168,-0.03033141026910639
-0.027700000000000058,-0.030387998721100987
-0.02870000000000017,-0.03044458717309559
-0.02970000000000006,-0.030501175625090193
-0.03070000000000017,-0.030543616964086147
-0.03170000000000006,-0.030600205416080745
-0.03270000000000017,-0.030685088094072648
-0.03370000000000006,-0.030784117885063196
-0.034700000000000175,-0.03082655922405915
-0.035700000000000065,-0.03085485345005645
-0.03670000000000018,-0.030883147676053754
-0.03770000000000007,-0.030939736128048352
-0.03870000000000018,-0.031024618806040256
-0.03970000000000007,-0.031081207258034853
-0.04070000000000018,-0.031123648597030807
-0.04170000000000007,-0.031123648597030807
-0.04270000000000018,-0.031222678388021355
-0.04370000000000007,-0.03133585529201056
-0.044700000000000184,-0.03139244374400516
-0.045700000000000074,-0.031420737970002464
-0.046700000000000186,-0.03146317930899842
-0.047700000000000076,-0.03151976776099302
-0.04870000000000019,-0.03160465043898492
-0.04970000000000008,-0.03163294466498222
-0.05070000000000019,-0.03170368022997547
-0.05170000000000008,-0.031788562907967374
-0.05270000000000019,-0.03184515135996198
-0.05370000000000008,-0.03193003403795388
-0.05470000000000019,-0.03195832826395118
-0.05570000000000008,-0.031972475376949826
-0.056700000000000195,-0.032014916715945786
-0.057700000000000085,-0.032071505167940384
-0.058700000000000196,-0.03214224073293363
-0.059700000000000086,-0.03222712341092554
-0.0607000000000002,-0.032255417636922835
-0.06170000000000009,-0.032340300314914736
-0.0627000000000002,-0.032425182992906636
-0.06370000000000009,-0.03248177144490124
-0.0647000000000002,-0.032538359896895845
