Potential V vs RHE, Current mA cm-2
0.013299999999999867,1.4373466806628774
0.012299999999999978,-0.8745745255765657
0.011299999999999866,-2.8803522065252145
0.010299999999999976,-4.712403339850438
0.009299999999999864,-6.414301033588076
0.008299999999999974,-7.984630576438266
0.007299999999999862,-9.467248018696827
0.006299999999999972,-10.949865460955383
0.00529999999999986,-12.302329463626359
0.0042999999999999705,-13.741090855589102
0.0032999999999998586,-15.05252823056399
0.0022999999999999687,-16.354062626439823
0.0012999999999998568,-17.584861457322408
0.00029999999999996696,-18.716630497214435
-0.000700000000000145,-19.763516859114564
-0.0017000000000000348,-20.810403221014692
-0.0027000000000001467,-21.772406904922917
-0.0037000000000000366,-22.72026347583249
-0.0047000000000001485,-23.724708498736668
-0.005700000000000038,-24.729153521640843
-0.00670000000000015,-25.691157205549064
-0.00770000000000004,-26.65316088945729
-0.008700000000000152,-27.615164573365515
-0.009700000000000042,-28.435697127287238
-0.010700000000000154,-29.27037679420761
-0.011700000000000044,-30.04846800913338
-0.012700000000000156,-30.79826499806185
-0.013700000000000045,-31.57635621298762
-0.014700000000000157,-32.368594540912035
-0.015700000000000047,-33.14668575583781
-0.01670000000000016,-33.98136542275818
-0.01770000000000005,-34.75945663768395
-0.01870000000000016,-35.50925362661242
-0.01970000000000005,-36.20246216354629
-0.020700000000000163,-36.8532293614842
-0.021700000000000053,-37.51814367242077
-0.022700000000000164,-38.12646953136274
-0.023700000000000054,-38.734795390304704
-0.024700000000000166,-39.42800392723857
-0.025700000000000056,-40.135359577171094
-0.026700000000000168,-40.87100945310091
-0.027700000000000058,-41.606659329030734
-0.02870000000000017,-42.2715736399673
-0.02970000000000006,-42.92234083790521
-0.03070000000000017,-43.53066669684718
-0.03170000000000006,-44.096551216793195
-0.03270000000000017,-44.704877075735155
-0.03370000000000006,-45.32735004767578
-0.034700000000000175,-45.93567590661774
-0.035700000000000065,-46.586443104555656
-0.03670000000000018,-47.27965164148953
-0.03770000000000007,-47.987007291422046
-0.03870000000000018,-48.63777448935996
-0.03970000000000007,-49.24610034830193
-0.04070000000000018,-49.81198486824794
-0.04170000000000007,-50.335428049198
-0.04270000000000018,-50.85887123014807
-0.04370000000000007,-51.424755750094086
-0.044700000000000184,-52.033081609036046
-0.045700000000000074,-52.64140746797801
-0.046700000000000186,-53.30632177891458
-0.047700000000000076,-53.9570889768525
-0.04870000000000019,-54.56541483579447
-0.04970000000000008,-55.13129935574048
-0.05070000000000019,-55.65474253669055
-0.05170000000000008,-56.1781857176406
-0.05270000000000019,-56.70162889859067
-0.05370000000000008,-57.22507207954074
-0.05470000000000019,-57.79095659948675
-0.05570000000000008,-58.39928245842871
-0.056700000000000195,-59.02175543036933
-0.057700000000000085,-59.6300812893113
-0.058700000000000196,-60.15352447026136
-0.059700000000000086,-60.71940899020737
-0.0607000000000002,-61.20041083216149
-0.06170000000000009,-61.72385401311155
-0.0627000000000002,-62.20485585506566
-0.06370000000000009,-62.72829903601572
-0.0647000000000002,-63.29418355596174
-0.06570000000000009,-63.902509414903705
-0.0667000000000002,-64.51083527384567
-0.0677000000000001,-65.0767197937917
-0.0687000000000002,-65.64260431373769
-0.0697000000000001,-66.16604749468777
-0.07070000000000021,-66.64704933664189
-0.0717000000000001,-67.08560983960004
-0.07270000000000021,-67.56661168155415
-0.0737000000000001,-68.0051721845123
-0.07470000000000021,-68.48617402646643
-0.0757000000000001,-69.0096172074165
-0.07670000000000021,-69.53306038836655
-0.0777000000000001,-70.05650356931662
-0.07870000000000021,-70.53750541127073
-0.0797000000000001,-70.96191880123024
-0.08070000000000022,-71.4004793041884
-0.0817000000000001,-71.7965984681506
-0.08270000000000022,-72.15027629311687
-0.08370000000000011,-72.53224834408043
-0.08470000000000022,-72.97080884703858
-0.08570000000000011,-73.40936934999675
-0.08670000000000022,-73.8479298529549
-0.08770000000000011,-74.28649035591307
-0.08870000000000022,-74.72505085887124
-0.08970000000000011,-75.1070229098348
-0.09070000000000022,-75.37581805680915
-0.09170000000000011,-75.71534876877676
-0.09270000000000023,-75.98414391575112
-0.09370000000000012,-76.23879194972683
-0.09470000000000023,-76.5924697746931
-0.09570000000000012,-76.9037062606634
-0.09670000000000023,-77.28567831162695
-0.09770000000000012,-77.59691479759726
-0.09870000000000023,-77.90815128356756
-0.09970000000000012,-78.16279931754329
-0.10070000000000023,-78.38915312552167
-0.10170000000000012,-78.55891848150549
-0.10270000000000024,-78.72868383748929
-0.10370000000000013,-78.91259630647174
-0.10470000000000024,-79.1248030014515
-0.10570000000000013,-79.33700969643127
-0.10670000000000024,-79.60580484340561
-0.10770000000000013,-79.86045287738132
-0.10870000000000024,-80.08680668535972
-0.10970000000000013,-80.21413070234757
-0.11070000000000024,-80.34145471933543
-0.11170000000000013,-80.38389605833139
-0.11270000000000002,-80.46877873632329
-0.11370000000000013,-80.56780852731384
-0.11470000000000002,-80.69513254430169
-0.11570000000000014,-80.7800152222936
-0.11670000000000003,-80.90733923928146
-0.11770000000000014,-81.04881036926795
-0.11870000000000003,-81.13369304725985
-0.11970000000000014,-81.13369304725985
-0.12070000000000003,-81.13369304725985
-0.12170000000000014,-81.04881036926795
-0.12270000000000003,-80.9497805782774
-0.12370000000000014,-80.90733923928146
-0.12470000000000003,-80.86489790028548
-0.12570000000000014,-80.86489790028548
-0.12670000000000003,-80.86489790028548
-0.12770000000000015,-80.82245656128954
-0.12870000000000004,-80.7800152222936
-0.12970000000000015,-80.61024986630979
-0.13070000000000004,-80.42633739732734
-0.13170000000000015,-80.21413070234757
-0.13270000000000004,-79.94533555537322
-0.13370000000000015,-79.73312886039348
-0.13470000000000004,-79.56336350440966
-0.13570000000000015,-79.33700969643127
-0.13670000000000004,-79.16724434044745
-0.13770000000000016,-78.9550376454677
-0.13870000000000005,-78.68624249849334
-0.13970000000000016,-78.38915312552167
-0.14070000000000005,-78.07791663955136
-0.14170000000000016,-77.68179747558916
-0.14270000000000005,-77.28567831162695
-0.14370000000000016,-76.9037062606634
-0.14470000000000005,-76.55002843569714
-0.14570000000000016,-76.19635061073087
-0.14670000000000005,-75.8992612377592
-0.14770000000000016,-75.5880247517889
-0.14870000000000005,-75.19190558782671
-0.14970000000000017,-74.80993353686314
-0.15070000000000006,-74.32893169490903
-0.15170000000000017,-73.8479298529549
-0.15270000000000006,-73.3669280110008
-0.15370000000000017,-72.8859261690467
-0.15470000000000006,-72.44736566608852
-0.15570000000000017,-72.00880516313036
-0.15670000000000006,-71.58439177317086
-0.15770000000000017,-71.18827260920865
-0.15870000000000006,-70.70727076725453
-0.15970000000000018,-70.14138624730852
-0.16070000000000007,-69.61794306635846
-0.16170000000000018,-69.0096172074165
-0.16270000000000007,-68.38714423547587
-0.16370000000000018,-67.82125971552985
-0.16470000000000007,-67.2978165345798
-0.16570000000000018,-66.77437335362974
-0.16670000000000007,-66.29337151167562
-0.16770000000000018,-65.76992833072556
-0.16870000000000007,-65.2464851497755
-0.16970000000000018,-64.68060062982947
-0.17070000000000007,-64.0722747708875
-0.17170000000000019,-63.46394891194555
-0.17270000000000008,-62.81318171400764
-0.1737000000000002,-62.20485585506566
-0.17470000000000008,-61.6814126741156
-0.1757000000000002,-61.11552815416958
-0.17670000000000008,-60.59208497321952
-0.1777000000000002,-60.11108313126541
-0.17870000000000008,-59.54519861131939
-0.1797000000000002,-58.97931409137338
-0.18070000000000008,-58.35684111943277
-0.1817000000000002,-57.7485152604908
-0.18270000000000008,-57.14018940154883
-0.1837000000000002,-56.57430488160282
-0.1847000000000001,-56.05086170065276
-0.1857000000000002,-55.56985985869864
-0.1867000000000001,-55.088858016744524
-0.1877000000000002,-54.65029751378637
-0.1887000000000001,-54.1268543328363
-0.1897000000000002,-53.603411151886235
-0.1907000000000001,-53.03752663194023
-0.1917000000000001,-52.471642111994214
-0.19269999999999998,-51.90575759204819
-0.1937000000000001,-51.38231441109813
-0.19469999999999998,-50.90131256914402
-0.1957000000000001,-50.46275206618586
-0.19669999999999999,-50.024191563227696
-0.1977000000000001,-49.642219512264134
-0.1987,-49.16121767031002
-0.1997000000000001,-48.68021582835591
-0.2007,-48.1992139864018
-0.2017000000000001,-47.71821214444768
-0.2027,-47.19476896349763
-0.2037000000000001,-46.75620846053947
-0.2047,-46.3176479575813
-0.2057000000000001,-45.97811724561369
-0.2067,-45.624439420647434
-0.2077000000000001,-45.27076159568118
-0.2087,-44.93123088371356
-0.2097000000000001,-44.4926703807554
-0.2107,-44.096551216793195
-0.2117000000000001,-43.657990713835034
-0.2127,-43.23357732387552
-0.2137000000000001,-42.837458159913304
-0.2147,-42.483780334947056
-0.2157000000000001,-42.229132300971344
-0.2167,-41.87545447600508
-0.21770000000000012,-41.606659329030734
-0.2187,-41.267128617063115
-0.21970000000000012,-40.91345079209687
-0.2207,-40.51733162813464
-0.22170000000000012,-40.135359577171094
-0.2227,-39.739240413208876
-0.22370000000000012,-39.38556258824262
-0.2247,-39.130914554266916
-0.22570000000000012,-38.86211940729255
-0.2267,-38.607471373316855
-0.22770000000000012,-38.38111756533845
-0.22870000000000001,-38.12646953136274
-0.22970000000000013,-37.81523304539243
-0.23070000000000002,-37.51814367242077
-0.23170000000000013,-37.164465847454515
-0.23270000000000002,-36.8532293614842
-0.23370000000000013,-36.5985813275085
-0.23470000000000002,-36.37222751953009
-0.23570000000000013,-36.16002082455034
-0.23670000000000002,-35.99025546856653
-0.2376999999999999,-35.806342999584075
-0.23870000000000002,-35.594136304604326
-0.2396999999999999,-35.32534115762997
-0.24070000000000003,-35.02825178465831
-0.24169999999999991,-34.75945663768395
-0.24270000000000003,-34.462367264712285
-0.24369999999999992,-34.236013456733886
-0.24470000000000003,-34.02380676175414
-0.24569999999999992,-33.89648274476628
-0.24670000000000003,-33.712570275783825
-0.24769999999999992,-33.58524625879597
-0.24870000000000003,-33.41548090281216
-0.24969999999999992,-33.18912709483376
-0.25070000000000003,-32.93447906085806
-0.2516999999999999,-32.70812525287965
-0.25270000000000004,-32.45347721890394
-0.2536999999999999,-32.24127052392419
-0.25470000000000004,-32.09979939393769
-0.2556999999999999,-31.930034037953877
-0.25670000000000004,-31.887592698957924
-0.25769999999999993,-31.76026868197007
-0.25870000000000004,-31.618797551983565
-0.25969999999999993,-31.40659085700382
-0.26070000000000004,-31.19438416202406
-0.26169999999999993,-31.010471693041605
-0.26270000000000004,-30.79826499806185
-0.26369999999999993,-30.614352529079397
-0.26470000000000005,-30.529469851087494
-0.26569999999999994,-30.402145834099635
-0.26670000000000005,-30.359704495103685
-0.26769999999999994,-30.317263156107735
-0.26870000000000005,-30.189939139119886
-0.26969999999999994,-30.00602667013743
-0.27070000000000005,-29.836261314153624
-0.27169999999999994,-29.66649595816982
-0.27270000000000005,-29.482583489187363
-0.27369999999999994,-29.35525947219951
-0.27470000000000006,-29.27037679420761
-0.27569999999999995,-29.18549411621571
-0.27670000000000006,-29.14305277721976
-0.27769999999999995,-29.100611438223805
-0.27870000000000006,-29.001581647233255
-0.27969999999999995,-28.91669896924135
-0.28070000000000006,-28.789374952253496
-0.28169999999999995,-28.619609596269694
-0.28270000000000006,-28.478138466283188
-0.28369999999999995,-28.393255788291288
-0.28470000000000006,-28.308373110299385
-0.28569999999999995,-28.308373110299385
-0.28670000000000007,-28.265931771303435
-0.28769999999999996,-28.265931771303435
-0.28870000000000007,-28.22349043230748
-0.28969999999999996,-28.13860775431558
-0.29070000000000007,-28.05372507632368
-0.29169999999999996,-27.954695285333123
-0.29270000000000007,-27.827371268345274
-0.29369999999999996,-27.78492992934932
-0.2947000000000001,-27.78492992934932
-0.29569999999999996,-27.742488590353368
-0.2967000000000001,-27.78492992934932
-0.29769999999999996,-27.827371268345274
-0.2987000000000001,-27.827371268345274
-0.29969999999999997,-27.78492992934932
-0.3007000000000001,-27.742488590353368
-0.30169999999999997,-27.65760591236147
-0.3027000000000001,-27.615164573365515
-0.30369999999999997,-27.572723234369565
-0.3047000000000001,-27.615164573365515
-0.30569999999999997,-27.65760591236147
-0.3067000000000001,-27.700047251357418
-0.3077,-27.78492992934932
-0.3087000000000001,-27.827371268345274
-0.3097,-27.827371268345274
-0.3107000000000001,-27.78492992934932
-0.3117,-27.78492992934932
-0.3127000000000001,-27.742488590353368
-0.3137,-27.742488590353368
-0.3147000000000001,-27.827371268345274
-0.3157,-27.912253946337174
-0.3167000000000001,-28.011283737327723
-0.3177,-28.13860775431558
-0.3187000000000001,-28.22349043230748
-0.3197,-28.265931771303435
-0.3207000000000001,-28.265931771303435
-0.3217,-28.308373110299385
-0.3227000000000001,-28.308373110299385
-0.3237,-28.350814449295335
-0.3247000000000001,-28.478138466283188
-0.3257,-28.619609596269694
-0.3267000000000001,-28.746933613257543
-0.3277,-28.91669896924135
-0.3287000000000001,-29.058170099227848
-0.3297,-29.100611438223805
-0.3307000000000001,-29.18549411621571
-0.3317,-29.27037679420761
-0.3327000000000001,-29.31281813320356
-0.3337,-29.440142150191413
-0.3347000000000001,-29.62405461917387
-0.3357,-29.793819975157668
-0.3367000000000001,-30.04846800913338
-0.3377,-30.232380478115836
-0.3387000000000001,-30.444587173095588
-0.3397,-30.614352529079397
-0.3407000000000001,-30.71338232006995
-0.3417,-30.8407063370578
-0.3427000000000001,-30.968030354045652
-0.3437,-31.19438416202406
-0.3447000000000001,-31.449032195999767
-0.3457,-31.717827342974125
-0.3467000000000001,-31.972475376949827
-0.3477,-32.283711862920136
-0.3487000000000001,-32.53835989689585
-0.3497,-32.764713704874254
-0.3507000000000001,-32.97692039985401
-0.3517,-33.14668575583781
-0.3527000000000001,-33.373039563816214
-0.3537,-33.627687597791926
-0.3547000000000001,-34.02380676175414
-0.3557,-34.377484586720385
-0.35670000000000013,-34.75945663768395
-0.3577,-35.15557580164616
-0.35870000000000013,-35.55169496560837
-0.3597,-35.848784338580025
-0.36070000000000013,-36.16002082455034
-0.3617,-36.5136986495166
-0.3626999999999999,-36.8532293614842
-0.3637,-37.249348525446415
-0.3646999999999999,-37.687909028404576
-0.3657,-38.211352209354644
-0.3666999999999999,-38.734795390304704
-0.3677,-39.21579723225882
-0.3686999999999999,-39.739240413208876
-0.36970000000000003,-40.220242255162994
-0.3706999999999999,-40.701244097117105
-0.37170000000000003,-41.182245939071215
-0.3726999999999999,-41.66324778102533
-0.37370000000000003,-42.229132300971344
-0.3746999999999999,-42.79501682091736
-0.37570000000000003,-43.48822535785123
-0.3766999999999999,-44.181433894785094
-0.37770000000000004,-44.88878954471762
-0.3786999999999999,-45.53955674265553
-0.37970000000000004,-46.2327652795894
-0.3806999999999999,-46.88353247752732
-0.38170000000000004,-47.54844678846388
-0.38269999999999993,-48.1992139864018
-0.38370000000000004,-48.93486386233162
-0.38469999999999993,-49.76954352925199
-0.38570000000000004,-50.60422319617236
-0.38669999999999993,-49.81198486824794
-0.38570000000000004,-46.544001765559706
-0.38469999999999993,-43.84190318281749
-0.38370000000000004,-41.606659329030734
-0.38269999999999993,-39.654357735216976
-0.38170000000000004,-37.94255706238028
-0.3806999999999999,-36.4288159715247
-0.37970000000000004,-35.07069312365426
-0.3786999999999999,-33.89648274476628
-0.37770000000000004,-32.807155043870196
-0.3766999999999999,-31.84515135996197
-0.37570000000000003,-30.925589015049702
-0.3746999999999999,-30.00602667013743
-0.37370000000000003,-29.058170099227848
-0.3726999999999999,-28.13860775431558
-0.37170000000000003,-27.261486748399253
-0.3706999999999999,-26.38436574248293
-0.36970000000000003,-25.563833188561212
-0.3686999999999999,-24.771594860636792
-0.3677,-24.078386323702922
-0.3666999999999999,-23.385177786769056
-0.3657,-22.72026347583249
-0.3646999999999999,-22.027054938898623
-0.3637,-21.291405062968803
-0.3626999999999999,-20.541608074040333
-0.3617,-19.805958198110513
-0.36070000000000013,-19.056161209182044
-0.3597,-18.362952672248177
-0.35870000000000013,-17.71218547431026
-0.3577,-17.103859615368293
-0.35670000000000013,-16.53797509542228
-0.3557,-15.91550212348166
-0.3547000000000001,-15.307176264539699
-0.3537,-14.65640906660178
-0.3527000000000001,-13.960371107068182
-0.3517,-13.349215825526485
-0.3507000000000001,-12.651763154693022
-0.3497,-12.040607873151327
-0.3487000000000001,-11.517164692201263
-0.3477,-10.949865460955383
-0.3467000000000001,-10.42642228000532
-0.3457,-9.946835149351072
-0.3447000000000001,-9.379535918105192
-0.3437,-8.812236686859313
-0.3427000000000001,-8.202496116617484
-0.3417,-7.635196885371603
-0.3407000000000001,-7.024041603829907
-0.3397,-6.500598422879844
-0.3387000000000001,-6.021011292225596
-0.3377,-5.585280211867165
-0.3367000000000001,-5.149549131508733
-0.3357,-4.712403339850438
-0.3347000000000001,-4.276672259492005
-0.3337,-3.7532290785419424
-0.3327000000000001,-3.273641947887695
-0.3317,-2.794054817233447
-0.3307000000000001,-2.2706116362833835
-0.3297,-1.8334658446250875
-0.3287000000000001,-1.4415908145624723
-0.3277,-1.0490084288499246
-0.3267000000000001,-0.7001406223032067
-0.3257,-0.3511313446265021
-0.3247000000000001,0.04140859974704963
-0.3237,0.4776065348344364
-0.3227000000000001,0.870188920546984
-0.3217,1.3063444142953748
-0.3207000000000001,1.7429243214337253
-0.3197,2.0909433012005243
-0.3187000000000001,2.4403769922671885
-0.3177,2.745954633038036
-0.3167000000000001,3.0076762235130676
-0.3157,3.2693978139880997
-0.3147000000000001,3.5749754547589476
-0.3137,3.922994434525747
-0.3127000000000001,4.272428125592412
-0.3117,4.664303155655026
-0.3107000000000001,5.01373684672169
-0.3097,5.319314487492538
-0.3087000000000001,5.537180027671754
-0.3077,5.798901618146785
-0.3067000000000001,6.016767158326001
-0.30569999999999997,6.1907766482094
-0.3047000000000001,6.452498238684432
-0.30369999999999997,6.714219829159464
-0.3027000000000001,7.063653520226129
-0.30169999999999997,7.32537511070116
-0.3007000000000001,7.630952751472008
-0.29969999999999997,7.892674341947039
-0.2987000000000001,8.066683831830439
-0.29769999999999996,8.242108033013702
-0.2967000000000001,8.416117522897103
-0.29569999999999996,8.546270962484687
-0.2947000000000001,8.72169516366795
-0.29369999999999996,8.983416754142983
-0.29270000000000007,9.245138344618015
-0.29169999999999996,9.506859935093045
-0.29070000000000007,9.724725475272262
-0.28969999999999996,9.898734965155663
-0.28870000000000007,10.07274445503906
-0.28769999999999996,10.20431260592651
-0.28670000000000007,10.334466045514093
-0.28569999999999995,10.422178146105725
-0.28470000000000006,10.553746296993173
-0.28369999999999995,10.771611837172388
-0.28270000000000006,10.989477377351605
-0.28169999999999995,11.20734291753082
-0.28070000000000006,11.38135240741422
-0.27969999999999995,11.556776608597485
-0.27870000000000006,11.686930048185067
-0.27769999999999995,11.774642148776701
-0.27670000000000006,11.862354249368334
-0.27569999999999995,11.9486516386601
-0.27470000000000006,12.080219789547549
-0.27369999999999994,12.210373229135131
-0.27270000000000005,12.384382719018532
-0.27169999999999994,12.559806920201796
-0.27070000000000005,12.77767246038101
-0.26969999999999994,12.865384560972643
-0.26870000000000005,12.95168195026441
-0.26769999999999994,12.995538000560227
-0.26670000000000005,13.08325010115186
-0.26569999999999994,13.127106151447675
-0.26470000000000005,13.213403540739444
-0.26369999999999993,13.301115641331073
