Apr. 23, 2025   07:33:30
Cyclic Voltammetry
File: c:/users/guazh/data/banditlqround7_x0exp590_r20/2025-04-16-exp1164\exp1164-2025-04-23t07_26_37-arkoh\exp1164_cv_sr_400mvs_efin_-1400mv.bin
Data Source:  Experiment
Instrument Model:  CHI760E
Header: CV ran at 400 mVs
Note: 

Init E (V) = -1
High E (V) = -1
Low E (V) = -1.4
Final E (V) = -1
Init P/N = N
Scan Rate (V/s) = 0.4
Segment = 3
Sample Interval (V) = 0.001
Quiet Time (sec) = 2
Sensitivity (A/V) = 0.01
Comp R (ohm) = 1.2

Results:

Channel 1:
Segment 1:

Segment 2:

Segment 3:

Potential/V, Current/A

-1.000, -1.170e-4
-1.001, 3.099e-5
-1.002, 1.636e-4
-1.003, 2.869e-4
-1.004, 4.040e-4
-1.005, 5.058e-4
-1.006, 5.952e-4
-1.007, 6.784e-4
-1.008, 7.617e-4
-1.009, 8.480e-4
-1.010, 9.343e-4
-1.011, 1.011e-3
-1.012, 1.079e-3
-1.013, 1.138e-3
-1.014, 1.199e-3
-1.015, 1.261e-3
-1.016, 1.326e-3
-1.017, 1.391e-3
-1.018, 1.449e-3
-1.019, 1.499e-3
-1.020, 1.545e-3
-1.021, 1.594e-3
-1.022, 1.647e-3
-1.023, 1.702e-3
-1.024, 1.754e-3
-1.025, 1.801e-3
-1.026, 1.841e-3
-1.027, 1.878e-3
-1.028, 1.921e-3
-1.029, 1.970e-3
-1.030, 2.020e-3
-1.031, 2.063e-3
-1.032, 2.103e-3
-1.033, 2.137e-3
-1.034, 2.174e-3
-1.035, 2.214e-3
-1.036, 2.260e-3
-1.037, 2.303e-3
-1.038, 2.346e-3
-1.039, 2.380e-3
-1.040, 2.414e-3
-1.041, 2.445e-3
-1.042, 2.488e-3
-1.043, 2.528e-3
-1.044, 2.571e-3
-1.045, 2.605e-3
-1.046, 2.639e-3
-1.047, 2.667e-3
-1.048, 2.701e-3
-1.049, 2.741e-3
-1.050, 2.784e-3
-1.051, 2.821e-3
-1.052, 2.852e-3
-1.053, 2.880e-3
-1.054, 2.911e-3
-1.055, 2.945e-3
-1.056, 2.982e-3
-1.057, 3.025e-3
-1.058, 3.056e-3
-1.059, 3.086e-3
-1.060, 3.114e-3
-1.061, 3.142e-3
-1.062, 3.179e-3
-1.063, 3.219e-3
-1.064, 3.256e-3
-1.065, 3.287e-3
-1.066, 3.311e-3
-1.067, 3.336e-3
-1.068, 3.364e-3
-1.069, 3.398e-3
-1.070, 3.435e-3
-1.071, 3.466e-3
-1.072, 3.493e-3
-1.073, 3.515e-3
-1.074, 3.536e-3
-1.075, 3.564e-3
-1.076, 3.601e-3
-1.077, 3.632e-3
-1.078, 3.657e-3
-1.079, 3.678e-3
-1.080, 3.697e-3
-1.081, 3.718e-3
-1.082, 3.746e-3
-1.083, 3.774e-3
-1.084, 3.802e-3
-1.085, 3.823e-3
-1.086, 3.839e-3
-1.087, 3.851e-3
-1.088, 3.869e-3
-1.089, 3.897e-3
-1.090, 3.919e-3
-1.091, 3.940e-3
-1.092, 3.956e-3
-1.093, 3.962e-3
-1.094, 3.974e-3
-1.095, 3.990e-3
-1.096, 4.011e-3
-1.097, 4.033e-3
-1.098, 4.045e-3
-1.099, 4.054e-3
-1.100, 4.061e-3
-1.101, 4.070e-3
-1.102, 4.085e-3
-1.103, 4.101e-3
-1.104, 4.110e-3
-1.105, 4.116e-3
-1.106, 4.119e-3
-1.107, 4.122e-3
-1.108, 4.128e-3
-1.109, 4.138e-3
-1.110, 4.147e-3
-1.111, 4.153e-3
-1.112, 4.150e-3
-1.113, 4.147e-3
-1.114, 4.144e-3
-1.115, 4.147e-3
-1.116, 4.150e-3
-1.117, 4.153e-3
-1.118, 4.150e-3
-1.119, 4.141e-3
-1.120, 4.128e-3
-1.121, 4.122e-3
-1.122, 4.116e-3
-1.123, 4.116e-3
-1.124, 4.110e-3
-1.125, 4.101e-3
-1.126, 4.082e-3
-1.127, 4.064e-3
-1.128, 4.048e-3
-1.129, 4.042e-3
-1.130, 4.030e-3
-1.131, 4.017e-3
-1.132, 3.999e-3
-1.133, 3.974e-3
-1.134, 3.950e-3
-1.135, 3.928e-3
-1.136, 3.913e-3
-1.137, 3.897e-3
-1.138, 3.876e-3
-1.139, 3.851e-3
-1.140, 3.820e-3
-1.141, 3.792e-3
-1.142, 3.774e-3
-1.143, 3.755e-3
-1.144, 3.734e-3
-1.145, 3.706e-3
-1.146, 3.675e-3
-1.147, 3.638e-3
-1.148, 3.610e-3
-1.149, 3.589e-3
-1.150, 3.564e-3
-1.151, 3.540e-3
-1.152, 3.506e-3
-1.153, 3.469e-3
-1.154, 3.432e-3
-1.155, 3.401e-3
-1.156, 3.373e-3
-1.157, 3.345e-3
-1.158, 3.314e-3
-1.159, 3.278e-3
-1.160, 3.237e-3
-1.161, 3.200e-3
-1.162, 3.170e-3
-1.163, 3.139e-3
-1.164, 3.111e-3
-1.165, 3.071e-3
-1.166, 3.034e-3
-1.167, 2.994e-3
-1.168, 2.960e-3
-1.169, 2.932e-3
-1.170, 2.908e-3
-1.171, 2.877e-3
-1.172, 2.840e-3
-1.173, 2.803e-3
-1.174, 2.769e-3
-1.175, 2.738e-3
-1.176, 2.713e-3
-1.177, 2.692e-3
-1.178, 2.664e-3
-1.179, 2.630e-3
-1.180, 2.596e-3
-1.181, 2.562e-3
-1.182, 2.538e-3
-1.183, 2.519e-3
-1.184, 2.494e-3
-1.185, 2.467e-3
-1.186, 2.433e-3
-1.187, 2.402e-3
-1.188, 2.374e-3
-1.189, 2.356e-3
-1.190, 2.337e-3
-1.191, 2.316e-3
-1.192, 2.291e-3
-1.193, 2.260e-3
-1.194, 2.232e-3
-1.195, 2.214e-3
-1.196, 2.198e-3
-1.197, 2.183e-3
-1.198, 2.164e-3
-1.199, 2.140e-3
-1.200, 2.112e-3
-1.201, 2.091e-3
-1.202, 2.075e-3
-1.203, 2.066e-3
-1.204, 2.050e-3
-1.205, 2.029e-3
-1.206, 2.007e-3
-1.207, 1.983e-3
-1.208, 1.964e-3
-1.209, 1.952e-3
-1.210, 1.946e-3
-1.211, 1.930e-3
-1.212, 1.912e-3
-1.213, 1.890e-3
-1.214, 1.872e-3
-1.215, 1.859e-3
-1.216, 1.850e-3
-1.217, 1.841e-3
-1.218, 1.828e-3
-1.219, 1.810e-3
-1.220, 1.791e-3
-1.221, 1.776e-3
-1.222, 1.770e-3
-1.223, 1.764e-3
-1.224, 1.754e-3
-1.225, 1.742e-3
-1.226, 1.724e-3
-1.227, 1.708e-3
-1.228, 1.696e-3
-1.229, 1.696e-3
-1.230, 1.690e-3
-1.231, 1.680e-3
-1.232, 1.665e-3
-1.233, 1.647e-3
-1.234, 1.634e-3
-1.235, 1.625e-3
-1.236, 1.622e-3
-1.237, 1.619e-3
-1.238, 1.610e-3
-1.239, 1.594e-3
-1.240, 1.579e-3
-1.241, 1.569e-3
-1.242, 1.566e-3
-1.243, 1.563e-3
-1.244, 1.557e-3
-1.245, 1.548e-3
-1.246, 1.532e-3
-1.247, 1.523e-3
-1.248, 1.511e-3
-1.249, 1.511e-3
-1.250, 1.511e-3
-1.251, 1.505e-3
-1.252, 1.495e-3
-1.253, 1.480e-3
-1.254, 1.471e-3
-1.255, 1.465e-3
-1.256, 1.465e-3
-1.257, 1.462e-3
-1.258, 1.455e-3
-1.259, 1.443e-3
-1.260, 1.431e-3
-1.261, 1.425e-3
-1.262, 1.425e-3
-1.263, 1.425e-3
-1.264, 1.421e-3
-1.265, 1.412e-3
-1.266, 1.403e-3
-1.267, 1.394e-3
-1.268, 1.388e-3
-1.269, 1.388e-3
-1.270, 1.388e-3
-1.271, 1.384e-3
-1.272, 1.378e-3
-1.273, 1.369e-3
-1.274, 1.360e-3
-1.275, 1.357e-3
-1.276, 1.360e-3
-1.277, 1.360e-3
-1.278, 1.357e-3
-1.279, 1.347e-3
-1.280, 1.338e-3
-1.281, 1.335e-3
-1.282, 1.335e-3
-1.283, 1.338e-3
-1.284, 1.341e-3
-1.285, 1.335e-3
-1.286, 1.326e-3
-1.287, 1.320e-3
-1.288, 1.317e-3
-1.289, 1.323e-3
-1.290, 1.326e-3
-1.291, 1.326e-3
-1.292, 1.323e-3
-1.293, 1.314e-3
-1.294, 1.310e-3
-1.295, 1.314e-3
-1.296, 1.317e-3
-1.297, 1.323e-3
-1.298, 1.320e-3
-1.299, 1.317e-3
-1.300, 1.310e-3
-1.301, 1.307e-3
-1.302, 1.314e-3
-1.303, 1.320e-3
-1.304, 1.323e-3
-1.305, 1.323e-3
-1.306, 1.320e-3
-1.307, 1.317e-3
-1.308, 1.317e-3
-1.309, 1.323e-3
-1.310, 1.332e-3
-1.311, 1.335e-3
-1.312, 1.335e-3
-1.313, 1.329e-3
-1.314, 1.329e-3
-1.315, 1.335e-3
-1.316, 1.344e-3
-1.317, 1.354e-3
-1.318, 1.357e-3
-1.319, 1.357e-3
-1.320, 1.354e-3
-1.321, 1.360e-3
-1.322, 1.366e-3
-1.323, 1.378e-3
-1.324, 1.388e-3
-1.325, 1.391e-3
-1.326, 1.391e-3
-1.327, 1.391e-3
-1.328, 1.397e-3
-1.329, 1.409e-3
-1.330, 1.425e-3
-1.331, 1.434e-3
-1.332, 1.437e-3
-1.333, 1.437e-3
-1.334, 1.443e-3
-1.335, 1.455e-3
-1.336, 1.468e-3
-1.337, 1.483e-3
-1.338, 1.492e-3
-1.339, 1.499e-3
-1.340, 1.502e-3
-1.341, 1.511e-3
-1.342, 1.529e-3
-1.343, 1.548e-3
-1.344, 1.563e-3
-1.345, 1.576e-3
-1.346, 1.579e-3
-1.347, 1.591e-3
-1.348, 1.606e-3
-1.349, 1.625e-3
-1.350, 1.650e-3
-1.351, 1.668e-3
-1.352, 1.680e-3
-1.353, 1.693e-3
-1.354, 1.705e-3
-1.355, 1.727e-3
-1.356, 1.754e-3
-1.357, 1.779e-3
-1.358, 1.798e-3
-1.359, 1.813e-3
-1.360, 1.832e-3
-1.361, 1.853e-3
-1.362, 1.881e-3
-1.363, 1.912e-3
-1.364, 1.943e-3
-1.365, 1.967e-3
-1.366, 1.989e-3
-1.367, 2.010e-3
-1.368, 2.041e-3
-1.369, 2.078e-3
-1.370, 2.115e-3
-1.371, 2.149e-3
-1.372, 2.180e-3
-1.373, 2.208e-3
-1.374, 2.238e-3
-1.375, 2.279e-3
-1.376, 2.325e-3
-1.377, 2.368e-3
-1.378, 2.411e-3
-1.379, 2.448e-3
-1.380, 2.485e-3
-1.381, 2.531e-3
-1.382, 2.584e-3
-1.383, 2.636e-3
-1.384, 2.689e-3
-1.385, 2.741e-3
-1.386, 2.787e-3
-1.387, 2.837e-3
-1.388, 2.892e-3
-1.389, 2.957e-3
-1.390, 3.022e-3
-1.391, 3.086e-3
-1.392, 3.145e-3
-1.393, 3.207e-3
-1.394, 3.268e-3
-1.395, 3.339e-3
-1.396, 3.419e-3
-1.397, 3.496e-3
-1.398, 3.570e-3
-1.399, 3.641e-3
-1.400, 3.604e-3
-1.399, 3.413e-3
-1.398, 3.274e-3
-1.397, 3.173e-3
-1.396, 3.083e-3
-1.395, 3.003e-3
-1.394, 2.929e-3
-1.393, 2.858e-3
-1.392, 2.800e-3
-1.391, 2.750e-3
-1.390, 2.701e-3
-1.389, 2.652e-3
-1.388, 2.593e-3
-1.387, 2.538e-3
-1.386, 2.482e-3
-1.385, 2.433e-3
-1.384, 2.390e-3
-1.383, 2.340e-3
-1.382, 2.291e-3
-1.381, 2.235e-3
-1.380, 2.180e-3
-1.379, 2.131e-3
-1.378, 2.087e-3
-1.377, 2.044e-3
-1.376, 1.998e-3
-1.375, 1.949e-3
-1.374, 1.896e-3
-1.373, 1.844e-3
-1.372, 1.798e-3
-1.371, 1.758e-3
-1.370, 1.717e-3
-1.369, 1.671e-3
-1.368, 1.622e-3
-1.367, 1.573e-3
-1.366, 1.523e-3
-1.365, 1.480e-3
-1.364, 1.443e-3
-1.363, 1.403e-3
-1.362, 1.360e-3
-1.361, 1.310e-3
-1.360, 1.264e-3
-1.359, 1.221e-3
-1.358, 1.187e-3
-1.357, 1.153e-3
-1.356, 1.113e-3
-1.355, 1.070e-3
-1.354, 1.027e-3
-1.353, 9.837e-4
-1.352, 9.467e-4
-1.351, 9.128e-4
-1.350, 8.819e-4
-1.349, 8.480e-4
-1.348, 8.048e-4
-1.347, 7.648e-4
-1.346, 7.278e-4
-1.345, 6.969e-4
-1.344, 6.692e-4
-1.343, 6.384e-4
-1.342, 6.044e-4
-1.341, 5.674e-4
-1.340, 5.305e-4
-1.339, 4.996e-4
-1.338, 4.719e-4
-1.337, 4.472e-4
-1.336, 4.225e-4
-1.335, 3.886e-4
-1.334, 3.547e-4
-1.333, 3.239e-4
-1.332, 2.961e-4
-1.331, 2.746e-4
-1.330, 2.530e-4
-1.329, 2.283e-4
-1.328, 2.006e-4
-1.327, 1.666e-4
-1.326, 1.420e-4
-1.325, 1.235e-4
-1.324, 1.050e-4
-1.323, 8.340e-5
-1.322, 6.182e-5
-1.321, 3.715e-5
-1.320, 9.405e-6
-1.319, -1.526e-5
-1.318, -3.068e-5
-1.317, -4.301e-5
-1.316, -6.151e-5
-1.315, -8.309e-5
-1.314, -1.078e-4
-1.313, -1.293e-4
-1.312, -1.478e-4
-1.311, -1.571e-4
-1.310, -1.694e-4
-1.309, -1.848e-4
-1.308, -2.033e-4
-1.307, -2.280e-4
-1.306, -2.434e-4
-1.305, -2.588e-4
-1.304, -2.650e-4
-1.303, -2.773e-4
-1.302, -2.897e-4
-1.301, -3.112e-4
-1.300, -3.297e-4
-1.299, -3.421e-4
-1.298, -3.513e-4
-1.297, -3.575e-4
-1.296, -3.637e-4
-1.295, -3.791e-4
-1.294, -3.976e-4
-1.293, -4.099e-4
-1.292, -4.222e-4
-1.291, -4.253e-4
-1.290, -4.315e-4
-1.289, -4.376e-4
-1.288, -4.531e-4
-1.287, -4.716e-4
-1.286, -4.808e-4
-1.285, -4.870e-4
-1.284, -4.901e-4
-1.283, -4.931e-4
-1.282, -5.024e-4
-1.281, -5.178e-4
-1.280, -5.332e-4
-1.279, -5.425e-4
-1.278, -5.456e-4
-1.277, -5.425e-4
-1.276, -5.486e-4
-1.275, -5.579e-4
-1.274, -5.702e-4
-1.273, -5.826e-4
-1.272, -5.856e-4
-1.271, -5.887e-4
-1.270, -5.887e-4
-1.269, -5.949e-4
-1.268, -6.041e-4
-1.267, -6.165e-4
-1.266, -6.257e-4
-1.265, -6.257e-4
-1.264, -6.257e-4
-1.263, -6.257e-4
-1.262, -6.319e-4
-1.261, -6.442e-4
-1.260, -6.535e-4
-1.259, -6.596e-4
-1.258, -6.596e-4
-1.257, -6.596e-4
-1.256, -6.596e-4
-1.255, -6.689e-4
-1.254, -6.781e-4
-1.253, -6.874e-4
-1.252, -6.905e-4
-1.251, -6.905e-4
-1.250, -6.874e-4
-1.249, -6.905e-4
-1.248, -6.966e-4
-1.247, -7.090e-4
-1.246, -7.151e-4
-1.245, -7.151e-4
-1.244, -7.120e-4
-1.243, -7.120e-4
-1.242, -7.182e-4
-1.241, -7.275e-4
-1.240, -7.367e-4
-1.239, -7.398e-4
-1.238, -7.398e-4
-1.237, -7.367e-4
-1.236, -7.367e-4
-1.235, -7.429e-4
-1.234, -7.521e-4
-1.233, -7.614e-4
-1.232, -7.614e-4
-1.231, -7.614e-4
-1.230, -7.583e-4
-1.229, -7.645e-4
-1.228, -7.737e-4
-1.227, -7.830e-4
-1.226, -7.860e-4
-1.225, -7.860e-4
-1.224, -7.830e-4
-1.223, -7.830e-4
-1.222, -7.860e-4
-1.221, -7.922e-4
-1.220, -8.045e-4
-1.219, -8.076e-4
-1.218, -8.045e-4
-1.217, -8.015e-4
-1.216, -8.015e-4
-1.215, -8.076e-4
-1.214, -8.169e-4
-1.213, -8.230e-4
-1.212, -8.261e-4
-1.211, -8.230e-4
-1.210, -8.200e-4
-1.209, -8.230e-4
-1.208, -8.323e-4
-1.207, -8.415e-4
-1.206, -8.477e-4
-1.205, -8.446e-4
-1.204, -8.415e-4
-1.203, -8.415e-4
-1.202, -8.446e-4
-1.201, -8.539e-4
-1.200, -8.600e-4
-1.199, -8.662e-4
-1.198, -8.662e-4
-1.197, -8.631e-4
-1.196, -8.631e-4
-1.195, -8.693e-4
-1.194, -8.785e-4
-1.193, -8.878e-4
-1.192, -8.909e-4
-1.191, -8.909e-4
-1.190, -8.878e-4
-1.189, -8.909e-4
-1.188, -9.001e-4
-1.187, -9.094e-4
-1.186, -9.155e-4
-1.185, -9.155e-4
-1.184, -9.124e-4
-1.183, -9.124e-4
-1.182, -9.186e-4
-1.181, -9.248e-4
-1.180, -9.371e-4
-1.179, -9.402e-4
-1.178, -9.402e-4
-1.177, -9.371e-4
-1.176, -9.402e-4
-1.175, -9.464e-4
-1.174, -9.556e-4
-1.173, -9.649e-4
-1.172, -9.679e-4
-1.171, -9.679e-4
-1.170, -9.649e-4
-1.169, -9.710e-4
-1.168, -9.772e-4
-1.167, -9.864e-4
-1.166, -9.957e-4
-1.165, -9.988e-4
-1.164, -9.957e-4
-1.163, -9.957e-4
-1.162, -1.002e-3
-1.161, -1.011e-3
-1.160, -1.023e-3
-1.159, -1.030e-3
-1.158, -1.027e-3
-1.157, -1.027e-3
-1.156, -1.027e-3
-1.155, -1.033e-3
-1.154, -1.045e-3
-1.153, -1.054e-3
-1.152, -1.060e-3
-1.151, -1.060e-3
-1.150, -1.057e-3
-1.149, -1.060e-3
-1.148, -1.073e-3
-1.147, -1.082e-3
-1.146, -1.094e-3
-1.145, -1.097e-3
-1.144, -1.094e-3
-1.143, -1.094e-3
-1.142, -1.104e-3
-1.141, -1.113e-3
-1.140, -1.128e-3
-1.139, -1.134e-3
-1.138, -1.134e-3
-1.137, -1.134e-3
-1.136, -1.138e-3
-1.135, -1.147e-3
-1.134, -1.159e-3
-1.133, -1.168e-3
-1.132, -1.175e-3
-1.131, -1.175e-3
-1.130, -1.175e-3
-1.129, -1.181e-3
-1.128, -1.193e-3
-1.127, -1.205e-3
-1.126, -1.215e-3
-1.125, -1.218e-3
-1.124, -1.221e-3
-1.123, -1.224e-3
-1.122, -1.230e-3
-1.121, -1.242e-3
-1.120, -1.255e-3
-1.119, -1.264e-3
-1.118, -1.267e-3
-1.117, -1.267e-3
-1.116, -1.273e-3
-1.115, -1.282e-3
-1.114, -1.295e-3
-1.113, -1.307e-3
-1.112, -1.313e-3
-1.111, -1.313e-3
-1.110, -1.316e-3
-1.109, -1.322e-3
-1.108, -1.335e-3
-1.107, -1.350e-3
-1.106, -1.363e-3
-1.105, -1.366e-3
-1.104, -1.369e-3
-1.103, -1.372e-3
-1.102, -1.381e-3
-1.101, -1.396e-3
-1.100, -1.412e-3
-1.099, -1.421e-3
-1.098, -1.421e-3
-1.097, -1.424e-3
-1.096, -1.430e-3
-1.095, -1.443e-3
-1.094, -1.461e-3
-1.093, -1.474e-3
-1.092, -1.486e-3
-1.091, -1.489e-3
-1.090, -1.492e-3
-1.089, -1.501e-3
-1.088, -1.517e-3
-1.087, -1.535e-3
-1.086, -1.551e-3
-1.085, -1.557e-3
-1.084, -1.560e-3
-1.083, -1.566e-3
-1.082, -1.578e-3
-1.081, -1.597e-3
-1.080, -1.612e-3
-1.079, -1.625e-3
-1.078, -1.631e-3
-1.077, -1.637e-3
-1.076, -1.646e-3
-1.075, -1.665e-3
-1.074, -1.683e-3
-1.073, -1.702e-3
-1.072, -1.714e-3
-1.071, -1.720e-3
-1.070, -1.729e-3
-1.069, -1.742e-3
-1.068, -1.760e-3
-1.067, -1.779e-3
-1.066, -1.797e-3
-1.065, -1.807e-3
-1.064, -1.813e-3
-1.063, -1.825e-3
-1.062, -1.840e-3
-1.061, -1.862e-3
-1.060, -1.884e-3
-1.059, -1.899e-3
-1.058, -1.911e-3
-1.057, -1.921e-3
-1.056, -1.933e-3
-1.055, -1.955e-3
-1.054, -1.979e-3
-1.053, -1.998e-3
-1.052, -2.016e-3
-1.051, -2.029e-3
-1.050, -2.041e-3
-1.049, -2.059e-3
-1.048, -2.081e-3
-1.047, -2.109e-3
-1.046, -2.130e-3
-1.045, -2.146e-3
-1.044, -2.161e-3
-1.043, -2.177e-3
-1.042, -2.198e-3
-1.041, -2.226e-3
-1.040, -2.254e-3
-1.039, -2.275e-3
-1.038, -2.294e-3
-1.037, -2.309e-3
-1.036, -2.328e-3
-1.035, -2.352e-3
-1.034, -2.383e-3
-1.033, -2.414e-3
-1.032, -2.436e-3
-1.031, -2.451e-3
-1.030, -2.469e-3
-1.029, -2.494e-3
-1.028, -2.525e-3
-1.027, -2.556e-3
-1.026, -2.583e-3
-1.025, -2.611e-3
-1.024, -2.630e-3
-1.023, -2.654e-3
-1.022, -2.685e-3
-1.021, -2.719e-3
-1.020, -2.756e-3
-1.019, -2.787e-3
-1.018, -2.812e-3
-1.017, -2.836e-3
-1.016, -2.867e-3
-1.015, -2.898e-3
-1.014, -2.938e-3
-1.013, -2.975e-3
-1.012, -3.006e-3
-1.011, -3.031e-3
-1.010, -3.058e-3
-1.009, -3.092e-3
-1.008, -3.132e-3
-1.007, -3.175e-3
-1.006, -3.212e-3
-1.005, -3.246e-3
-1.004, -3.280e-3
-1.003, -3.314e-3
-1.002, -3.357e-3
-1.001, -3.401e-3
