Potential V vs RHE, Current mA cm-2
0.013299999999999867,0.04140859974704963
0.012299999999999978,-1.0490084288499246
0.011299999999999866,-1.7033124050375041
0.010299999999999976,-2.052746096104168
0.009299999999999864,-2.3144676865791998
0.008299999999999974,-2.576189277054232
0.007299999999999862,-2.8803522065252145
0.006299999999999972,-3.0996324580042955
0.00529999999999986,-3.2297858975918787
0.0042999999999999705,-3.361354048479327
0.0032999999999998586,-3.4915074880669104
0.0022999999999999687,-3.7093730282461257
0.0012999999999998568,-3.884797229429391
0.00029999999999996696,-3.971094618721158
-0.000700000000000145,-4.014950669016974
-0.0017000000000000348,-4.146518819904423
-0.0027000000000001467,-4.3205283097878215
-0.0037000000000000366,-4.450681749375406
-0.0047000000000001485,-4.538393849967037
-0.005700000000000038,-4.582249900262854
-0.00670000000000015,-4.712403339850438
-0.00770000000000004,-4.800115440442069
-0.008700000000000152,-4.974124930325469
-0.009700000000000042,-5.017980980621284
-0.010700000000000154,-5.0618370309171015
-0.011700000000000044,-5.191990470504685
-0.012700000000000156,-5.323558621392133
-0.013700000000000045,-5.453712060979717
-0.014700000000000157,-5.497568111275533
-0.015700000000000047,-5.497568111275533
-0.01670000000000016,-5.629136262162981
-0.01770000000000005,-5.759289701750564
-0.01870000000000016,-5.847001802342197
-0.01970000000000005,-5.890857852638012
-0.020700000000000163,-5.9347139029338285
-0.021700000000000053,-6.021011292225596
-0.022700000000000164,-6.196435493408861
-0.023700000000000054,-6.326588932996443
-0.024700000000000166,-6.414301033588076
-0.025700000000000056,-6.500598422879844
-0.026700000000000168,-6.54445447317566
-0.027700000000000058,-6.719878674358924
-0.02870000000000017,-6.850032113946507
-0.02970000000000006,-6.893888164242324
-0.03070000000000017,-6.893888164242324
-0.03170000000000006,-6.93774421453814
-0.03270000000000017,-7.111753704421539
-0.03370000000000006,-7.243321855308987
-0.034700000000000175,-7.28576319430494
-0.035700000000000065,-7.37347529489657
-0.03670000000000018,-7.461187395488204
-0.03770000000000007,-7.591340835075788
-0.03870000000000018,-7.722908985963235
-0.03970000000000007,-7.7653503249591855
-0.04070000000000018,-7.809206375255003
-0.04170000000000007,-7.853062425550818
-0.04270000000000018,-8.027071915434218
-0.04370000000000007,-8.11478401602585
-0.044700000000000184,-8.158640066321666
-0.045700000000000074,-8.158640066321666
-0.046700000000000186,-8.246352166913299
-0.047700000000000076,-8.376505606500881
-0.04870000000000019,-8.464217707092514
-0.04970000000000008,-8.508073757388331
-0.05070000000000019,-8.55051509638428
-0.05170000000000008,-8.638227196975913
-0.05270000000000019,-8.769795347863363
-0.05370000000000008,-8.85609273715513
-0.05470000000000019,-8.85609273715513
-0.05570000000000008,-8.85609273715513
-0.056700000000000195,-8.899948787450944
-0.057700000000000085,-9.031516938338395
-0.058700000000000196,-9.11781432763016
-0.059700000000000086,-9.11781432763016
-0.0607000000000002,-9.11781432763016
-0.06170000000000009,-9.161670377925978
-0.0627000000000002,-9.293238528813426
-0.06370000000000009,-9.379535918105192
-0.0647000000000002,-9.379535918105192
-0.06570000000000009,-9.379535918105192
-0.0667000000000002,-9.379535918105192
-0.0677000000000001,-9.467248018696827
-0.0687000000000002,-9.511104068992642
-0.0697000000000001,-9.511104068992642
-0.07070000000000021,-9.467248018696827
-0.0717000000000001,-9.467248018696827
-0.07270000000000021,-9.59740145828441
-0.0737000000000001,-9.641257508580225
-0.07470000000000021,-9.641257508580225
-0.0757000000000001,-9.55496011928846
-0.07670000000000021,-9.59740145828441
-0.0777000000000001,-9.641257508580225
-0.07870000000000021,-9.685113558876042
-0.0797000000000001,-9.59740145828441
-0.08070000000000022,-9.55496011928846
-0.0817000000000001,-9.55496011928846
-0.08270000000000022,-9.55496011928846
-0.08370000000000011,-9.641257508580225
-0.08470000000000022,-9.55496011928846
-0.08570000000000011,-9.467248018696827
-0.08670000000000022,-9.467248018696827
-0.08770000000000011,-9.55496011928846
-0.08870000000000022,-9.55496011928846
-0.08970000000000011,-9.511104068992642
-0.09070000000000022,-9.379535918105192
-0.09170000000000011,-9.379535918105192
-0.09270000000000023,-9.379535918105192
-0.09370000000000012,-9.379535918105192
-0.09470000000000023,-9.293238528813426
-0.09570000000000012,-9.205526428221793
-0.09670000000000023,-9.161670377925978
-0.09770000000000012,-9.205526428221793
-0.09870000000000023,-9.24938247851761
-0.09970000000000012,-9.161670377925978
-0.10070000000000023,-9.073958277334345
-0.10170000000000012,-9.031516938338395
-0.10270000000000024,-9.073958277334345
-0.10370000000000013,-9.031516938338395
-0.10470000000000024,-8.943804837746763
-0.10570000000000013,-8.812236686859313
-0.10670000000000024,-8.769795347863363
-0.10770000000000013,-8.812236686859313
-0.10870000000000024,-8.769795347863363
-0.10970000000000013,-8.725939297567548
-0.11070000000000024,-8.638227196975913
-0.11170000000000013,-8.594371146680096
-0.11270000000000002,-8.638227196975913
-0.11370000000000013,-8.638227196975913
-0.11470000000000002,-8.55051509638428
-0.11570000000000014,-8.4203616567967
-0.11670000000000003,-8.376505606500881
-0.11770000000000014,-8.376505606500881
-0.11870000000000003,-8.4203616567967
-0.11970000000000014,-8.332649556205066
-0.12070000000000003,-8.246352166913299
-0.12170000000000014,-8.202496116617484
-0.12270000000000003,-8.202496116617484
-0.12370000000000014,-8.202496116617484
-0.12470000000000003,-8.11478401602585
-0.12570000000000014,-7.984630576438266
-0.12670000000000003,-7.940774526142452
-0.12770000000000015,-7.940774526142452
-0.12870000000000004,-7.940774526142452
-0.12970000000000015,-7.853062425550818
-0.13070000000000004,-7.809206375255003
-0.13170000000000015,-7.7653503249591855
-0.13270000000000004,-7.809206375255003
-0.13370000000000015,-7.809206375255003
-0.13470000000000004,-7.7653503249591855
-0.13570000000000015,-7.635196885371603
-0.13670000000000004,-7.591340835075788
-0.13770000000000016,-7.635196885371603
-0.13870000000000005,-7.591340835075788
-0.13970000000000016,-7.50504344578402
-0.14070000000000005,-7.4173313451923875
-0.14170000000000016,-7.37347529489657
-0.14270000000000005,-7.461187395488204
-0.14370000000000016,-7.461187395488204
-0.14470000000000005,-7.37347529489657
-0.14570000000000016,-7.243321855308987
-0.14670000000000005,-7.111753704421539
-0.14770000000000016,-7.199465805013171
-0.14870000000000005,-7.28576319430494
-0.14970000000000017,-7.28576319430494
-0.15070000000000006,-7.243321855308987
-0.15170000000000017,-7.199465805013171
-0.15270000000000006,-7.199465805013171
-0.15370000000000017,-7.155609754717355
-0.15470000000000006,-7.024041603829907
-0.15570000000000017,-6.893888164242324
-0.15670000000000006,-6.806176063650692
-0.15770000000000017,-6.806176063650692
-0.15870000000000006,-6.762320013354876
-0.15970000000000018,-6.806176063650692
-0.16070000000000007,-6.93774421453814
-0.16170000000000018,-7.024041603829907
-0.16270000000000007,-7.067897654125724
-0.16370000000000018,-7.067897654125724
-0.16470000000000007,-6.93774421453814
-0.16570000000000018,-6.806176063650692
-0.16670000000000007,-6.719878674358924
-0.16770000000000018,-6.6760226240631075
-0.16870000000000007,-6.588310523471475
-0.16970000000000018,-6.458157083883892
-0.17070000000000007,-6.37044498329226
-0.17170000000000019,-6.414301033588076
-0.17270000000000008,-6.588310523471475
-0.1737000000000002,-6.719878674358924
-0.17470000000000008,-6.719878674358924
-0.1757000000000002,-6.632166573767292
-0.17670000000000008,-6.588310523471475
-0.1777000000000002,-6.588310523471475
-0.17870000000000008,-6.54445447317566
-0.1797000000000002,-6.458157083883892
-0.18070000000000008,-6.282732882700628
-0.1817000000000002,-6.282732882700628
-0.18270000000000008,-6.326588932996443
-0.1837000000000002,-6.37044498329226
-0.1847000000000001,-6.326588932996443
-0.1857000000000002,-6.282732882700628
-0.1867000000000001,-6.326588932996443
-0.1877000000000002,-6.414301033588076
-0.1887000000000001,-6.414301033588076
-0.1897000000000002,-6.37044498329226
-0.1907000000000001,-6.282732882700628
-0.1917000000000001,-6.196435493408861
-0.19269999999999998,-6.238876832404812
-0.1937000000000001,-6.238876832404812
-0.19469999999999998,-6.152579443113044
-0.1957000000000001,-6.064867342521412
-0.19669999999999999,-6.108723392817228
-0.1977000000000001,-6.152579443113044
-0.1987,-6.196435493408861
-0.1997000000000001,-6.152579443113044
-0.2007,-6.064867342521412
-0.2017000000000001,-6.021011292225596
-0.2027,-6.021011292225596
-0.2037000000000001,-6.064867342521412
-0.2047,-5.977155241929781
-0.2057000000000001,-5.847001802342197
-0.2067,-5.890857852638012
-0.2077000000000001,-5.977155241929781
-0.2087,-6.064867342521412
-0.2097000000000001,-6.021011292225596
-0.2107,-5.9347139029338285
-0.2117000000000001,-5.9347139029338285
-0.2127,-5.977155241929781
-0.2137000000000001,-5.977155241929781
-0.2147,-5.847001802342197
-0.2157000000000001,-5.80314575204638
-0.2167,-5.715433651454749
-0.21770000000000012,-5.715433651454749
-0.2187,-5.759289701750564
-0.21970000000000012,-5.759289701750564
-0.2207,-5.80314575204638
-0.22170000000000012,-5.890857852638012
-0.2227,-5.9347139029338285
-0.22370000000000012,-5.9347139029338285
-0.2247,-5.847001802342197
-0.22570000000000012,-5.759289701750564
-0.2267,-5.715433651454749
-0.22770000000000012,-5.759289701750564
-0.22870000000000001,-5.715433651454749
-0.22970000000000013,-5.672992312458796
-0.23070000000000002,-5.585280211867165
-0.23170000000000013,-5.585280211867165
-0.23270000000000002,-5.672992312458796
-0.23370000000000013,-5.759289701750564
-0.23470000000000002,-5.759289701750564
-0.23570000000000013,-5.759289701750564
-0.23670000000000002,-5.715433651454749
-0.2376999999999999,-5.759289701750564
-0.23870000000000002,-5.759289701750564
-0.2396999999999999,-5.672992312458796
-0.24070000000000003,-5.585280211867165
-0.24169999999999991,-5.5414241615713475
-0.24270000000000003,-5.5414241615713475
-0.24369999999999992,-5.5414241615713475
-0.24470000000000003,-5.5414241615713475
-0.24569999999999992,-5.497568111275533
-0.24670000000000003,-5.585280211867165
-0.24769999999999992,-5.715433651454749
-0.24870000000000003,-5.759289701750564
-0.24969999999999992,-5.715433651454749
-0.25070000000000003,-5.585280211867165
-0.2516999999999999,-5.585280211867165
-0.25270000000000004,-5.629136262162981
-0.2536999999999999,-5.585280211867165
-0.25470000000000004,-5.5414241615713475
-0.2556999999999999,-5.453712060979717
-0.25670000000000004,-5.453712060979717
-0.25769999999999993,-5.585280211867165
-0.25870000000000004,-5.672992312458796
-0.25969999999999993,-5.629136262162981
-0.26070000000000004,-5.585280211867165
-0.26169999999999993,-5.629136262162981
-0.26270000000000004,-5.672992312458796
-0.26369999999999993,-5.672992312458796
-0.26470000000000005,-5.585280211867165
-0.26569999999999994,-5.5414241615713475
-0.26670000000000005,-5.5414241615713475
-0.26769999999999994,-5.585280211867165
-0.26870000000000005,-5.629136262162981
-0.26969999999999994,-5.629136262162981
-0.27070000000000005,-5.585280211867165
-0.27169999999999994,-5.629136262162981
-0.27270000000000005,-5.672992312458796
-0.27369999999999994,-5.715433651454749
-0.27470000000000006,-5.715433651454749
-0.27569999999999995,-5.629136262162981
-0.27670000000000006,-5.629136262162981
-0.27769999999999995,-5.672992312458796
-0.27870000000000006,-5.715433651454749
-0.27969999999999995,-5.672992312458796
-0.28070000000000006,-5.629136262162981
-0.28169999999999995,-5.672992312458796
-0.28270000000000006,-5.759289701750564
-0.28369999999999995,-5.80314575204638
-0.28470000000000006,-5.847001802342197
-0.28569999999999995,-5.759289701750564
-0.28670000000000007,-5.80314575204638
-0.28769999999999996,-5.847001802342197
-0.28870000000000007,-5.890857852638012
-0.28969999999999996,-5.847001802342197
-0.29070000000000007,-5.80314575204638
-0.29169999999999996,-5.847001802342197
-0.29270000000000007,-5.9347139029338285
-0.29369999999999996,-5.977155241929781
-0.2947000000000001,-5.977155241929781
-0.29569999999999996,-5.9347139029338285
-0.2967000000000001,-5.977155241929781
-0.29769999999999996,-6.108723392817228
-0.2987000000000001,-6.152579443113044
-0.29969999999999997,-6.152579443113044
-0.3007000000000001,-6.108723392817228
-0.30169999999999997,-6.108723392817228
-0.3027000000000001,-6.196435493408861
-0.30369999999999997,-6.238876832404812
-0.3047000000000001,-6.238876832404812
-0.30569999999999997,-6.238876832404812
-0.3067000000000001,-6.238876832404812
-0.3077,-6.37044498329226
-0.3087000000000001,-6.458157083883892
-0.3097,-6.500598422879844
-0.3107000000000001,-6.500598422879844
-0.3117,-6.54445447317566
-0.3127000000000001,-6.6760226240631075
-0.3137,-6.762320013354876
-0.3147000000000001,-6.719878674358924
-0.3157,-6.719878674358924
-0.3167000000000001,-6.762320013354876
-0.3177,-6.893888164242324
-0.3187000000000001,-6.981600264833956
-0.3197,-6.981600264833956
-0.3207000000000001,-7.024041603829907
-0.3217,-7.111753704421539
-0.3227000000000001,-7.243321855308987
-0.3237,-7.37347529489657
-0.3247000000000001,-7.4173313451923875
-0.3257,-7.461187395488204
-0.3267000000000001,-7.5474847847799715
-0.3277,-7.679052935667419
-0.3287000000000001,-7.7653503249591855
-0.3297,-7.809206375255003
-0.3307000000000001,-7.853062425550818
-0.3317,-7.984630576438266
-0.3327000000000001,-8.11478401602585
-0.3337,-8.288793505909249
-0.3347000000000001,-8.4203616567967
-0.3357,-8.508073757388331
-0.3367000000000001,-8.638227196975913
-0.3377,-8.85609273715513
-0.3387000000000001,-9.031516938338395
-0.3397,-9.161670377925978
-0.3407000000000001,-9.24938247851761
-0.3417,-9.423391968401008
-0.3427000000000001,-9.728969609171857
-0.3437,-9.946835149351072
-0.3447000000000001,-10.164700689530287
-0.3457,-10.382566229709504
-0.3467000000000001,-10.688143870480351
-0.3477,-11.081433611842833
-0.3487000000000001,-11.473308641905447
-0.3497,-11.82274233297211
-0.3507000000000001,-12.170761312738911
-0.3517,-12.607907104397206
-0.3527000000000001,-13.087494235051453
-0.3537,-13.610937416001518
-0.3547000000000001,-14.046668496359947
-0.3557,-14.57152638860988
-0.35670000000000013,-15.094969569559943
-0.3577,-15.74573676749786
-0.35870000000000013,-16.354062626439823
-0.3597,-16.877505807389888
-0.36070000000000013,-17.40094898833995
-0.3617,-18.06586329927652
-0.3626999999999999,-18.759071836210385
-0.3637,-19.409839034148305
-0.3646999999999999,-20.10304757108217
-0.3657,-20.810403221014692
-0.3666999999999999,-21.63093577493641
-0.3677,-22.550498119848687
-0.3686999999999999,-23.597384481748815
-0.36970000000000003,-24.601829504652986
-0.3706999999999999,-25.648715866553115
-0.37170000000000003,-26.780484906445146
-0.3726999999999999,-28.011283737327723
-0.37370000000000003,-29.31281813320356
-0.3746999999999999,-30.571911190083444
-0.37570000000000003,-31.887592698957924
-0.3766999999999999,-33.288156885824314
-0.37770000000000004,-34.8018979766799
-0.3786999999999999,-36.47125731052064
-0.37970000000000004,-38.16891087035869
-0.3806999999999999,-39.86656443019674
-0.38170000000000004,-41.83301313700913
-0.38269999999999993,-43.92678586080939
-0.38370000000000004,-46.10544126260155
-0.38469999999999993,-48.24165532539775
-0.38570000000000004,-50.42031072718991
-0.38669999999999993,-51.594521106077885
-0.38570000000000004,-51.69355089706845
-0.38469999999999993,-51.990640270040096
-0.38370000000000004,-52.17455273902255
-0.38269999999999993,-52.25943541701445
-0.38170000000000004,-52.34431809500636
-0.3806999999999999,-52.471642111994214
-0.37970000000000004,-52.514083450990164
-0.3786999999999999,-52.514083450990164
-0.37770000000000004,-52.471642111994214
-0.3766999999999999,-52.42920077299826
-0.37570000000000003,-52.30187675601041
-0.3746999999999999,-52.11796428702795
-0.37370000000000003,-51.86331625305225
-0.3726999999999999,-51.46719708909004
-0.37170000000000003,-51.071077925127824
-0.3706999999999999,-50.64666453516831
-0.36970000000000003,-50.1656626932142
-0.3686999999999999,-49.59977817326819
-0.3677,-48.97730520132757
-0.3666999999999999,-48.32653800338966
-0.3657,-47.80309482243959
-0.3646999999999999,-47.27965164148953
-0.3637,-46.67132578254756
-0.3626999999999999,-45.97811724561369
-0.3617,-45.27076159568118
-0.36070000000000013,-44.577553058747306
-0.3597,-43.84190318281749
-0.35870000000000013,-43.007223515897124
-0.3577,-42.229132300971344
-0.35670000000000013,-41.47933531204288
-0.3557,-40.828568114104954
-0.3547000000000001,-40.177800916167044
-0.3537,-39.47044526623452
-0.3527000000000001,-38.734795390304704
-0.3517,-38.04158685337084
-0.3507000000000001,-37.334231203438314
-0.3497,-36.64102266650445
-0.3487000000000001,-35.806342999584075
-0.3477,-34.98581044566235
-0.3467000000000001,-34.15113077874198
-0.3457,-33.41548090281216
-0.3447000000000001,-32.70812525287965
-0.3437,-31.972475376949827
-0.3427000000000001,-31.19438416202406
-0.3417,-30.529469851087494
-0.3407000000000001,-29.921143992145527
-0.3397,-29.27037679420761
-0.3387000000000001,-28.577168257273744
-0.3377,-27.827371268345274
-0.3367000000000001,-27.049280053419505
-0.3357,-26.38436574248293
-0.3347000000000001,-25.691157205549064
-0.3337,-24.997948668615198
-0.3327000000000001,-24.24815167968673
-0.3317,-23.597384481748815
-0.3307000000000001,-23.031499961802798
-0.3297,-22.46561544185678
-0.3287000000000001,-21.772406904922917
-0.3277,-21.149933932982297
-0.3267000000000001,-20.541608074040333
-0.3257,-19.97572355409432
-0.3247000000000001,-19.452280373144255
-0.3237,-18.843954514202288
-0.3227000000000001,-18.23562865526032
-0.3217,-17.669744135314307
-0.3207000000000001,-17.146300954364243
-0.3197,-16.665299112410132
-0.3187000000000001,-16.099414592464115
-0.3177,-15.491088733522153
-0.3167000000000001,-14.925204213576137
-0.3157,-14.444202371622024
-0.3147000000000001,-14.002812446064135
-0.3137,-13.523225315409885
-0.3127000000000001,-13.043638184755638
-0.3117,-12.607907104397206
-0.3107000000000001,-12.214617363034726
-0.3097,-11.778886282676295
-0.3087000000000001,-11.343155202317865
-0.3077,-10.863568071663616
-0.3067000000000001,-10.470278330301136
-0.30569999999999997,-10.078403300238522
-0.3047000000000001,-9.728969609171857
-0.30369999999999997,-9.335679867809377
-0.3027000000000001,-8.899948787450944
-0.30169999999999997,-8.55051509638428
-0.3007000000000001,-8.246352166913299
-0.29969999999999997,-7.940774526142452
-0.2987000000000001,-7.5474847847799715
-0.29769999999999996,-7.199465805013171
-0.2967000000000001,-6.893888164242324
-0.29569999999999996,-6.6760226240631075
-0.2947000000000001,-6.458157083883892
-0.29369999999999996,-6.196435493408861
-0.29270000000000007,-5.890857852638012
-0.29169999999999996,-5.585280211867165
-0.29070000000000007,-5.367414671687949
-0.28969999999999996,-5.0618370309171015
-0.28870000000000007,-4.712403339850438
-0.28769999999999996,-4.450681749375406
-0.28670000000000007,-4.146518819904423
-0.28569999999999995,-3.971094618721158
-0.28470000000000006,-3.840941179133574
-0.28369999999999995,-3.7093730282461257
-0.28270000000000006,-3.4915074880669104
-0.28169999999999995,-3.2297858975918787
-0.28070000000000006,-3.055776407708479
-0.27969999999999995,-2.924208256821031
-0.27870000000000006,-2.662486666345999
-0.27769999999999995,-2.4007650758709675
-0.27670000000000006,-2.226755585987568
-0.27569999999999995,-2.052746096104168
-0.27470000000000006,-1.9650339955125358
-0.27369999999999994,-1.7910245056291363
-0.27270000000000005,-1.6156003044458718
-0.27169999999999994,-1.4854468648582886
-0.27070000000000005,-1.4415908145624723
-0.26969999999999994,-1.3543031273607997
-0.26870000000000005,-1.1798692240874404
-0.26769999999999994,-0.9617207416482519
-0.26670000000000005,-0.8308599464107361
-0.26569999999999994,-0.7872868383748929
-0.26470000000000005,-0.7001406223032067
-0.26369999999999993,-0.5692798270656908
