Potential V vs RHE, Current mA cm-2
0.4132999999999999,-0.0011679856491685744
0.4122999999999999,-0.003018993913911988
0.4112999999999999,-0.0035127281575648866
0.4102999999999999,-0.0037588879237414026
0.4092999999999999,-0.003962606350921968
0.4082999999999999,-0.004122468727806717
0.4072999999999999,-0.004316284175888227
0.4062999999999999,-0.004450681749375406
0.4052999999999999,-0.004578005766363259
0.4042999999999999,-0.004684109113853137
0.4032999999999999,-0.004784553616143553
0.4022999999999999,-0.004911877633131407
0.4012999999999999,-0.00499676031112331
0.4002999999999999,-0.005063251742216966
0.3992999999999999,-0.005200478738303875
0.3982999999999999,-0.005295264395394832
0.3972999999999999,-0.005356096981289029
0.3962999999999999,-0.005460785617479041
0.3952999999999999,-0.0055145446468739135
0.3942999999999999,-0.0055909390570666245
0.39329999999999987,-0.005680065868958122
0.39229999999999987,-0.005781925082548404
0.39129999999999987,-0.005859734204040982
0.39029999999999987,-0.005913493233435853
0.38929999999999987,-0.00597432581933005
0.38829999999999987,-0.006062037919921682
0.38729999999999987,-0.006124285217115744
0.38629999999999987,-0.00619360607080913
0.38529999999999986,-0.006278488748801033
0.38429999999999986,-0.006315271242597524
0.38329999999999986,-0.006412886322288211
0.38229999999999986,-0.0064906954437807885
0.38129999999999986,-0.00654728389577539
0.38029999999999986,-0.006609531192969452
0.37929999999999986,-0.006639240130266616
0.37829999999999986,-0.006714219829159464
0.37729999999999986,-0.0067991025071513665
0.37629999999999986,-0.006821737887949208
0.37529999999999986,-0.006893888164242324
0.37429999999999986,-0.006939158925838005
0.37329999999999985,-0.007019797469930313
0.37229999999999985,-0.007084874189724104
0.37129999999999985,-0.007117412549620999
0.37029999999999985,-0.007189562825914116
0.36929999999999985,-0.007234833587509797
0.36829999999999985,-0.007298495596003725
0.36729999999999985,-0.007370645872296841
0.36629999999999985,-0.0074286490355913075
0.36529999999999985,-0.007435722592090633
0.36429999999999985,-0.0075022140231842905
0.36329999999999985,-0.007557387763879026
0.36229999999999984,-0.007645099864470658
0.36129999999999984,-0.007687541203466609
0.36029999999999984,-0.007731397253762425
0.35929999999999984,-0.007782326860557568
0.35829999999999984,-0.007840330023852033
0.35729999999999984,-0.007899747898446365
0.35629999999999984,-0.007971898174739481
0.35529999999999984,-0.007977557019938943
0.35429999999999984,-0.008045463162332463
0.35329999999999984,-0.008100636903027201
0.35229999999999984,-0.008151566509822341
0.35129999999999983,-0.008213813807016404
0.35029999999999983,-0.008256255146012354
0.34929999999999983,-0.00830859946410736
0.34829999999999983,-0.00836801733870169
0.34729999999999983,-0.008461388284492785
0.34629999999999983,-0.008479779531391032
0.34529999999999983,-0.0085335385607859
0.34429999999999983,-0.008560418075483337
0.3432999999999998,-0.008625494795277128
0.3422999999999998,-0.008700474494169977
0.3412999999999998,-0.008731598142767007
0.3402999999999998,-0.008785357172161877
0.3392999999999998,-0.008803748419060124
0.3382999999999998,-0.008851848603255533
0.3372999999999998,-0.008897119364851215
0.3362999999999998,-0.008918340034349192
0.3352999999999998,-0.008972099063744063
0.3342999999999998,-0.00901878453663961
0.3332999999999998,-0.009062640586935424
0.3322999999999998,-0.009156011532726518
0.3312999999999998,-0.009154596821426653
0.3302999999999998,-0.009209770562121388
0.3292999999999998,-0.00923806478811869
0.3282999999999998,-0.00929465324011329
0.3272999999999998,-0.009366803516406407
0.3262999999999998,-0.009372462361605868
0.3252999999999999,-0.00942056254580128
0.3242999999999999,-0.009477150997795883
0.3232999999999999,-0.00950261580119345
0.3222999999999999,-0.009563448387087647
0.3212999999999999,-0.009610133859983196
0.3202999999999999,-0.009638428085980496
0.3192999999999999,-0.009676625291076851
0.3182999999999999,-0.009719066630072803
0.3172999999999999,-0.009789802195066054
0.3162999999999999,-0.009826584688862544
0.3152999999999999,-0.009843561224460924
0.3142999999999999,-0.009884587852157012
0.3132999999999999,-0.009931273325052559
0.3122999999999999,-0.00997654408664824
0.3112999999999999,-0.010026058982143515
0.3102999999999999,-0.010043035517741895
0.3092999999999999,-0.010099623969736496
0.3082999999999999,-0.010157627133030964
0.3072999999999999,-0.010217045007625295
0.3062999999999999,-0.010248168656222325
0.3052999999999999,-0.010273633459619897
0.3042999999999999,-0.010318904221215576
0.3032999999999999,-0.01035568671501207
0.3022999999999999,-0.01040661632180721
0.3012999999999999,-0.010453301794702757
0.3002999999999999,-0.010491498999799113
0.2992999999999999,-0.010507060824097627
0.2982999999999999,-0.010576381677791015
0.2972999999999999,-0.010621652439386696
0.2962999999999999,-0.010672582046181836
0.2952999999999999,-0.010712193962578057
0.2942999999999999,-0.010775855971071984
0.2932999999999999,-0.010850835669964832
0.2922999999999999,-0.010924400657557813
0.2912999999999999,-0.010934303636656869
0.2902999999999999,-0.010975330264352956
0.2892999999999999,-0.011005039201650121
0.2882999999999999,-0.0110220157372485
0.2872999999999999,-0.011092751302241754
0.2862999999999999,-0.011113971971739729
0.2852999999999999,-0.011157828022035543
0.2842999999999999,-0.011193195804532171
0.2832999999999999,-0.011252613679126503
0.2822999999999999,-0.011310616842420969
0.2812999999999999,-0.011326178666719484
0.2802999999999999,-0.011351643470117054
0.2792999999999999,-0.01139549952041287
0.2782999999999999,-0.011425208457710036
0.2772999999999999,-0.011491699888803693
0.2762999999999999,-0.0115440442068987
0.2752999999999999,-0.011551117763398025
0.2742999999999999,-0.011590729679794246
0.2732999999999999,-0.011630341596190467
0.2722999999999999,-0.0116897594707848
0.2712999999999999,-0.011744933211479534
0.2702999999999999,-0.011787374550475486
0.2692999999999999,-0.011821327621672246
0.26829999999999987,-0.011872257228467388
0.26729999999999987,-0.011911869144863611
0.26629999999999987,-0.011959969329059019
0.26529999999999987,-0.01197411644205767
0.26429999999999987,-0.012009484224554296
0.26329999999999987,-0.012066072676548897
0.26229999999999987,-0.012114172860744309
0.26129999999999987,-0.01214246708674161
0.26029999999999986,-0.012180664291837964
0.25929999999999986,-0.012204714383935672
0.25829999999999986,-0.012259888124630408
0.25729999999999986,-0.01231930599922474
0.25629999999999986,-0.012334867823523254
0.25529999999999986,-0.012388626852918127
0.25429999999999986,-0.012411262233715966
0.25329999999999986,-0.012440971171013133
0.25229999999999986,-0.0124989743343076
0.25129999999999986,-0.01253858625070382
0.25029999999999986,-0.012569709899300853
0.24929999999999986,-0.012636201330394507
0.24829999999999985,-0.012680057380690323
0.24729999999999985,-0.012759281213482765
0.24629999999999985,-0.012781916594280606
0.24529999999999985,-0.012828602067176153
0.24429999999999985,-0.012869628694872239
0.24329999999999985,-0.01288094638527116
0.24229999999999985,-0.0129318759920663
0.24129999999999985,-0.012953096661564276
0.24029999999999985,-0.012978561464961846
0.23929999999999985,-0.013033735205656581
0.23829999999999985,-0.013062029431653884
0.23729999999999984,-0.013110129615849295
0.23629999999999984,-0.01317662104694295
0.23529999999999984,-0.013183694603442278
0.23429999999999984,-0.013209159406839846
0.23329999999999984,-0.013253015457135663
0.23229999999999984,-0.013312433331729994
0.23129999999999984,-0.013350630536826351
0.23029999999999984,-0.013366192361124867
0.22929999999999984,-0.013400145432321627
0.22829999999999984,-0.013435513214818253
0.22729999999999984,-0.013483613399013664
0.22629999999999983,-0.013528884160609347
0.22529999999999983,-0.013564251943105973
0.22429999999999983,-0.013579813767404485
0.22329999999999983,-0.013609522704701654
0.22229999999999983,-0.013660452311496792
0.22129999999999983,-0.013702893650492745
0.22029999999999983,-0.0137410908555891
0.21929999999999983,-0.013775043926785864
0.21829999999999983,-0.013811826420582355
0.21729999999999983,-0.01387265900647655
0.21629999999999983,-0.013891050253374797
0.21529999999999982,-0.013933491592370747
0.21429999999999982,-0.013980177065266292
0.21329999999999982,-0.01400988600256346
0.21229999999999982,-0.014070718588457654
0.21129999999999982,-0.014090524546655766
0.21029999999999982,-0.014118818772653067
0.20929999999999982,-0.014147112998650365
0.20829999999999982,-0.014189554337646317
0.20729999999999982,-0.01424614278964092
0.20629999999999982,-0.014288584128636872
0.20529999999999982,-0.01430273124163552
0.20429999999999982,-0.014359319693630123
0.20329999999999981,-0.014359319693630123
0.2022999999999998,-0.014430055258623373
0.2012999999999998,-0.014472496597619325
0.20029999999999992,-0.014500790823616624
0.19929999999999992,-0.014543232162612576
0.19829999999999992,-0.014571526388609878
0.19729999999999992,-0.01461396772760583
0.19629999999999992,-0.014670556179600431
0.19529999999999992,-0.014684703292599082
0.19429999999999992,-0.014769585970590984
0.19329999999999992,-0.014797880196588285
0.19229999999999992,-0.014812027309586936
0.19129999999999991,-0.014868615761581536
0.1902999999999999,-0.014868615761581536
0.1892999999999999,-0.014911057100577486
0.1882999999999999,-0.014953498439573438
0.1872999999999999,-0.014981792665570736
0.1862999999999999,-0.01505252823056399
0.1852999999999999,-0.015080822456561293
0.1842999999999999,-0.015109116682558592
0.1832999999999999,-0.015137410908555892
0.1822999999999999,-0.015179852247551842
0.1812999999999999,-0.015222293586547794
0.1802999999999999,-0.015264734925543746
0.1792999999999999,-0.015293029151541045
0.1782999999999999,-0.015335470490536997
0.1772999999999999,-0.015392058942531598
0.1762999999999999,-0.015420353168528897
0.1752999999999999,-0.01546279450752485
0.1742999999999999,-0.015505235846520802
0.1732999999999999,-0.015519382959519455
0.1722999999999999,-0.015590118524512706
0.1712999999999999,-0.015604265637511355
0.1702999999999999,-0.015618412750510005
0.1692999999999999,-0.015660854089505957
0.1682999999999999,-0.015703295428501907
0.1672999999999999,-0.015774030993495156
0.1662999999999999,-0.01580232521949246
0.1652999999999999,-0.01581647233249111
0.1642999999999999,-0.015873060784485714
0.1632999999999999,-0.01588720789748436
0.1622999999999999,-0.015943796349478963
0.1612999999999999,-0.01597209057547626
0.1602999999999999,-0.01597209057547626
0.1592999999999999,-0.016028679027470863
0.15829999999999989,-0.016056973253468165
0.15729999999999988,-0.016099414592464115
0.15629999999999988,-0.01615600304445872
0.15529999999999988,-0.01615600304445872
0.15429999999999988,-0.016212591496453318
0.15329999999999988,-0.01625503283544927
0.15229999999999988,-0.01629747417444522
0.15129999999999988,-0.016339915513441175
0.15029999999999988,-0.016354062626439823
0.14929999999999988,-0.01638235685243712
0.14829999999999988,-0.016438945304431726
0.14729999999999988,-0.016495533756426328
0.14629999999999987,-0.016552122208420932
0.14529999999999987,-0.01660871066041553
0.14429999999999987,-0.01665115199941148
0.14329999999999987,-0.016721887564404736
0.14229999999999987,-0.016792623129397985
0.14129999999999987,-0.016792623129397985
0.14029999999999987,-0.016806770242396636
0.13929999999999987,-0.01683506446839394
0.13829999999999987,-0.016863358694391237
0.13729999999999987,-0.01691994714638584
0.13629999999999987,-0.01699068271137909
0.13529999999999986,-0.01699068271137909
0.13429999999999986,-0.017018976937376393
0.13329999999999986,-0.01706141827637234
0.13229999999999986,-0.017118006728366945
0.13129999999999986,-0.017146300954364244
0.13029999999999986,-0.017188742293360197
0.12929999999999986,-0.017202889406358845
0.12829999999999986,-0.017231183632356147
0.12729999999999986,-0.0173019191973494
0.12629999999999986,-0.0173302134233467
0.12529999999999986,-0.017372654762342652
0.12429999999999986,-0.017400948988339954
0.12329999999999985,-0.017429243214337253
0.12229999999999985,-0.017471684553333203
0.12129999999999985,-0.0175282730053278
0.12029999999999985,-0.017542420118326456
0.11929999999999985,-0.017599008570321057
0.11829999999999985,-0.017599008570321057
0.11729999999999985,-0.01766974413531431
0.11629999999999985,-0.01772633258730891
0.11529999999999985,-0.01772633258730891
0.11429999999999985,-0.017782921039303512
0.11329999999999985,-0.017825362378299462
0.11229999999999984,-0.017881950830294063
0.11129999999999984,-0.017910245056291362
0.11029999999999984,-0.017924392169290013
0.10929999999999984,-0.017966833508285963
0.10829999999999984,-0.017995127734283266
0.10729999999999984,-0.01803756907327922
0.10629999999999984,-0.018094157525273817
0.10529999999999984,-0.01813659886426977
0.10429999999999984,-0.01816489309026707
0.10329999999999984,-0.018193187316264375
0.10229999999999984,-0.018249775768258973
0.10129999999999983,-0.018292217107254923
0.10029999999999983,-0.018334658446250877
0.09929999999999983,-0.018334658446250877
0.09829999999999983,-0.018391246898245478
0.09729999999999983,-0.018447835350240076
0.09629999999999983,-0.01850442380223468
0.09529999999999983,-0.01851857091523333
0.09429999999999983,-0.01856101225422928
0.09329999999999983,-0.018603453593225232
0.09229999999999983,-0.018660042045219833
0.09129999999999983,-0.018702483384215783
0.09029999999999982,-0.018730777610213082
0.08929999999999982,-0.018773218949209036
0.08829999999999982,-0.018801513175206338
0.08729999999999982,-0.01885810162720094
0.08629999999999982,-0.01891469007919554
0.08529999999999982,-0.018957131418191494
0.08429999999999982,-0.018999572757187444
0.08329999999999982,-0.019013719870186095
0.08229999999999982,-0.019098602548177995
0.08129999999999982,-0.019112749661176646
0.08029999999999982,-0.019126896774175294
0.07929999999999982,-0.0191834852261699
0.07829999999999981,-0.01922592656516585
0.07729999999999981,-0.0192966621301591
0.07629999999999981,-0.01933910346915505
0.07529999999999992,-0.019367397695152354
0.07429999999999992,-0.019381544808151
0.07329999999999992,-0.0194098390341483
0.07229999999999992,-0.019480574599141553
0.07129999999999992,-0.019551310164134805
0.07029999999999992,-0.019565457277133456
0.06929999999999992,-0.01959375150313076
0.06829999999999992,-0.01965033995512536
0.06729999999999992,-0.01969278129412131
0.06629999999999991,-0.01973522263311726
0.06529999999999991,-0.019777663972113214
0.06429999999999991,-0.019805958198110513
0.06329999999999991,-0.019876693763103765
0.06229999999999991,-0.019904987989101064
0.06129999999999991,-0.019947429328097017
0.06029999999999991,-0.019989870667092968
0.05929999999999991,-0.020018164893090266
0.05829999999999991,-0.02007475334508487
0.05729999999999991,-0.02015963602307677
0.056299999999999906,-0.020230371588070024
0.055299999999999905,-0.020301107153063276
0.054299999999999904,-0.020343548492059226
0.0532999999999999,-0.020371842718056525
0.0522999999999999,-0.02041428405705248
0.0512999999999999,-0.020442578283049778
0.0502999999999999,-0.02045672539604843
0.0492999999999999,-0.02048501962204573
0.0482999999999999,-0.020513313848043033
0.0472999999999999,-0.020612343639033585
0.0462999999999999,-0.020654784978029535
0.045299999999999896,-0.020654784978029535
0.044299999999999895,-0.02071137343002414
0.043299999999999894,-0.020725520543022787
0.04229999999999989,-0.02079625610801604
0.04129999999999989,-0.02085284456001064
0.04029999999999989,-0.020909433012005242
0.03929999999999989,-0.020937727238002544
0.03829999999999989,-0.020966021463999843
0.03729999999999989,-0.021036757028993096
0.03629999999999989,-0.021107492593986348
0.03529999999999989,-0.021093345480987697
0.034299999999999886,-0.021135786819983647
0.033299999999999885,-0.0211782281589796
0.032299999999999884,-0.0212348166109742
0.031299999999999883,-0.021305552175967454
0.030299999999999883,-0.021333846401964753
0.02929999999999988,-0.021362140627962056
0.02829999999999988,-0.021418729079956657
0.02729999999999988,-0.021475317531951258
0.02629999999999988,-0.021546053096944507
0.025299999999999878,-0.02157434732294181
0.024299999999999877,-0.021602641548939108
0.023299999999999876,-0.021645082887935062
0.022299999999999875,-0.021701671339929663
0.021299999999999875,-0.021758259791924264
0.020299999999999874,-0.021800701130920214
0.019299999999999873,-0.021843142469916164
0.018299999999999872,-0.021885583808912118
0.01729999999999987,-0.021956319373905367
0.01629999999999987,-0.022012907825899968
0.01529999999999987,-0.02205534916489592
0.014299999999999868,-0.022097790503891875
0.013299999999999867,-0.022140231842887825
0.012299999999999978,-0.022196820294882423
0.011299999999999866,-0.022253408746877028
0.010299999999999976,-0.02230999719887163
0.009299999999999864,-0.02235243853786758
0.008299999999999974,-0.02239487987686353
0.007299999999999862,-0.02245146832885813
0.006299999999999972,-0.022493909667854084
0.00529999999999986,-0.022522203893851383
0.0042999999999999705,-0.022592939458844635
0.0032999999999998586,-0.022635380797840585
0.0022999999999999687,-0.02272026347583249
0.0012999999999998568,-0.02279099904082574
0.00029999999999996696,-0.02277685192782709
-0.000700000000000145,-0.022819293266823044
-0.0017000000000000348,-0.022861734605818994
-0.0027000000000001467,-0.022904175944814944
-0.0037000000000000366,-0.022989058622806844
-0.0047000000000001485,-0.023017352848804146
-0.005700000000000038,-0.023073941300798748
-0.00670000000000015,-0.02310223552679605
-0.00770000000000004,-0.023172971091789302
-0.008700000000000152,-0.023215412430785252
-0.009700000000000042,-0.02324370665678255
-0.010700000000000154,-0.023356883560771757
-0.011700000000000044,-0.02341347201276636
-0.012700000000000156,-0.02345591335176231
-0.013700000000000045,-0.023512501803756906
-0.014700000000000157,-0.02355494314275286
-0.015700000000000047,-0.02359738448174881
-0.01670000000000016,-0.023625678707746112
-0.01770000000000005,-0.023696414272739365
-0.01870000000000016,-0.023753002724733966
-0.01970000000000005,-0.023795444063729916
-0.020700000000000163,-0.023823738289727222
-0.021700000000000053,-0.023866179628723165
-0.022700000000000164,-0.02392276808071777
-0.023700000000000054,-0.02397935653271237
-0.024700000000000166,-0.02400765075870967
-0.025700000000000056,-0.024035944984706972
-0.026700000000000168,-0.024078386323702922
-0.027700000000000058,-0.024134974775697527
-0.02870000000000017,-0.02417741611469348
-0.02970000000000006,-0.024219857453689427
-0.03070000000000017,-0.02427644590568403
-0.03170000000000006,-0.024304740131681327
-0.03270000000000017,-0.024375475696674583
-0.03370000000000006,-0.024432064148669184
-0.034700000000000175,-0.024460358374666487
-0.035700000000000065,-0.024516946826661085
-0.03670000000000018,-0.024545241052658383
-0.03770000000000007,-0.02461597661765164
-0.03870000000000018,-0.02467256506964624
-0.03970000000000007,-0.02467256506964624
-0.04070000000000018,-0.024729153521640842
-0.04170000000000007,-0.02475744774763814
-0.04270000000000018,-0.02482818331263139
-0.04370000000000007,-0.024898918877624646
-0.044700000000000184,-0.024913065990623297
-0.045700000000000074,-0.024969654442617898
-0.046700000000000186,-0.025012095781613848
-0.047700000000000076,-0.0250828313466071
-0.04870000000000019,-0.025139419798601705
-0.04970000000000008,-0.02515356691160035
-0.05070000000000019,-0.025196008250596303
-0.05170000000000008,-0.025252596702590904
-0.05270000000000019,-0.025309185154585506
-0.05370000000000008,-0.025365773606580107
-0.05470000000000019,-0.02539406783257741
-0.05570000000000008,-0.02543650917157336
-0.056700000000000195,-0.02547895051056931
-0.057700000000000085,-0.025521391849565263
-0.058700000000000196,-0.025563833188561213
-0.059700000000000086,-0.025592127414558512
-0.0607000000000002,-0.02562042164055581
-0.06170000000000009,-0.025691157205549067
-0.0627000000000002,-0.02577603988354097
-0.06370000000000009,-0.02580433410953827
