Sept. 30, 2024   19:59:33
Linear Sweep Voltammetry
File: c:/users/guazh/data/20240922_batch_417_500/2024-09-22-exp493\1acid_1ac-2024-09-30t19_56_25-lsvinphos\1acid_1ac_lsv_50mvs_efin_-2100mv.bin
Data Source:  Experiment
Instrument Model:  CHI760E
Header: LSV ran at 50 mVs with Efin at -2100mV
Note: 

Init E (V) = -0.6
Final E (V) = -2.1
Scan Rate (V/s) = 0.05
Sample Interval (V) = 0.001
Quiet Time (sec) = 2
Sensitivity (A/V) = 1e-4
Comp R (ohm) = 11.7

Results:

Channel 1:
Ep = -1.258V
ip = 6.258e-5A
Ah = 1.019e-4C

Ep = -1.867V
ip = 7.227e-4A
Ah = 8.711e-4C

Potential/V, Current/A

-0.600, 5.119e-5
-0.601, 5.191e-5
-0.602, 5.241e-5
-0.603, 5.269e-5
-0.604, 5.280e-5
-0.605, 5.285e-5
-0.606, 5.285e-5
-0.607, 5.288e-5
-0.608, 5.284e-5
-0.609, 5.277e-5
-0.610, 5.274e-5
-0.611, 5.272e-5
-0.612, 5.256e-5
-0.613, 5.248e-5
-0.614, 5.247e-5
-0.615, 5.243e-5
-0.616, 5.234e-5
-0.617, 5.223e-5
-0.618, 5.214e-5
-0.619, 5.201e-5
-0.620, 5.191e-5
-0.621, 5.180e-5
-0.622, 5.171e-5
-0.623, 5.160e-5
-0.624, 5.144e-5
-0.625, 5.135e-5
-0.626, 5.125e-5
-0.627, 5.107e-5
-0.628, 5.102e-5
-0.629, 5.090e-5
-0.630, 5.078e-5
-0.631, 5.064e-5
-0.632, 5.050e-5
-0.633, 5.036e-5
-0.634, 5.023e-5
-0.635, 5.010e-5
-0.636, 5.001e-5
-0.637, 4.991e-5
-0.638, 4.977e-5
-0.639, 4.963e-5
-0.640, 4.950e-5
-0.641, 4.940e-5
-0.642, 4.923e-5
-0.643, 4.914e-5
-0.644, 4.903e-5
-0.645, 4.892e-5
-0.646, 4.879e-5
-0.647, 4.864e-5
-0.648, 4.852e-5
-0.649, 4.839e-5
-0.650, 4.825e-5
-0.651, 4.814e-5
-0.652, 4.801e-5
-0.653, 4.787e-5
-0.654, 4.775e-5
-0.655, 4.761e-5
-0.656, 4.750e-5
-0.657, 4.738e-5
-0.658, 4.725e-5
-0.659, 4.716e-5
-0.660, 4.703e-5
-0.661, 4.687e-5
-0.662, 4.677e-5
-0.663, 4.668e-5
-0.664, 4.658e-5
-0.665, 4.644e-5
-0.666, 4.630e-5
-0.667, 4.618e-5
-0.668, 4.608e-5
-0.669, 4.596e-5
-0.670, 4.584e-5
-0.671, 4.571e-5
-0.672, 4.558e-5
-0.673, 4.547e-5
-0.674, 4.537e-5
-0.675, 4.525e-5
-0.676, 4.509e-5
-0.677, 4.498e-5
-0.678, 4.488e-5
-0.679, 4.478e-5
-0.680, 4.467e-5
-0.681, 4.454e-5
-0.682, 4.443e-5
-0.683, 4.432e-5
-0.684, 4.421e-5
-0.685, 4.409e-5
-0.686, 4.398e-5
-0.687, 4.387e-5
-0.688, 4.376e-5
-0.689, 4.366e-5
-0.690, 4.355e-5
-0.691, 4.343e-5
-0.692, 4.332e-5
-0.693, 4.319e-5
-0.694, 4.308e-5
-0.695, 4.298e-5
-0.696, 4.288e-5
-0.697, 4.275e-5
-0.698, 4.263e-5
-0.699, 4.253e-5
-0.700, 4.247e-5
-0.701, 4.233e-5
-0.702, 4.224e-5
-0.703, 4.212e-5
-0.704, 4.201e-5
-0.705, 4.193e-5
-0.706, 4.182e-5
-0.707, 4.171e-5
-0.708, 4.164e-5
-0.709, 4.154e-5
-0.710, 4.145e-5
-0.711, 4.135e-5
-0.712, 4.125e-5
-0.713, 4.114e-5
-0.714, 4.105e-5
-0.715, 4.095e-5
-0.716, 4.085e-5
-0.717, 4.075e-5
-0.718, 4.064e-5
-0.719, 4.055e-5
-0.720, 4.047e-5
-0.721, 4.038e-5
-0.722, 4.025e-5
-0.723, 4.016e-5
-0.724, 4.007e-5
-0.725, 3.998e-5
-0.726, 3.987e-5
-0.727, 3.977e-5
-0.728, 3.970e-5
-0.729, 3.961e-5
-0.730, 3.953e-5
-0.731, 3.945e-5
-0.732, 3.937e-5
-0.733, 3.927e-5
-0.734, 3.918e-5
-0.735, 3.910e-5
-0.736, 3.900e-5
-0.737, 3.891e-5
-0.738, 3.884e-5
-0.739, 3.876e-5
-0.740, 3.868e-5
-0.741, 3.858e-5
-0.742, 3.851e-5
-0.743, 3.843e-5
-0.744, 3.835e-5
-0.745, 3.826e-5
-0.746, 3.818e-5
-0.747, 3.809e-5
-0.748, 3.802e-5
-0.749, 3.795e-5
-0.750, 3.788e-5
-0.751, 3.780e-5
-0.752, 3.772e-5
-0.753, 3.763e-5
-0.754, 3.756e-5
-0.755, 3.749e-5
-0.756, 3.742e-5
-0.757, 3.735e-5
-0.758, 3.729e-5
-0.759, 3.722e-5
-0.760, 3.714e-5
-0.761, 3.706e-5
-0.762, 3.698e-5
-0.763, 3.690e-5
-0.764, 3.685e-5
-0.765, 3.678e-5
-0.766, 3.671e-5
-0.767, 3.664e-5
-0.768, 3.658e-5
-0.769, 3.651e-5
-0.770, 3.644e-5
-0.771, 3.637e-5
-0.772, 3.630e-5
-0.773, 3.624e-5
-0.774, 3.617e-5
-0.775, 3.610e-5
-0.776, 3.603e-5
-0.777, 3.597e-5
-0.778, 3.590e-5
-0.779, 3.585e-5
-0.780, 3.579e-5
-0.781, 3.574e-5
-0.782, 3.570e-5
-0.783, 3.563e-5
-0.784, 3.558e-5
-0.785, 3.553e-5
-0.786, 3.545e-5
-0.787, 3.540e-5
-0.788, 3.536e-5
-0.789, 3.529e-5
-0.790, 3.523e-5
-0.791, 3.518e-5
-0.792, 3.512e-5
-0.793, 3.508e-5
-0.794, 3.503e-5
-0.795, 3.499e-5
-0.796, 3.493e-5
-0.797, 3.487e-5
-0.798, 3.483e-5
-0.799, 3.479e-5
-0.800, 3.474e-5
-0.801, 3.469e-5
-0.802, 3.465e-5
-0.803, 3.460e-5
-0.804, 3.455e-5
-0.805, 3.452e-5
-0.806, 3.445e-5
-0.807, 3.441e-5
-0.808, 3.437e-5
-0.809, 3.432e-5
-0.810, 3.428e-5
-0.811, 3.423e-5
-0.812, 3.418e-5
-0.813, 3.413e-5
-0.814, 3.410e-5
-0.815, 3.405e-5
-0.816, 3.400e-5
-0.817, 3.397e-5
-0.818, 3.393e-5
-0.819, 3.393e-5
-0.820, 3.388e-5
-0.821, 3.383e-5
-0.822, 3.380e-5
-0.823, 3.378e-5
-0.824, 3.376e-5
-0.825, 3.371e-5
-0.826, 3.365e-5
-0.827, 3.361e-5
-0.828, 3.356e-5
-0.829, 3.353e-5
-0.830, 3.350e-5
-0.831, 3.344e-5
-0.832, 3.341e-5
-0.833, 3.339e-5
-0.834, 3.335e-5
-0.835, 3.331e-5
-0.836, 3.327e-5
-0.837, 3.322e-5
-0.838, 3.320e-5
-0.839, 3.317e-5
-0.840, 3.313e-5
-0.841, 3.308e-5
-0.842, 3.304e-5
-0.843, 3.301e-5
-0.844, 3.296e-5
-0.845, 3.294e-5
-0.846, 3.292e-5
-0.847, 3.287e-5
-0.848, 3.283e-5
-0.849, 3.280e-5
-0.850, 3.275e-5
-0.851, 3.273e-5
-0.852, 3.268e-5
-0.853, 3.266e-5
-0.854, 3.263e-5
-0.855, 3.257e-5
-0.856, 3.254e-5
-0.857, 3.252e-5
-0.858, 3.248e-5
-0.859, 3.245e-5
-0.860, 3.242e-5
-0.861, 3.237e-5
-0.862, 3.232e-5
-0.863, 3.230e-5
-0.864, 3.227e-5
-0.865, 3.224e-5
-0.866, 3.220e-5
-0.867, 3.217e-5
-0.868, 3.213e-5
-0.869, 3.209e-5
-0.870, 3.205e-5
-0.871, 3.202e-5
-0.872, 3.199e-5
-0.873, 3.196e-5
-0.874, 3.191e-5
-0.875, 3.188e-5
-0.876, 3.184e-5
-0.877, 3.180e-5
-0.878, 3.177e-5
-0.879, 3.174e-5
-0.880, 3.170e-5
-0.881, 3.167e-5
-0.882, 3.164e-5
-0.883, 3.161e-5
-0.884, 3.157e-5
-0.885, 3.154e-5
-0.886, 3.150e-5
-0.887, 3.146e-5
-0.888, 3.143e-5
-0.889, 3.140e-5
-0.890, 3.136e-5
-0.891, 3.133e-5
-0.892, 3.128e-5
-0.893, 3.125e-5
-0.894, 3.122e-5
-0.895, 3.119e-5
-0.896, 3.116e-5
-0.897, 3.109e-5
-0.898, 3.109e-5
-0.899, 3.108e-5
-0.900, 3.103e-5
-0.901, 3.100e-5
-0.902, 3.097e-5
-0.903, 3.094e-5
-0.904, 3.092e-5
-0.905, 3.089e-5
-0.906, 3.085e-5
-0.907, 3.082e-5
-0.908, 3.079e-5
-0.909, 3.076e-5
-0.910, 3.073e-5
-0.911, 3.070e-5
-0.912, 3.066e-5
-0.913, 3.064e-5
-0.914, 3.060e-5
-0.915, 3.059e-5
-0.916, 3.054e-5
-0.917, 3.052e-5
-0.918, 3.050e-5
-0.919, 3.047e-5
-0.920, 3.043e-5
-0.921, 3.041e-5
-0.922, 3.038e-5
-0.923, 3.035e-5
-0.924, 3.034e-5
-0.925, 3.033e-5
-0.926, 3.031e-5
-0.927, 3.027e-5
-0.928, 3.025e-5
-0.929, 3.025e-5
-0.930, 3.022e-5
-0.931, 3.020e-5
-0.932, 3.017e-5
-0.933, 3.016e-5
-0.934, 3.017e-5
-0.935, 3.015e-5
-0.936, 3.013e-5
-0.937, 3.013e-5
-0.938, 3.013e-5
-0.939, 3.013e-5
-0.940, 3.013e-5
-0.941, 3.012e-5
-0.942, 3.011e-5
-0.943, 3.012e-5
-0.944, 3.012e-5
-0.945, 3.012e-5
-0.946, 3.010e-5
-0.947, 3.011e-5
-0.948, 3.012e-5
-0.949, 3.015e-5
-0.950, 3.017e-5
-0.951, 3.019e-5
-0.952, 3.020e-5
-0.953, 3.024e-5
-0.954, 3.028e-5
-0.955, 3.031e-5
-0.956, 3.032e-5
-0.957, 3.036e-5
-0.958, 3.039e-5
-0.959, 3.042e-5
-0.960, 3.046e-5
-0.961, 3.053e-5
-0.962, 3.057e-5
-0.963, 3.064e-5
-0.964, 3.071e-5
-0.965, 3.080e-5
-0.966, 3.089e-5
-0.967, 3.097e-5
-0.968, 3.103e-5
-0.969, 3.111e-5
-0.970, 3.121e-5
-0.971, 3.131e-5
-0.972, 3.141e-5
-0.973, 3.154e-5
-0.974, 3.165e-5
-0.975, 3.179e-5
-0.976, 3.193e-5
-0.977, 3.207e-5
-0.978, 3.220e-5
-0.979, 3.241e-5
-0.980, 3.258e-5
-0.981, 3.272e-5
-0.982, 3.290e-5
-0.983, 3.306e-5
-0.984, 3.325e-5
-0.985, 3.346e-5
-0.986, 3.367e-5
-0.987, 3.386e-5
-0.988, 3.401e-5
-0.989, 3.421e-5
-0.990, 3.442e-5
-0.991, 3.464e-5
-0.992, 3.488e-5
-0.993, 3.513e-5
-0.994, 3.536e-5
-0.995, 3.553e-5
-0.996, 3.569e-5
-0.997, 3.587e-5
-0.998, 3.609e-5
-0.999, 3.637e-5
-1.000, 3.664e-5
-1.001, 3.682e-5
-1.002, 3.702e-5
-1.003, 3.726e-5
-1.004, 3.746e-5
-1.005, 3.770e-5
-1.006, 3.793e-5
-1.007, 3.815e-5
-1.008, 3.845e-5
-1.009, 3.869e-5
-1.010, 3.892e-5
-1.011, 3.907e-5
-1.012, 3.920e-5
-1.013, 3.942e-5
-1.014, 3.967e-5
-1.015, 3.990e-5
-1.016, 4.008e-5
-1.017, 4.032e-5
-1.018, 4.042e-5
-1.019, 4.055e-5
-1.020, 4.072e-5
-1.021, 4.088e-5
-1.022, 4.105e-5
-1.023, 4.118e-5
-1.024, 4.134e-5
-1.025, 4.143e-5
-1.026, 4.159e-5
-1.027, 4.170e-5
-1.028, 4.179e-5
-1.029, 4.203e-5
-1.030, 4.212e-5
-1.031, 4.220e-5
-1.032, 4.229e-5
-1.033, 4.238e-5
-1.034, 4.249e-5
-1.035, 4.258e-5
-1.036, 4.266e-5
-1.037, 4.280e-5
-1.038, 4.286e-5
-1.039, 4.294e-5
-1.040, 4.299e-5
-1.041, 4.306e-5
-1.042, 4.311e-5
-1.043, 4.318e-5
-1.044, 4.324e-5
-1.045, 4.331e-5
-1.046, 4.336e-5
-1.047, 4.339e-5
-1.048, 4.343e-5
-1.049, 4.352e-5
-1.050, 4.358e-5
-1.051, 4.364e-5
-1.052, 4.368e-5
-1.053, 4.374e-5
-1.054, 4.377e-5
-1.055, 4.383e-5
-1.056, 4.387e-5
-1.057, 4.395e-5
-1.058, 4.403e-5
-1.059, 4.412e-5
-1.060, 4.416e-5
-1.061, 4.429e-5
-1.062, 4.436e-5
-1.063, 4.441e-5
-1.064, 4.448e-5
-1.065, 4.456e-5
-1.066, 4.465e-5
-1.067, 4.480e-5
-1.068, 4.485e-5
-1.069, 4.491e-5
-1.070, 4.498e-5
-1.071, 4.509e-5
-1.072, 4.515e-5
-1.073, 4.529e-5
-1.074, 4.548e-5
-1.075, 4.560e-5
-1.076, 4.572e-5
-1.077, 4.582e-5
-1.078, 4.596e-5
-1.079, 4.607e-5
-1.080, 4.620e-5
-1.081, 4.632e-5
-1.082, 4.648e-5
-1.083, 4.664e-5
-1.084, 4.680e-5
-1.085, 4.697e-5
-1.086, 4.713e-5
-1.087, 4.732e-5
-1.088, 4.752e-5
-1.089, 4.769e-5
-1.090, 4.790e-5
-1.091, 4.811e-5
-1.092, 4.833e-5
-1.093, 4.852e-5
-1.094, 4.868e-5
-1.095, 4.891e-5
-1.096, 4.915e-5
-1.097, 4.940e-5
-1.098, 4.964e-5
-1.099, 4.986e-5
-1.100, 5.006e-5
-1.101, 5.034e-5
-1.102, 5.062e-5
-1.103, 5.090e-5
-1.104, 5.118e-5
-1.105, 5.146e-5
-1.106, 5.174e-5
-1.107, 5.199e-5
-1.108, 5.226e-5
-1.109, 5.254e-5
-1.110, 5.277e-5
-1.111, 5.307e-5
-1.112, 5.339e-5
-1.113, 5.370e-5
-1.114, 5.402e-5
-1.115, 5.434e-5
-1.116, 5.464e-5
-1.117, 5.499e-5
-1.118, 5.537e-5
-1.119, 5.573e-5
-1.120, 5.606e-5
-1.121, 5.646e-5
-1.122, 5.689e-5
-1.123, 5.726e-5
-1.124, 5.761e-5
-1.125, 5.804e-5
-1.126, 5.845e-5
-1.127, 5.880e-5
-1.128, 5.916e-5
-1.129, 5.951e-5
-1.130, 5.989e-5
-1.131, 6.029e-5
-1.132, 6.064e-5
-1.133, 6.101e-5
-1.134, 6.137e-5
-1.135, 6.169e-5
-1.136, 6.209e-5
-1.137, 6.248e-5
-1.138, 6.287e-5
-1.139, 6.330e-5
-1.140, 6.373e-5
-1.141, 6.416e-5
-1.142, 6.455e-5
-1.143, 6.493e-5
-1.144, 6.531e-5
-1.145, 6.569e-5
-1.146, 6.609e-5
-1.147, 6.651e-5
-1.148, 6.690e-5
-1.149, 6.732e-5
-1.150, 6.778e-5
-1.151, 6.817e-5
-1.152, 6.855e-5
-1.153, 6.894e-5
-1.154, 6.933e-5
-1.155, 6.977e-5
-1.156, 7.022e-5
-1.157, 7.062e-5
-1.158, 7.103e-5
-1.159, 7.149e-5
-1.160, 7.202e-5
-1.161, 7.238e-5
-1.162, 7.276e-5
-1.163, 7.314e-5
-1.164, 7.358e-5
-1.165, 7.404e-5
-1.166, 7.452e-5
-1.167, 7.498e-5
-1.168, 7.545e-5
-1.169, 7.592e-5
-1.170, 7.634e-5
-1.171, 7.678e-5
-1.172, 7.723e-5
-1.173, 7.770e-5
-1.174, 7.819e-5
-1.175, 7.868e-5
-1.176, 7.920e-5
-1.177, 7.973e-5
-1.178, 8.031e-5
-1.179, 8.079e-5
-1.180, 8.131e-5
-1.181, 8.186e-5
-1.182, 8.248e-5
-1.183, 8.308e-5
-1.184, 8.356e-5
-1.185, 8.408e-5
-1.186, 8.465e-5
-1.187, 8.517e-5
-1.188, 8.575e-5
-1.189, 8.634e-5
-1.190, 8.695e-5
-1.191, 8.753e-5
-1.192, 8.815e-5
-1.193, 8.877e-5
-1.194, 8.931e-5
-1.195, 8.999e-5
-1.196, 9.072e-5
-1.197, 9.128e-5
-1.198, 9.188e-5
-1.199, 9.251e-5
-1.200, 9.314e-5
-1.201, 9.377e-5
-1.202, 9.443e-5
-1.203, 9.506e-5
-1.204, 9.552e-5
-1.205, 9.612e-5
-1.206, 9.679e-5
-1.207, 9.749e-5
-1.208, 9.819e-5
-1.209, 9.892e-5
-1.210, 9.965e-5
-1.211, 1.004e-4
-1.212, 1.010e-4
-1.213, 1.017e-4
-1.214, 1.023e-4
-1.215, 1.029e-4
-1.216, 1.036e-4
-1.217, 1.042e-4
-1.218, 1.048e-4
-1.219, 1.054e-4
-1.220, 1.061e-4
-1.221, 1.068e-4
-1.222, 1.074e-4
-1.223, 1.080e-4
-1.224, 1.086e-4
-1.225, 1.092e-4
-1.226, 1.098e-4
-1.227, 1.104e-4
-1.228, 1.110e-4
-1.229, 1.117e-4
-1.230, 1.122e-4
-1.231, 1.126e-4
-1.232, 1.133e-4
-1.233, 1.138e-4
-1.234, 1.142e-4
-1.235, 1.147e-4
-1.236, 1.151e-4
-1.237, 1.155e-4
-1.238, 1.159e-4
-1.239, 1.163e-4
-1.240, 1.167e-4
-1.241, 1.170e-4
-1.242, 1.173e-4
-1.243, 1.176e-4
-1.244, 1.179e-4
-1.245, 1.182e-4
-1.246, 1.184e-4
-1.247, 1.187e-4
-1.248, 1.189e-4
-1.249, 1.191e-4
-1.250, 1.192e-4
-1.251, 1.194e-4
-1.252, 1.196e-4
-1.253, 1.196e-4
-1.254, 1.196e-4
-1.255, 1.197e-4
-1.256, 1.197e-4
-1.257, 1.198e-4
-1.258, 1.198e-4
-1.259, 1.198e-4
-1.260, 1.197e-4
-1.261, 1.195e-4
-1.262, 1.193e-4
-1.263, 1.191e-4
-1.264, 1.188e-4
-1.265, 1.186e-4
-1.266, 1.183e-4
-1.267, 1.179e-4
-1.268, 1.176e-4
-1.269, 1.172e-4
-1.270, 1.168e-4
-1.271, 1.163e-4
-1.272, 1.159e-4
-1.273, 1.156e-4
-1.274, 1.151e-4
-1.275, 1.146e-4
-1.276, 1.140e-4
-1.277, 1.134e-4
-1.278, 1.128e-4
-1.279, 1.123e-4
-1.280, 1.117e-4
-1.281, 1.111e-4
-1.282, 1.104e-4
-1.283, 1.099e-4
-1.284, 1.094e-4
-1.285, 1.088e-4
-1.286, 1.083e-4
-1.287, 1.077e-4
-1.288, 1.072e-4
-1.289, 1.067e-4
-1.290, 1.063e-4
-1.291, 1.059e-4
-1.292, 1.055e-4
-1.293, 1.051e-4
-1.294, 1.048e-4
-1.295, 1.045e-4
-1.296, 1.042e-4
-1.297, 1.039e-4
-1.298, 1.037e-4
-1.299, 1.035e-4
-1.300, 1.034e-4
-1.301, 1.033e-4
-1.302, 1.031e-4
-1.303, 1.031e-4
-1.304, 1.032e-4
-1.305, 1.033e-4
-1.306, 1.033e-4
-1.307, 1.033e-4
-1.308, 1.034e-4
-1.309, 1.035e-4
-1.310, 1.037e-4
-1.311, 1.039e-4
-1.312, 1.042e-4
-1.313, 1.044e-4
-1.314, 1.046e-4
-1.315, 1.049e-4
-1.316, 1.053e-4
-1.317, 1.057e-4
-1.318, 1.062e-4
-1.319, 1.066e-4
-1.320, 1.071e-4
-1.321, 1.076e-4
-1.322, 1.081e-4
-1.323, 1.086e-4
-1.324, 1.092e-4
-1.325, 1.098e-4
-1.326, 1.104e-4
-1.327, 1.110e-4
-1.328, 1.117e-4
-1.329, 1.125e-4
-1.330, 1.132e-4
-1.331, 1.140e-4
-1.332, 1.149e-4
-1.333, 1.158e-4
-1.334, 1.167e-4
-1.335, 1.177e-4
-1.336, 1.187e-4
-1.337, 1.197e-4
-1.338, 1.208e-4
-1.339, 1.219e-4
-1.340, 1.230e-4
-1.341, 1.243e-4
-1.342, 1.256e-4
-1.343, 1.269e-4
-1.344, 1.283e-4
-1.345, 1.297e-4
-1.346, 1.310e-4
-1.347, 1.325e-4
-1.348, 1.341e-4
-1.349, 1.356e-4
-1.350, 1.372e-4
-1.351, 1.389e-4
-1.352, 1.406e-4
-1.353, 1.424e-4
-1.354, 1.443e-4
-1.355, 1.462e-4
-1.356, 1.481e-4
-1.357, 1.502e-4
-1.358, 1.522e-4
-1.359, 1.543e-4
-1.360, 1.564e-4
-1.361, 1.586e-4
-1.362, 1.610e-4
-1.363, 1.633e-4
-1.364, 1.656e-4
-1.365, 1.681e-4
-1.366, 1.706e-4
-1.367, 1.731e-4
-1.368, 1.757e-4
-1.369, 1.783e-4
-1.370, 1.809e-4
-1.371, 1.837e-4
-1.372, 1.864e-4
-1.373, 1.892e-4
-1.374, 1.920e-4
-1.375, 1.949e-4
-1.376, 1.979e-4
-1.377, 2.009e-4
-1.378, 2.039e-4
-1.379, 2.069e-4
-1.380, 2.100e-4
-1.381, 2.131e-4
-1.382, 2.162e-4
-1.383, 2.195e-4
-1.384, 2.227e-4
-1.385, 2.259e-4
-1.386, 2.292e-4
-1.387, 2.324e-4
-1.388, 2.357e-4
-1.389, 2.389e-4
-1.390, 2.422e-4
-1.391, 2.456e-4
-1.392, 2.489e-4
-1.393, 2.522e-4
-1.394, 2.555e-4
-1.395, 2.589e-4
-1.396, 2.622e-4
-1.397, 2.655e-4
-1.398, 2.688e-4
-1.399, 2.721e-4
-1.400, 2.755e-4
-1.401, 2.788e-4
-1.402, 2.821e-4
-1.403, 2.853e-4
-1.404, 2.885e-4
-1.405, 2.917e-4
-1.406, 2.948e-4
-1.407, 2.979e-4
-1.408, 3.010e-4
-1.409, 3.041e-4
-1.410, 3.071e-4
-1.411, 3.101e-4
-1.412, 3.129e-4
-1.413, 3.157e-4
-1.414, 3.185e-4
-1.415, 3.213e-4
-1.416, 3.240e-4
-1.417, 3.266e-4
-1.418, 3.291e-4
-1.419, 3.316e-4
-1.420, 3.341e-4
-1.421, 3.365e-4
-1.422, 3.388e-4
-1.423, 3.410e-4
-1.424, 3.431e-4
-1.425, 3.451e-4
-1.426, 3.470e-4
-1.427, 3.489e-4
-1.428, 3.507e-4
-1.429, 3.523e-4
-1.430, 3.539e-4
-1.431, 3.554e-4
-1.432, 3.567e-4
-1.433, 3.579e-4
-1.434, 3.590e-4
-1.435, 3.600e-4
-1.436, 3.609e-4
-1.437, 3.616e-4
-1.438, 3.622e-4
-1.439, 3.626e-4
-1.440, 3.630e-4
-1.441, 3.631e-4
-1.442, 3.630e-4
-1.443, 3.629e-4
-1.444, 3.626e-4
-1.445, 3.621e-4
-1.446, 3.614e-4
-1.447, 3.605e-4
-1.448, 3.595e-4
-1.449, 3.583e-4
-1.450, 3.568e-4
-1.451, 3.552e-4
-1.452, 3.533e-4
-1.453, 3.513e-4
-1.454, 3.490e-4
-1.455, 3.464e-4
-1.456, 3.437e-4
-1.457, 3.408e-4
-1.458, 3.376e-4
-1.459, 3.343e-4
-1.460, 3.306e-4
-1.461, 3.267e-4
-1.462, 3.227e-4
-1.463, 3.184e-4
-1.464, 3.140e-4
-1.465, 3.094e-4
-1.466, 3.045e-4
-1.467, 2.994e-4
-1.468, 2.942e-4
-1.469, 2.889e-4
-1.470, 2.836e-4
-1.471, 2.781e-4
-1.472, 2.725e-4
-1.473, 2.670e-4
-1.474, 2.613e-4
-1.475, 2.557e-4
-1.476, 2.503e-4
-1.477, 2.449e-4
-1.478, 2.395e-4
-1.479, 2.344e-4
-1.480, 2.293e-4
-1.481, 2.245e-4
-1.482, 2.199e-4
-1.483, 2.156e-4
-1.484, 2.113e-4
-1.485, 2.071e-4
-1.486, 2.031e-4
-1.487, 1.994e-4
-1.488, 1.957e-4
-1.489, 1.923e-4
-1.490, 1.892e-4
-1.491, 1.862e-4
-1.492, 1.833e-4
-1.493, 1.807e-4
-1.494, 1.782e-4
-1.495, 1.757e-4
-1.496, 1.734e-4
-1.497, 1.712e-4
-1.498, 1.691e-4
-1.499, 1.672e-4
-1.500, 1.655e-4
-1.501, 1.641e-4
-1.502, 1.627e-4
-1.503, 1.616e-4
-1.504, 1.607e-4
-1.505, 1.599e-4
-1.506, 1.589e-4
-1.507, 1.580e-4
-1.508, 1.571e-4
-1.509, 1.564e-4
-1.510, 1.559e-4
-1.511, 1.555e-4
-1.512, 1.552e-4
-1.513, 1.550e-4
-1.514, 1.550e-4
-1.515, 1.551e-4
-1.516, 1.550e-4
-1.517, 1.551e-4
-1.518, 1.555e-4
-1.519, 1.556e-4
-1.520, 1.559e-4
-1.521, 1.565e-4
-1.522, 1.568e-4
-1.523, 1.571e-4
-1.524, 1.574e-4
-1.525, 1.577e-4
-1.526, 1.583e-4
-1.527, 1.589e-4
-1.528, 1.595e-4
-1.529, 1.600e-4
-1.530, 1.605e-4
-1.531, 1.613e-4
-1.532, 1.620e-4
-1.533, 1.626e-4
-1.534, 1.632e-4
-1.535, 1.640e-4
-1.536, 1.650e-4
-1.537, 1.658e-4
-1.538, 1.666e-4
-1.539, 1.676e-4
-1.540, 1.685e-4
-1.541, 1.696e-4
-1.542, 1.705e-4
-1.543, 1.714e-4
-1.544, 1.726e-4
-1.545, 1.737e-4
-1.546, 1.746e-4
-1.547, 1.756e-4
-1.548, 1.769e-4
-1.549, 1.779e-4
-1.550, 1.788e-4
-1.551, 1.796e-4
-1.552, 1.806e-4
-1.553, 1.817e-4
-1.554, 1.828e-4
-1.555, 1.835e-4
-1.556, 1.841e-4
-1.557, 1.851e-4
-1.558, 1.860e-4
-1.559, 1.865e-4
-1.560, 1.873e-4
-1.561, 1.881e-4
-1.562, 1.891e-4
-1.563, 1.899e-4
-1.564, 1.905e-4
-1.565, 1.907e-4
-1.566, 1.914e-4
-1.567, 1.916e-4
-1.568, 1.917e-4
-1.569, 1.914e-4
-1.570, 1.912e-4
-1.571, 1.912e-4
-1.572, 1.911e-4
-1.573, 1.912e-4
-1.574, 1.915e-4
-1.575, 1.916e-4
-1.576, 1.917e-4
-1.577, 1.919e-4
-1.578, 1.919e-4
-1.579, 1.923e-4
-1.580, 1.923e-4
-1.581, 1.921e-4
-1.582, 1.921e-4
-1.583, 1.913e-4
-1.584, 1.906e-4
-1.585, 1.902e-4
-1.586, 1.902e-4
-1.587, 1.904e-4
-1.588, 1.897e-4
-1.589, 1.888e-4
-1.590, 1.882e-4
-1.591, 1.879e-4
-1.592, 1.875e-4
-1.593, 1.868e-4
-1.594, 1.862e-4
-1.595, 1.858e-4
-1.596, 1.855e-4
-1.597, 1.851e-4
-1.598, 1.847e-4
-1.599, 1.845e-4
-1.600, 1.837e-4
-1.601, 1.832e-4
-1.602, 1.829e-4
-1.603, 1.827e-4
-1.604, 1.826e-4
-1.605, 1.828e-4
-1.606, 1.828e-4
-1.607, 1.829e-4
-1.608, 1.836e-4
-1.609, 1.840e-4
-1.610, 1.845e-4
-1.611, 1.845e-4
-1.612, 1.839e-4
-1.613, 1.832e-4
-1.614, 1.824e-4
-1.615, 1.820e-4
-1.616, 1.824e-4
-1.617, 1.826e-4
-1.618, 1.830e-4
-1.619, 1.831e-4
-1.620, 1.830e-4
-1.621, 1.836e-4
-1.622, 1.843e-4
-1.623, 1.841e-4
-1.624, 1.835e-4
-1.625, 1.837e-4
-1.626, 1.837e-4
-1.627, 1.841e-4
-1.628, 1.844e-4
-1.629, 1.850e-4
-1.630, 1.854e-4
-1.631, 1.856e-4
-1.632, 1.855e-4
-1.633, 1.860e-4
-1.634, 1.866e-4
-1.635, 1.867e-4
-1.636, 1.868e-4
-1.637, 1.876e-4
-1.638, 1.885e-4
-1.639, 1.898e-4
-1.640, 1.901e-4
-1.641, 1.903e-4
-1.642, 1.905e-4
-1.643, 1.905e-4
-1.644, 1.911e-4
-1.645, 1.922e-4
-1.646, 1.932e-4
-1.647, 1.939e-4
-1.648, 1.951e-4
-1.649, 1.956e-4
-1.650, 1.958e-4
-1.651, 1.958e-4
-1.652, 1.968e-4
-1.653, 1.978e-4
-1.654, 1.987e-4
-1.655, 1.995e-4
-1.656, 2.002e-4
-1.657, 2.011e-4
-1.658, 2.022e-4
-1.659, 2.032e-4
-1.660, 2.039e-4
-1.661, 2.041e-4
-1.662, 2.049e-4
-1.663, 2.063e-4
-1.664, 2.077e-4
-1.665, 2.082e-4
-1.666, 2.088e-4
-1.667, 2.094e-4
-1.668, 2.100e-4
-1.669, 2.108e-4
-1.670, 2.115e-4
-1.671, 2.119e-4
-1.672, 2.130e-4
-1.673, 2.136e-4
-1.674, 2.134e-4
-1.675, 2.138e-4
-1.676, 2.152e-4
-1.677, 2.164e-4
-1.678, 2.167e-4
-1.679, 2.170e-4
-1.680, 2.174e-4
-1.681, 2.180e-4
-1.682, 2.193e-4
-1.683, 2.213e-4
-1.684, 2.226e-4
-1.685, 2.232e-4
-1.686, 2.240e-4
-1.687, 2.247e-4
-1.688, 2.255e-4
-1.689, 2.271e-4
-1.690, 2.288e-4
-1.691, 2.300e-4
-1.692, 2.306e-4
-1.693, 2.302e-4
-1.694, 2.305e-4
-1.695, 2.308e-4
-1.696, 2.319e-4
-1.697, 2.328e-4
-1.698, 2.336e-4
-1.699, 2.346e-4
-1.700, 2.357e-4
-1.701, 2.370e-4
-1.702, 2.385e-4
-1.703, 2.398e-4
-1.704, 2.407e-4
-1.705, 2.421e-4
-1.706, 2.431e-4
-1.707, 2.441e-4
-1.708, 2.454e-4
-1.709, 2.462e-4
-1.710, 2.468e-4
-1.711, 2.484e-4
-1.712, 2.506e-4
-1.713, 2.521e-4
-1.714, 2.536e-4
-1.715, 2.557e-4
-1.716, 2.576e-4
-1.717, 2.590e-4
-1.718, 2.601e-4
-1.719, 2.613e-4
-1.720, 2.632e-4
-1.721, 2.655e-4
-1.722, 2.669e-4
-1.723, 2.687e-4
-1.724, 2.705e-4
-1.725, 2.729e-4
-1.726, 2.745e-4
-1.727, 2.762e-4
-1.728, 2.788e-4
-1.729, 2.810e-4
-1.730, 2.822e-4
-1.731, 2.830e-4
-1.732, 2.841e-4
-1.733, 2.859e-4
-1.734, 2.875e-4
-1.735, 2.892e-4
-1.736, 2.910e-4
-1.737, 2.929e-4
-1.738, 2.951e-4
-1.739, 2.968e-4
-1.740, 2.985e-4
-1.741, 3.007e-4
-1.742, 3.023e-4
-1.743, 3.035e-4
-1.744, 3.059e-4
-1.745, 3.090e-4
-1.746, 3.115e-4
-1.747, 3.141e-4
-1.748, 3.163e-4
-1.749, 3.184e-4
-1.750, 3.204e-4
-1.751, 3.228e-4
-1.752, 3.250e-4
-1.753, 3.277e-4
-1.754, 3.304e-4
-1.755, 3.335e-4
-1.756, 3.365e-4
-1.757, 3.397e-4
-1.758, 3.432e-4
-1.759, 3.464e-4
-1.760, 3.495e-4
-1.761, 3.528e-4
-1.762, 3.562e-4
-1.763, 3.593e-4
-1.764, 3.630e-4
-1.765, 3.672e-4
-1.766, 3.707e-4
-1.767, 3.738e-4
-1.768, 3.777e-4
-1.769, 3.809e-4
-1.770, 3.840e-4
-1.771, 3.881e-4
-1.772, 3.926e-4
-1.773, 3.973e-4
-1.774, 4.014e-4
-1.775, 4.048e-4
-1.776, 4.082e-4
-1.777, 4.115e-4
-1.778, 4.157e-4
-1.779, 4.203e-4
-1.780, 4.247e-4
-1.781, 4.291e-4
-1.782, 4.335e-4
-1.783, 4.380e-4
-1.784, 4.425e-4
-1.785, 4.473e-4
-1.786, 4.518e-4
-1.787, 4.565e-4
-1.788, 4.615e-4
-1.789, 4.661e-4
-1.790, 4.713e-4
-1.791, 4.769e-4
-1.792, 4.818e-4
-1.793, 4.870e-4
-1.794, 4.925e-4
-1.795, 4.974e-4
-1.796, 5.030e-4
-1.797, 5.084e-4
-1.798, 5.137e-4
-1.799, 5.189e-4
-1.800, 5.246e-4
-1.801, 5.305e-4
-1.802, 5.362e-4
-1.803, 5.418e-4
-1.804, 5.475e-4
-1.805, 5.535e-4
-1.806, 5.593e-4
-1.807, 5.655e-4
-1.808, 5.712e-4
-1.809, 5.773e-4
-1.810, 5.838e-4
-1.811, 5.904e-4
-1.812, 5.967e-4
-1.813, 6.030e-4
-1.814, 6.090e-4
-1.815, 6.149e-4
-1.816, 6.216e-4
-1.817, 6.284e-4
-1.818, 6.347e-4
-1.819, 6.415e-4
-1.820, 6.479e-4
-1.821, 6.546e-4
-1.822, 6.614e-4
-1.823, 6.682e-4
-1.824, 6.753e-4
-1.825, 6.823e-4
-1.826, 6.895e-4
-1.827, 6.962e-4
-1.828, 7.030e-4
-1.829, 7.099e-4
-1.830, 7.171e-4
-1.831, 7.244e-4
-1.832, 7.315e-4
-1.833, 7.389e-4
-1.834, 7.464e-4
-1.835, 7.537e-4
-1.836, 7.615e-4
-1.837, 7.692e-4
-1.838, 7.765e-4
-1.839, 7.842e-4
-1.840, 7.925e-4
-1.841, 8.003e-4
-1.842, 8.077e-4
-1.843, 8.155e-4
-1.844, 8.233e-4
-1.845, 8.314e-4
-1.846, 8.395e-4
-1.847, 8.475e-4
-1.848, 8.559e-4
-1.849, 8.638e-4
-1.850, 8.717e-4
-1.851, 8.795e-4
-1.852, 8.878e-4
-1.853, 8.965e-4
-1.854, 9.051e-4
-1.855, 9.136e-4
-1.856, 9.221e-4
-1.857, 9.309e-4
-1.858, 9.396e-4
-1.859, 9.484e-4
-1.860, 9.571e-4
-1.861, 9.657e-4
-1.862, 9.746e-4
-1.863, 9.829e-4
-1.864, 9.915e-4
-1.865, 1.001e-3
-1.866, 1.010e-3
-1.867, 1.011e-3
-1.868, 1.011e-3
-1.869, 1.011e-3
-1.870, 1.011e-3
-1.871, 1.011e-3
-1.872, 1.011e-3
-1.873, 1.011e-3
-1.874, 1.011e-3
-1.875, 1.011e-3
-1.876, 1.011e-3
-1.877, 1.011e-3
-1.878, 1.011e-3
-1.879, 1.011e-3
-1.880, 1.011e-3
-1.881, 1.011e-3
-1.882, 1.011e-3
-1.883, 1.011e-3
-1.884, 1.011e-3
-1.885, 1.011e-3
-1.886, 1.011e-3
-1.887, 1.011e-3
-1.888, 1.011e-3
-1.889, 1.011e-3
-1.890, 1.011e-3
-1.891, 1.011e-3
-1.892, 1.011e-3
-1.893, 1.011e-3
-1.894, 1.011e-3
-1.895, 1.011e-3
-1.896, 1.011e-3
-1.897, 1.011e-3
-1.898, 1.011e-3
-1.899, 1.011e-3
-1.900, 1.011e-3
-1.901, 1.011e-3
-1.902, 1.011e-3
-1.903, 1.011e-3
-1.904, 1.011e-3
-1.905, 1.011e-3
-1.906, 1.011e-3
-1.907, 1.011e-3
-1.908, 1.011e-3
-1.909, 1.011e-3
-1.910, 1.011e-3
-1.911, 1.011e-3
-1.912, 1.011e-3
-1.913, 1.011e-3
-1.914, 1.011e-3
-1.915, 1.011e-3
-1.916, 1.011e-3
-1.917, 1.011e-3
-1.918, 1.011e-3
-1.919, 1.011e-3
-1.920, 1.011e-3
-1.921, 1.011e-3
-1.922, 1.011e-3
-1.923, 1.011e-3
-1.924, 1.011e-3
-1.925, 1.011e-3
-1.926, 1.011e-3
-1.927, 1.011e-3
-1.928, 1.011e-3
-1.929, 1.011e-3
-1.930, 1.011e-3
-1.931, 1.011e-3
-1.932, 1.011e-3
-1.933, 1.011e-3
-1.934, 1.011e-3
-1.935, 1.011e-3
-1.936, 1.011e-3
-1.937, 1.011e-3
-1.938, 1.011e-3
-1.939, 1.011e-3
-1.940, 1.011e-3
-1.941, 1.011e-3
-1.942, 1.011e-3
-1.943, 1.011e-3
-1.944, 1.011e-3
-1.945, 1.011e-3
-1.946, 1.011e-3
-1.947, 1.011e-3
-1.948, 1.011e-3
-1.949, 1.011e-3
-1.950, 1.011e-3
-1.951, 1.011e-3
-1.952, 1.011e-3
-1.953, 1.011e-3
-1.954, 1.011e-3
-1.955, 1.011e-3
-1.956, 1.011e-3
-1.957, 1.011e-3
-1.958, 1.011e-3
-1.959, 1.011e-3
-1.960, 1.011e-3
-1.961, 1.011e-3
-1.962, 1.011e-3
-1.963, 1.011e-3
-1.964, 1.011e-3
-1.965, 1.011e-3
-1.966, 1.011e-3
-1.967, 1.011e-3
-1.968, 1.011e-3
-1.969, 1.011e-3
-1.970, 1.011e-3
-1.971, 1.011e-3
-1.972, 1.011e-3
-1.973, 1.011e-3
-1.974, 1.011e-3
-1.975, 1.011e-3
-1.976, 1.011e-3
-1.977, 1.011e-3
-1.978, 1.011e-3
-1.979, 1.011e-3
-1.980, 1.011e-3
-1.981, 1.011e-3
-1.982, 1.011e-3
-1.983, 1.011e-3
-1.984, 1.011e-3
-1.985, 1.011e-3
-1.986, 1.011e-3
-1.987, 1.011e-3
-1.988, 1.011e-3
-1.989, 1.011e-3
-1.990, 1.011e-3
-1.991, 1.011e-3
-1.992, 1.011e-3
-1.993, 1.011e-3
-1.994, 1.011e-3
-1.995, 1.011e-3
-1.996, 1.011e-3
-1.997, 1.011e-3
-1.998, 1.011e-3
-1.999, 1.011e-3
-2.000, 1.011e-3
-2.001, 1.011e-3
-2.002, 1.011e-3
-2.003, 1.011e-3
-2.004, 1.011e-3
-2.005, 1.011e-3
-2.006, 1.011e-3
-2.007, 1.011e-3
-2.008, 1.011e-3
-2.009, 1.011e-3
-2.010, 1.011e-3
-2.011, 1.011e-3
-2.012, 1.011e-3
-2.013, 1.011e-3
-2.014, 1.011e-3
-2.015, 1.011e-3
-2.016, 1.011e-3
-2.017, 1.011e-3
-2.018, 1.011e-3
-2.019, 1.011e-3
-2.020, 1.011e-3
-2.021, 1.011e-3
-2.022, 1.011e-3
-2.023, 1.011e-3
-2.024, 1.011e-3
-2.025, 1.011e-3
-2.026, 1.011e-3
-2.027, 1.011e-3
-2.028, 1.011e-3
-2.029, 1.011e-3
-2.030, 1.011e-3
-2.031, 1.011e-3
-2.032, 1.011e-3
-2.033, 1.011e-3
-2.034, 1.011e-3
-2.035, 1.011e-3
-2.036, 1.011e-3
-2.037, 1.011e-3
-2.038, 1.011e-3
-2.039, 1.011e-3
-2.040, 1.011e-3
-2.041, 1.011e-3
-2.042, 1.011e-3
-2.043, 1.011e-3
-2.044, 1.011e-3
-2.045, 1.011e-3
-2.046, 1.011e-3
-2.047, 1.011e-3
-2.048, 1.011e-3
-2.049, 1.011e-3
-2.050, 1.011e-3
-2.051, 1.011e-3
-2.052, 1.011e-3
-2.053, 1.011e-3
-2.054, 1.011e-3
-2.055, 1.011e-3
-2.056, 1.011e-3
-2.057, 1.011e-3
-2.058, 1.011e-3
-2.059, 1.011e-3
-2.060, 1.011e-3
-2.061, 1.011e-3
-2.062, 1.011e-3
-2.063, 1.011e-3
-2.064, 1.011e-3
-2.065, 1.011e-3
-2.066, 1.011e-3
-2.067, 1.011e-3
-2.068, 1.011e-3
-2.069, 1.011e-3
-2.070, 1.011e-3
-2.071, 1.011e-3
-2.072, 1.011e-3
-2.073, 1.011e-3
-2.074, 1.011e-3
-2.075, 1.011e-3
-2.076, 1.011e-3
-2.077, 1.011e-3
-2.078, 1.011e-3
-2.079, 1.011e-3
-2.080, 1.011e-3
-2.081, 1.011e-3
-2.082, 1.011e-3
-2.083, 1.011e-3
-2.084, 1.011e-3
-2.085, 1.011e-3
-2.086, 1.011e-3
-2.087, 1.011e-3
-2.088, 1.011e-3
-2.089, 1.011e-3
-2.090, 1.011e-3
-2.091, 1.011e-3
-2.092, 1.011e-3
-2.093, 1.011e-3
-2.094, 1.011e-3
-2.095, 1.011e-3
-2.096, 1.011e-3
-2.097, 1.011e-3
-2.098, 1.011e-3
-2.099, 1.011e-3
