Dec. 20, 2024   00:01:11
Linear Sweep Voltammetry
File: c:/users/guazh/data/banditlqround7_x0exp667_r5/2024-12-16-exp705\regeneratedgce-2024-12-19t23_58_09-lsvinkoh\regeneratedgce_lsv_50mvs_efin_-1700mv.bin
Data Source:  Experiment
Instrument Model:  CHI760E
Header: LSV ran at 50 mVs with Efin at -1700mV
Note: 

Init E (V) = -0.6
Final E (V) = -1.7
Scan Rate (V/s) = 0.05
Sample Interval (V) = 0.001
Quiet Time (sec) = 2
Sensitivity (A/V) = 1e-4
Comp R (ohm) = 1.3

Results:

Channel 1:

Potential/V, Current/A

-0.600, 6.620e-7
-0.601, 7.709e-7
-0.602, 8.003e-7
-0.603, 8.176e-7
-0.604, 8.298e-7
-0.605, 8.383e-7
-0.606, 8.451e-7
-0.607, 8.531e-7
-0.608, 8.633e-7
-0.609, 8.705e-7
-0.610, 8.730e-7
-0.611, 8.784e-7
-0.612, 8.854e-7
-0.613, 8.937e-7
-0.614, 8.995e-7
-0.615, 9.038e-7
-0.616, 9.065e-7
-0.617, 9.122e-7
-0.618, 9.189e-7
-0.619, 9.240e-7
-0.620, 9.255e-7
-0.621, 9.286e-7
-0.622, 9.360e-7
-0.623, 9.421e-7
-0.624, 9.461e-7
-0.625, 9.488e-7
-0.626, 9.508e-7
-0.627, 9.570e-7
-0.628, 9.626e-7
-0.629, 9.656e-7
-0.630, 9.696e-7
-0.631, 9.722e-7
-0.632, 9.755e-7
-0.633, 9.817e-7
-0.634, 9.854e-7
-0.635, 9.871e-7
-0.636, 9.899e-7
-0.637, 9.941e-7
-0.638, 1.000e-6
-0.639, 1.003e-6
-0.640, 1.005e-6
-0.641, 1.008e-6
-0.642, 1.013e-6
-0.643, 1.019e-6
-0.644, 1.022e-6
-0.645, 1.023e-6
-0.646, 1.028e-6
-0.647, 1.031e-6
-0.648, 1.038e-6
-0.649, 1.042e-6
-0.650, 1.041e-6
-0.651, 1.044e-6
-0.652, 1.049e-6
-0.653, 1.055e-6
-0.654, 1.059e-6
-0.655, 1.059e-6
-0.656, 1.062e-6
-0.657, 1.066e-6
-0.658, 1.072e-6
-0.659, 1.075e-6
-0.660, 1.077e-6
-0.661, 1.079e-6
-0.662, 1.084e-6
-0.663, 1.089e-6
-0.664, 1.090e-6
-0.665, 1.093e-6
-0.666, 1.096e-6
-0.667, 1.099e-6
-0.668, 1.106e-6
-0.669, 1.107e-6
-0.670, 1.108e-6
-0.671, 1.111e-6
-0.672, 1.114e-6
-0.673, 1.120e-6
-0.674, 1.122e-6
-0.675, 1.123e-6
-0.676, 1.125e-6
-0.677, 1.130e-6
-0.678, 1.136e-6
-0.679, 1.138e-6
-0.680, 1.139e-6
-0.681, 1.143e-6
-0.682, 1.145e-6
-0.683, 1.150e-6
-0.684, 1.154e-6
-0.685, 1.154e-6
-0.686, 1.156e-6
-0.687, 1.159e-6
-0.688, 1.165e-6
-0.689, 1.169e-6
-0.690, 1.167e-6
-0.691, 1.172e-6
-0.692, 1.177e-6
-0.693, 1.182e-6
-0.694, 1.184e-6
-0.695, 1.184e-6
-0.696, 1.187e-6
-0.697, 1.191e-6
-0.698, 1.197e-6
-0.699, 1.200e-6
-0.700, 1.200e-6
-0.701, 1.203e-6
-0.702, 1.207e-6
-0.703, 1.212e-6
-0.704, 1.215e-6
-0.705, 1.216e-6
-0.706, 1.216e-6
-0.707, 1.222e-6
-0.708, 1.227e-6
-0.709, 1.229e-6
-0.710, 1.232e-6
-0.711, 1.233e-6
-0.712, 1.236e-6
-0.713, 1.242e-6
-0.714, 1.243e-6
-0.715, 1.245e-6
-0.716, 1.248e-6
-0.717, 1.251e-6
-0.718, 1.258e-6
-0.719, 1.259e-6
-0.720, 1.260e-6
-0.721, 1.263e-6
-0.722, 1.265e-6
-0.723, 1.270e-6
-0.724, 1.271e-6
-0.725, 1.274e-6
-0.726, 1.276e-6
-0.727, 1.279e-6
-0.728, 1.286e-6
-0.729, 1.289e-6
-0.730, 1.289e-6
-0.731, 1.292e-6
-0.732, 1.296e-6
-0.733, 1.301e-6
-0.734, 1.304e-6
-0.735, 1.303e-6
-0.736, 1.306e-6
-0.737, 1.311e-6
-0.738, 1.316e-6
-0.739, 1.317e-6
-0.740, 1.319e-6
-0.741, 1.319e-6
-0.742, 1.325e-6
-0.743, 1.331e-6
-0.744, 1.333e-6
-0.745, 1.334e-6
-0.746, 1.335e-6
-0.747, 1.341e-6
-0.748, 1.345e-6
-0.749, 1.348e-6
-0.750, 1.349e-6
-0.751, 1.351e-6
-0.752, 1.354e-6
-0.753, 1.361e-6
-0.754, 1.363e-6
-0.755, 1.364e-6
-0.756, 1.366e-6
-0.757, 1.369e-6
-0.758, 1.377e-6
-0.759, 1.378e-6
-0.760, 1.379e-6
-0.761, 1.382e-6
-0.762, 1.385e-6
-0.763, 1.390e-6
-0.764, 1.391e-6
-0.765, 1.391e-6
-0.766, 1.394e-6
-0.767, 1.398e-6
-0.768, 1.406e-6
-0.769, 1.408e-6
-0.770, 1.407e-6
-0.771, 1.410e-6
-0.772, 1.414e-6
-0.773, 1.420e-6
-0.774, 1.422e-6
-0.775, 1.424e-6
-0.776, 1.426e-6
-0.777, 1.429e-6
-0.778, 1.434e-6
-0.779, 1.437e-6
-0.780, 1.437e-6
-0.781, 1.439e-6
-0.782, 1.444e-6
-0.783, 1.451e-6
-0.784, 1.451e-6
-0.785, 1.455e-6
-0.786, 1.456e-6
-0.787, 1.461e-6
-0.788, 1.466e-6
-0.789, 1.468e-6
-0.790, 1.469e-6
-0.791, 1.472e-6
-0.792, 1.477e-6
-0.793, 1.484e-6
-0.794, 1.485e-6
-0.795, 1.486e-6
-0.796, 1.488e-6
-0.797, 1.493e-6
-0.798, 1.499e-6
-0.799, 1.500e-6
-0.800, 1.501e-6
-0.801, 1.505e-6
-0.802, 1.508e-6
-0.803, 1.515e-6
-0.804, 1.516e-6
-0.805, 1.517e-6
-0.806, 1.520e-6
-0.807, 1.525e-6
-0.808, 1.530e-6
-0.809, 1.532e-6
-0.810, 1.533e-6
-0.811, 1.534e-6
-0.812, 1.540e-6
-0.813, 1.546e-6
-0.814, 1.549e-6
-0.815, 1.550e-6
-0.816, 1.552e-6
-0.817, 1.556e-6
-0.818, 1.561e-6
-0.819, 1.567e-6
-0.820, 1.570e-6
-0.821, 1.569e-6
-0.822, 1.575e-6
-0.823, 1.580e-6
-0.824, 1.581e-6
-0.825, 1.584e-6
-0.826, 1.586e-6
-0.827, 1.590e-6
-0.828, 1.597e-6
-0.829, 1.598e-6
-0.830, 1.600e-6
-0.831, 1.601e-6
-0.832, 1.607e-6
-0.833, 1.612e-6
-0.834, 1.614e-6
-0.835, 1.616e-6
-0.836, 1.618e-6
-0.837, 1.621e-6
-0.838, 1.627e-6
-0.839, 1.630e-6
-0.840, 1.630e-6
-0.841, 1.634e-6
-0.842, 1.638e-6
-0.843, 1.644e-6
-0.844, 1.645e-6
-0.845, 1.647e-6
-0.846, 1.651e-6
-0.847, 1.655e-6
-0.848, 1.662e-6
-0.849, 1.663e-6
-0.850, 1.663e-6
-0.851, 1.667e-6
-0.852, 1.672e-6
-0.853, 1.676e-6
-0.854, 1.680e-6
-0.855, 1.681e-6
-0.856, 1.683e-6
-0.857, 1.689e-6
-0.858, 1.694e-6
-0.859, 1.696e-6
-0.860, 1.698e-6
-0.861, 1.700e-6
-0.862, 1.706e-6
-0.863, 1.711e-6
-0.864, 1.714e-6
-0.865, 1.715e-6
-0.866, 1.718e-6
-0.867, 1.724e-6
-0.868, 1.730e-6
-0.869, 1.732e-6
-0.870, 1.734e-6
-0.871, 1.739e-6
-0.872, 1.743e-6
-0.873, 1.751e-6
-0.874, 1.752e-6
-0.875, 1.753e-6
-0.876, 1.757e-6
-0.877, 1.761e-6
-0.878, 1.767e-6
-0.879, 1.768e-6
-0.880, 1.770e-6
-0.881, 1.775e-6
-0.882, 1.778e-6
-0.883, 1.785e-6
-0.884, 1.787e-6
-0.885, 1.789e-6
-0.886, 1.794e-6
-0.887, 1.796e-6
-0.888, 1.804e-6
-0.889, 1.806e-6
-0.890, 1.807e-6
-0.891, 1.811e-6
-0.892, 1.816e-6
-0.893, 1.822e-6
-0.894, 1.825e-6
-0.895, 1.825e-6
-0.896, 1.830e-6
-0.897, 1.836e-6
-0.898, 1.841e-6
-0.899, 1.845e-6
-0.900, 1.847e-6
-0.901, 1.849e-6
-0.902, 1.856e-6
-0.903, 1.862e-6
-0.904, 1.864e-6
-0.905, 1.866e-6
-0.906, 1.869e-6
-0.907, 1.875e-6
-0.908, 1.882e-6
-0.909, 1.884e-6
-0.910, 1.886e-6
-0.911, 1.890e-6
-0.912, 1.896e-6
-0.913, 1.902e-6
-0.914, 1.904e-6
-0.915, 1.907e-6
-0.916, 1.909e-6
-0.917, 1.915e-6
-0.918, 1.922e-6
-0.919, 1.924e-6
-0.920, 1.927e-6
-0.921, 1.930e-6
-0.922, 1.936e-6
-0.923, 1.943e-6
-0.924, 1.945e-6
-0.925, 1.947e-6
-0.926, 1.952e-6
-0.927, 1.957e-6
-0.928, 1.964e-6
-0.929, 1.967e-6
-0.930, 1.968e-6
-0.931, 1.973e-6
-0.932, 1.979e-6
-0.933, 1.984e-6
-0.934, 1.988e-6
-0.935, 1.989e-6
-0.936, 1.995e-6
-0.937, 2.002e-6
-0.938, 2.007e-6
-0.939, 2.010e-6
-0.940, 2.014e-6
-0.941, 2.017e-6
-0.942, 2.023e-6
-0.943, 2.031e-6
-0.944, 2.032e-6
-0.945, 2.036e-6
-0.946, 2.040e-6
-0.947, 2.048e-6
-0.948, 2.056e-6
-0.949, 2.058e-6
-0.950, 2.062e-6
-0.951, 2.065e-6
-0.952, 2.072e-6
-0.953, 2.079e-6
-0.954, 2.080e-6
-0.955, 2.085e-6
-0.956, 2.089e-6
-0.957, 2.095e-6
-0.958, 2.103e-6
-0.959, 2.107e-6
-0.960, 2.108e-6
-0.961, 2.113e-6
-0.962, 2.120e-6
-0.963, 2.127e-6
-0.964, 2.130e-6
-0.965, 2.131e-6
-0.966, 2.138e-6
-0.967, 2.145e-6
-0.968, 2.151e-6
-0.969, 2.155e-6
-0.970, 2.157e-6
-0.971, 2.162e-6
-0.972, 2.168e-6
-0.973, 2.176e-6
-0.974, 2.180e-6
-0.975, 2.181e-6
-0.976, 2.186e-6
-0.977, 2.193e-6
-0.978, 2.199e-6
-0.979, 2.203e-6
-0.980, 2.206e-6
-0.981, 2.210e-6
-0.982, 2.218e-6
-0.983, 2.225e-6
-0.984, 2.227e-6
-0.985, 2.233e-6
-0.986, 2.236e-6
-0.987, 2.244e-6
-0.988, 2.251e-6
-0.989, 2.253e-6
-0.990, 2.257e-6
-0.991, 2.261e-6
-0.992, 2.268e-6
-0.993, 2.277e-6
-0.994, 2.280e-6
-0.995, 2.285e-6
-0.996, 2.288e-6
-0.997, 2.296e-6
-0.998, 2.305e-6
-0.999, 2.308e-6
-1.000, 2.310e-6
-1.001, 2.317e-6
-1.002, 2.324e-6
-1.003, 2.333e-6
-1.004, 2.337e-6
-1.005, 2.340e-6
-1.006, 2.344e-6
-1.007, 2.353e-6
-1.008, 2.361e-6
-1.009, 2.367e-6
-1.010, 2.369e-6
-1.011, 2.374e-6
-1.012, 2.384e-6
-1.013, 2.391e-6
-1.014, 2.398e-6
-1.015, 2.401e-6
-1.016, 2.406e-6
-1.017, 2.415e-6
-1.018, 2.421e-6
-1.019, 2.426e-6
-1.020, 2.430e-6
-1.021, 2.434e-6
-1.022, 2.444e-6
-1.023, 2.451e-6
-1.024, 2.459e-6
-1.025, 2.462e-6
-1.026, 2.465e-6
-1.027, 2.475e-6
-1.028, 2.482e-6
-1.029, 2.486e-6
-1.030, 2.491e-6
-1.031, 2.496e-6
-1.032, 2.504e-6
-1.033, 2.513e-6
-1.034, 2.516e-6
-1.035, 2.523e-6
-1.036, 2.527e-6
-1.037, 2.536e-6
-1.038, 2.544e-6
-1.039, 2.548e-6
-1.040, 2.552e-6
-1.041, 2.559e-6
-1.042, 2.568e-6
-1.043, 2.575e-6
-1.044, 2.580e-6
-1.045, 2.584e-6
-1.046, 2.591e-6
-1.047, 2.599e-6
-1.048, 2.608e-6
-1.049, 2.613e-6
-1.050, 2.617e-6
-1.051, 2.623e-6
-1.052, 2.631e-6
-1.053, 2.639e-6
-1.054, 2.645e-6
-1.055, 2.648e-6
-1.056, 2.653e-6
-1.057, 2.663e-6
-1.058, 2.671e-6
-1.059, 2.677e-6
-1.060, 2.680e-6
-1.061, 2.684e-6
-1.062, 2.694e-6
-1.063, 2.702e-6
-1.064, 2.705e-6
-1.065, 2.711e-6
-1.066, 2.716e-6
-1.067, 2.725e-6
-1.068, 2.734e-6
-1.069, 2.739e-6
-1.070, 2.744e-6
-1.071, 2.750e-6
-1.072, 2.756e-6
-1.073, 2.766e-6
-1.074, 2.769e-6
-1.075, 2.776e-6
-1.076, 2.783e-6
-1.077, 2.791e-6
-1.078, 2.798e-6
-1.079, 2.803e-6
-1.080, 2.807e-6
-1.081, 2.813e-6
-1.082, 2.821e-6
-1.083, 2.831e-6
-1.084, 2.834e-6
-1.085, 2.838e-6
-1.086, 2.844e-6
-1.087, 2.852e-6
-1.088, 2.862e-6
-1.089, 2.866e-6
-1.090, 2.870e-6
-1.091, 2.875e-6
-1.092, 2.885e-6
-1.093, 2.891e-6
-1.094, 2.898e-6
-1.095, 2.901e-6
-1.096, 2.906e-6
-1.097, 2.918e-6
-1.098, 2.925e-6
-1.099, 2.930e-6
-1.100, 2.934e-6
-1.101, 2.940e-6
-1.102, 2.949e-6
-1.103, 2.957e-6
-1.104, 2.960e-6
-1.105, 2.967e-6
-1.106, 2.970e-6
-1.107, 2.979e-6
-1.108, 2.988e-6
-1.109, 2.991e-6
-1.110, 2.994e-6
-1.111, 3.001e-6
-1.112, 3.009e-6
-1.113, 3.019e-6
-1.114, 3.023e-6
-1.115, 3.027e-6
-1.116, 3.032e-6
-1.117, 3.041e-6
-1.118, 3.052e-6
-1.119, 3.055e-6
-1.120, 3.060e-6
-1.121, 3.064e-6
-1.122, 3.073e-6
-1.123, 3.083e-6
-1.124, 3.087e-6
-1.125, 3.090e-6
-1.126, 3.098e-6
-1.127, 3.108e-6
-1.128, 3.116e-6
-1.129, 3.120e-6
-1.130, 3.124e-6
-1.131, 3.129e-6
-1.132, 3.139e-6
-1.133, 3.146e-6
-1.134, 3.152e-6
-1.135, 3.156e-6
-1.136, 3.162e-6
-1.137, 3.171e-6
-1.138, 3.179e-6
-1.139, 3.185e-6
-1.140, 3.189e-6
-1.141, 3.193e-6
-1.142, 3.202e-6
-1.143, 3.209e-6
-1.144, 3.214e-6
-1.145, 3.220e-6
-1.146, 3.225e-6
-1.147, 3.235e-6
-1.148, 3.243e-6
-1.149, 3.247e-6
-1.150, 3.252e-6
-1.151, 3.256e-6
-1.152, 3.265e-6
-1.153, 3.274e-6
-1.154, 3.276e-6
-1.155, 3.282e-6
-1.156, 3.287e-6
-1.157, 3.296e-6
-1.158, 3.306e-6
-1.159, 3.309e-6
-1.160, 3.312e-6
-1.161, 3.319e-6
-1.162, 3.325e-6
-1.163, 3.336e-6
-1.164, 3.339e-6
-1.165, 3.345e-6
-1.166, 3.350e-6
-1.167, 3.360e-6
-1.168, 3.369e-6
-1.169, 3.372e-6
-1.170, 3.375e-6
-1.171, 3.381e-6
-1.172, 3.392e-6
-1.173, 3.400e-6
-1.174, 3.404e-6
-1.175, 3.408e-6
-1.176, 3.413e-6
-1.177, 3.423e-6
-1.178, 3.433e-6
-1.179, 3.435e-6
-1.180, 3.441e-6
-1.181, 3.445e-6
-1.182, 3.454e-6
-1.183, 3.462e-6
-1.184, 3.465e-6
-1.185, 3.470e-6
-1.186, 3.475e-6
-1.187, 3.484e-6
-1.188, 3.492e-6
-1.189, 3.496e-6
-1.190, 3.500e-6
-1.191, 3.505e-6
-1.192, 3.513e-6
-1.193, 3.521e-6
-1.194, 3.525e-6
-1.195, 3.528e-6
-1.196, 3.533e-6
-1.197, 3.542e-6
-1.198, 3.552e-6
-1.199, 3.554e-6
-1.200, 3.557e-6
-1.201, 3.563e-6
-1.202, 3.571e-6
-1.203, 3.580e-6
-1.204, 3.585e-6
-1.205, 3.587e-6
-1.206, 3.594e-6
-1.207, 3.600e-6
-1.208, 3.609e-6
-1.209, 3.613e-6
-1.210, 3.615e-6
-1.211, 3.621e-6
-1.212, 3.631e-6
-1.213, 3.638e-6
-1.214, 3.643e-6
-1.215, 3.645e-6
-1.216, 3.651e-6
-1.217, 3.661e-6
-1.218, 3.667e-6
-1.219, 3.670e-6
-1.220, 3.674e-6
-1.221, 3.679e-6
-1.222, 3.687e-6
-1.223, 3.696e-6
-1.224, 3.699e-6
-1.225, 3.702e-6
-1.226, 3.705e-6
-1.227, 3.715e-6
-1.228, 3.722e-6
-1.229, 3.733e-6
-1.230, 3.733e-6
-1.231, 3.737e-6
-1.232, 3.745e-6
-1.233, 3.752e-6
-1.234, 3.753e-6
-1.235, 3.756e-6
-1.236, 3.762e-6
-1.237, 3.768e-6
-1.238, 3.778e-6
-1.239, 3.780e-6
-1.240, 3.783e-6
-1.241, 3.788e-6
-1.242, 3.797e-6
-1.243, 3.803e-6
-1.244, 3.807e-6
-1.245, 3.810e-6
-1.246, 3.814e-6
-1.247, 3.822e-6
-1.248, 3.830e-6
-1.249, 3.836e-6
-1.250, 3.837e-6
-1.251, 3.842e-6
-1.252, 3.848e-6
-1.253, 3.856e-6
-1.254, 3.859e-6
-1.255, 3.860e-6
-1.256, 3.865e-6
-1.257, 3.875e-6
-1.258, 3.879e-6
-1.259, 3.882e-6
-1.260, 3.883e-6
-1.261, 3.888e-6
-1.262, 3.896e-6
-1.263, 3.901e-6
-1.264, 3.903e-6
-1.265, 3.906e-6
-1.266, 3.908e-6
-1.267, 3.917e-6
-1.268, 3.924e-6
-1.269, 3.924e-6
-1.270, 3.926e-6
-1.271, 3.928e-6
-1.272, 3.936e-6
-1.273, 3.943e-6
-1.274, 3.944e-6
-1.275, 3.945e-6
-1.276, 3.948e-6
-1.277, 3.955e-6
-1.278, 3.962e-6
-1.279, 3.961e-6
-1.280, 3.965e-6
-1.281, 3.968e-6
-1.282, 3.973e-6
-1.283, 3.979e-6
-1.284, 3.980e-6
-1.285, 3.979e-6
-1.286, 3.982e-6
-1.287, 3.988e-6
-1.288, 3.993e-6
-1.289, 3.995e-6
-1.290, 3.994e-6
-1.291, 3.996e-6
-1.292, 4.002e-6
-1.293, 4.008e-6
-1.294, 4.009e-6
-1.295, 4.008e-6
-1.296, 4.012e-6
-1.297, 4.018e-6
-1.298, 4.023e-6
-1.299, 4.024e-6
-1.300, 4.023e-6
-1.301, 4.024e-6
-1.302, 4.031e-6
-1.303, 4.035e-6
-1.304, 4.034e-6
-1.305, 4.036e-6
-1.306, 4.038e-6
-1.307, 4.044e-6
-1.308, 4.048e-6
-1.309, 4.048e-6
-1.310, 4.049e-6
-1.311, 4.048e-6
-1.312, 4.055e-6
-1.313, 4.060e-6
-1.314, 4.057e-6
-1.315, 4.058e-6
-1.316, 4.059e-6
-1.317, 4.065e-6
-1.318, 4.071e-6
-1.319, 4.070e-6
-1.320, 4.070e-6
-1.321, 4.072e-6
-1.322, 4.076e-6
-1.323, 4.080e-6
-1.324, 4.081e-6
-1.325, 4.078e-6
-1.326, 4.082e-6
-1.327, 4.086e-6
-1.328, 4.091e-6
-1.329, 4.090e-6
-1.330, 4.087e-6
-1.331, 4.091e-6
-1.332, 4.097e-6
-1.333, 4.099e-6
-1.334, 4.100e-6
-1.335, 4.099e-6
-1.336, 4.100e-6
-1.337, 4.108e-6
-1.338, 4.111e-6
-1.339, 4.111e-6
-1.340, 4.109e-6
-1.341, 4.110e-6
-1.342, 4.118e-6
-1.343, 4.121e-6
-1.344, 4.122e-6
-1.345, 4.124e-6
-1.346, 4.126e-6
-1.347, 4.132e-6
-1.348, 4.138e-6
-1.349, 4.134e-6
-1.350, 4.135e-6
-1.351, 4.138e-6
-1.352, 4.144e-6
-1.353, 4.148e-6
-1.354, 4.148e-6
-1.355, 4.150e-6
-1.356, 4.153e-6
-1.357, 4.161e-6
-1.358, 4.166e-6
-1.359, 4.166e-6
-1.360, 4.167e-6
-1.361, 4.172e-6
-1.362, 4.177e-6
-1.363, 4.184e-6
-1.364, 4.186e-6
-1.365, 4.186e-6
-1.366, 4.192e-6
-1.367, 4.199e-6
-1.368, 4.206e-6
-1.369, 4.210e-6
-1.370, 4.210e-6
-1.371, 4.216e-6
-1.372, 4.224e-6
-1.373, 4.231e-6
-1.374, 4.232e-6
-1.375, 4.236e-6
-1.376, 4.242e-6
-1.377, 4.252e-6
-1.378, 4.259e-6
-1.379, 4.263e-6
-1.380, 4.267e-6
-1.381, 4.272e-6
-1.382, 4.283e-6
-1.383, 4.294e-6
-1.384, 4.295e-6
-1.385, 4.299e-6
-1.386, 4.306e-6
-1.387, 4.319e-6
-1.388, 4.325e-6
-1.389, 4.331e-6
-1.390, 4.335e-6
-1.391, 4.341e-6
-1.392, 4.353e-6
-1.393, 4.363e-6
-1.394, 4.367e-6
-1.395, 4.374e-6
-1.396, 4.382e-6
-1.397, 4.393e-6
-1.398, 4.406e-6
-1.399, 4.408e-6
-1.400, 4.416e-6
-1.401, 4.424e-6
-1.402, 4.435e-6
-1.403, 4.445e-6
-1.404, 4.451e-6
-1.405, 4.456e-6
-1.406, 4.466e-6
-1.407, 4.477e-6
-1.408, 4.490e-6
-1.409, 4.496e-6
-1.410, 4.500e-6
-1.411, 4.510e-6
-1.412, 4.523e-6
-1.413, 4.534e-6
-1.414, 4.542e-6
-1.415, 4.549e-6
-1.416, 4.558e-6
-1.417, 4.572e-6
-1.418, 4.581e-6
-1.419, 4.588e-6
-1.420, 4.594e-6
-1.421, 4.602e-6
-1.422, 4.617e-6
-1.423, 4.627e-6
-1.424, 4.633e-6
-1.425, 4.640e-6
-1.426, 4.648e-6
-1.427, 4.661e-6
-1.428, 4.673e-6
-1.429, 4.678e-6
-1.430, 4.685e-6
-1.431, 4.691e-6
-1.432, 4.703e-6
-1.433, 4.715e-6
-1.434, 4.720e-6
-1.435, 4.726e-6
-1.436, 4.732e-6
-1.437, 4.743e-6
-1.438, 4.754e-6
-1.439, 4.759e-6
-1.440, 4.762e-6
-1.441, 4.770e-6
-1.442, 4.782e-6
-1.443, 4.793e-6
-1.444, 4.799e-6
-1.445, 4.805e-6
-1.446, 4.815e-6
-1.447, 4.821e-6
-1.448, 4.829e-6
-1.449, 4.831e-6
-1.450, 4.833e-6
-1.451, 4.838e-6
-1.452, 4.849e-6
-1.453, 4.857e-6
-1.454, 4.860e-6
-1.455, 4.863e-6
-1.456, 4.868e-6
-1.457, 4.879e-6
-1.458, 4.885e-6
-1.459, 4.888e-6
-1.460, 4.892e-6
-1.461, 4.895e-6
-1.462, 4.906e-6
-1.463, 4.914e-6
-1.464, 4.915e-6
-1.465, 4.921e-6
-1.466, 4.923e-6
-1.467, 4.935e-6
-1.468, 4.943e-6
-1.469, 4.943e-6
-1.470, 4.948e-6
-1.471, 4.952e-6
-1.472, 4.962e-6
-1.473, 4.972e-6
-1.474, 4.971e-6
-1.475, 4.978e-6
-1.476, 4.983e-6
-1.477, 4.992e-6
-1.478, 5.001e-6
-1.479, 5.002e-6
-1.480, 5.008e-6
-1.481, 5.012e-6
-1.482, 5.022e-6
-1.483, 5.032e-6
-1.484, 5.034e-6
-1.485, 5.042e-6
-1.486, 5.047e-6
-1.487, 5.055e-6
-1.488, 5.065e-6
-1.489, 5.068e-6
-1.490, 5.069e-6
-1.491, 5.076e-6
-1.492, 5.086e-6
-1.493, 5.095e-6
-1.494, 5.099e-6
-1.495, 5.101e-6
-1.496, 5.108e-6
-1.497, 5.122e-6
-1.498, 5.128e-6
-1.499, 5.130e-6
-1.500, 5.136e-6
-1.501, 5.142e-6
-1.502, 5.155e-6
-1.503, 5.164e-6
-1.504, 5.167e-6
-1.505, 5.173e-6
-1.506, 5.179e-6
-1.507, 5.192e-6
-1.508, 5.202e-6
-1.509, 5.204e-6
-1.510, 5.209e-6
-1.511, 5.217e-6
-1.512, 5.231e-6
-1.513, 5.241e-6
-1.514, 5.244e-6
-1.515, 5.250e-6
-1.516, 5.258e-6
-1.517, 5.270e-6
-1.518, 5.282e-6
-1.519, 5.286e-6
-1.520, 5.294e-6
-1.521, 5.304e-6
-1.522, 5.317e-6
-1.523, 5.329e-6
-1.524, 5.335e-6
-1.525, 5.342e-6
-1.526, 5.352e-6
-1.527, 5.366e-6
-1.528, 5.380e-6
-1.529, 5.387e-6
-1.530, 5.393e-6
-1.531, 5.407e-6
-1.532, 5.422e-6
-1.533, 5.433e-6
-1.534, 5.443e-6
-1.535, 5.451e-6
-1.536, 5.463e-6
-1.537, 5.482e-6
-1.538, 5.494e-6
-1.539, 5.506e-6
-1.540, 5.517e-6
-1.541, 5.528e-6
-1.542, 5.547e-6
-1.543, 5.562e-6
-1.544, 5.572e-6
-1.545, 5.585e-6
-1.546, 5.598e-6
-1.547, 5.620e-6
-1.548, 5.639e-6
-1.549, 5.651e-6
-1.550, 5.666e-6
-1.551, 5.681e-6
-1.552, 5.702e-6
-1.553, 5.721e-6
-1.554, 5.732e-6
-1.555, 5.747e-6
-1.556, 5.765e-6
-1.557, 5.788e-6
-1.558, 5.810e-6
-1.559, 5.824e-6
-1.560, 5.841e-6
-1.561, 5.861e-6
-1.562, 5.884e-6
-1.563, 5.905e-6
-1.564, 5.920e-6
-1.565, 5.933e-6
-1.566, 5.955e-6
-1.567, 5.981e-6
-1.568, 6.005e-6
-1.569, 6.026e-6
-1.570, 6.041e-6
-1.571, 6.066e-6
-1.572, 6.095e-6
-1.573, 6.120e-6
-1.574, 6.140e-6
-1.575, 6.158e-6
-1.576, 6.184e-6
-1.577, 6.213e-6
-1.578, 6.237e-6
-1.579, 6.260e-6
-1.580, 6.283e-6
-1.581, 6.310e-6
-1.582, 6.344e-6
-1.583, 6.373e-6
-1.584, 6.397e-6
-1.585, 6.421e-6
-1.586, 6.447e-6
-1.587, 6.485e-6
-1.588, 6.517e-6
-1.589, 6.540e-6
-1.590, 6.568e-6
-1.591, 6.598e-6
-1.592, 6.636e-6
-1.593, 6.671e-6
-1.594, 6.696e-6
-1.595, 6.724e-6
-1.596, 6.758e-6
-1.597, 6.795e-6
-1.598, 6.834e-6
-1.599, 6.863e-6
-1.600, 6.895e-6
-1.601, 6.929e-6
-1.602, 6.970e-6
-1.603, 7.008e-6
-1.604, 7.043e-6
-1.605, 7.073e-6
-1.606, 7.114e-6
-1.607, 7.157e-6
-1.608, 7.197e-6
-1.609, 7.233e-6
-1.610, 7.266e-6
-1.611, 7.306e-6
-1.612, 7.345e-6
-1.613, 7.389e-6
-1.614, 7.430e-6
-1.615, 7.465e-6
-1.616, 7.506e-6
-1.617, 7.552e-6
-1.618, 7.591e-6
-1.619, 7.627e-6
-1.620, 7.665e-6
-1.621, 7.708e-6
-1.622, 7.759e-6
-1.623, 7.806e-6
-1.624, 7.848e-6
-1.625, 7.894e-6
-1.626, 7.942e-6
-1.627, 7.995e-6
-1.628, 8.044e-6
-1.629, 8.088e-6
-1.630, 8.133e-6
-1.631, 8.185e-6
-1.632, 8.238e-6
-1.633, 8.290e-6
-1.634, 8.329e-6
-1.635, 8.373e-6
-1.636, 8.417e-6
-1.637, 8.474e-6
-1.638, 8.536e-6
-1.639, 8.593e-6
-1.640, 8.633e-6
-1.641, 8.688e-6
-1.642, 8.748e-6
-1.643, 8.808e-6
-1.644, 8.858e-6
-1.645, 8.912e-6
-1.646, 8.973e-6
-1.647, 9.036e-6
-1.648, 9.100e-6
-1.649, 9.159e-6
-1.650, 9.214e-6
-1.651, 9.280e-6
-1.652, 9.351e-6
-1.653, 9.411e-6
-1.654, 9.473e-6
-1.655, 9.533e-6
-1.656, 9.601e-6
-1.657, 9.676e-6
-1.658, 9.745e-6
-1.659, 9.813e-6
-1.660, 9.878e-6
-1.661, 9.948e-6
-1.662, 1.003e-5
-1.663, 1.010e-5
-1.664, 1.017e-5
-1.665, 1.024e-5
-1.666, 1.031e-5
-1.667, 1.040e-5
-1.668, 1.048e-5
-1.669, 1.055e-5
-1.670, 1.063e-5
-1.671, 1.072e-5
-1.672, 1.080e-5
-1.673, 1.089e-5
-1.674, 1.097e-5
-1.675, 1.105e-5
-1.676, 1.113e-5
-1.677, 1.122e-5
-1.678, 1.132e-5
-1.679, 1.140e-5
-1.680, 1.149e-5
-1.681, 1.158e-5
-1.682, 1.168e-5
-1.683, 1.177e-5
-1.684, 1.186e-5
-1.685, 1.195e-5
-1.686, 1.204e-5
-1.687, 1.212e-5
-1.688, 1.223e-5
-1.689, 1.232e-5
-1.690, 1.241e-5
-1.691, 1.247e-5
-1.692, 1.253e-5
-1.693, 1.259e-5
-1.694, 1.266e-5
-1.695, 1.273e-5
-1.696, 1.281e-5
-1.697, 1.289e-5
-1.698, 1.296e-5
-1.699, 1.304e-5
