Potential V vs RHE, Current mA cm-2
0.4132999999999999,0.006891058741642593
0.4122999999999999,0.005149549131508733
0.4112999999999999,0.004638838352257455
0.4102999999999999,0.0042809163933916015
0.4092999999999999,0.004002218267318189
0.4082999999999999,0.0038084028192366787
0.4072999999999999,0.003638637463252874
0.4062999999999999,0.0034561397055702845
0.4052999999999999,0.0032495918557899892
0.4042999999999999,0.003055776407708479
0.4032999999999999,0.0029128905664221106
0.4022999999999999,0.0027657605912361468
0.4012999999999999,0.0026228747499497784
0.4002999999999999,0.0024587682391654336
0.3992999999999999,0.002263538079784059
0.3982999999999999,0.0021447023305953957
0.3972999999999999,0.002045672539604843
0.3962999999999999,0.0019169338113171246
0.3952999999999999,0.0017698038361311608
0.3942999999999999,0.0016099414592464119
0.39329999999999987,0.0015222293586547794
0.39229999999999987,0.0014274437015638218
0.39129999999999987,0.0012955926084164005
0.39029999999999987,0.0011643073997889253
0.38929999999999987,0.0010163285978230425
0.38829999999999987,0.0009339924001708973
0.38729999999999987,0.0008461388284492785
0.38629999999999987,0.0007302739729903319
0.38529999999999986,0.0005934713902933828
0.38429999999999986,0.0004776065348344364
0.38329999999999986,0.00037291789864442364
0.38229999999999986,0.0002975137863616172
0.38129999999999986,0.00021517758870947206
0.38029999999999986,7.1457067756183e-05
0.37929999999999986,-5.136816729809948e-05
0.37829999999999986,-0.00013510492913711099
0.37729999999999986,-0.00019791811085111862
0.37629999999999986,-0.0002747369344337901
0.37529999999999986,-0.0004142274686004828
0.37429999999999986,-0.0005160866821907654
0.37329999999999985,-0.0005998375911427756
0.37229999999999985,-0.0006711390406559734
0.37129999999999985,-0.000733952222369981
0.37029999999999985,-0.0008567491631982661
0.36929999999999985,-0.0009711993073573475
0.36829999999999985,-0.0010214215585025565
0.36729999999999985,-0.001108001890054297
0.36629999999999985,-0.0011708150717683042
0.36529999999999985,-0.0012936120125965895
0.36429999999999985,-0.0014052327341559409
0.36329999999999985,-0.001467055617960043
0.36229999999999984,-0.001505252823056399
0.36129999999999984,-0.0016141855931460067
0.36029999999999984,-0.0017089712502369643
0.35929999999999984,-0.001809415752527382
0.35829999999999984,-0.001875907183621039
0.35729999999999984,-0.0019126896774175296
0.35629999999999984,-0.002008890045808352
0.35529999999999984,-0.002092358012500389
0.35429999999999984,-0.0022182673181883775
0.35329999999999984,-0.0022819293266823043
0.35229999999999984,-0.00231729710917893
0.35129999999999983,-0.002396520941971372
0.35029999999999983,-0.002501209578161385
0.34929999999999983,-0.002584677544853422
0.34829999999999983,-0.0026384365742482935
0.34729999999999983,-0.0027120015618412752
0.34629999999999983,-0.0027586870347368216
0.34529999999999983,-0.0028647903822266994
0.34429999999999983,-0.002969479018416712
0.3432999999999998,-0.0030161644913122582
0.3422999999999998,-0.0030642646755076695
0.3412999999999998,-0.003127926684001596
0.3402999999999998,-0.003246762433190259
0.3392999999999998,-0.003327400977282566
0.3382999999999998,-0.003381160006677438
0.3372999999999998,-0.003430674902172714
0.3362999999999998,-0.0034900927767670454
0.3352999999999998,-0.003596196124256923
0.3342999999999998,-0.003690981781347881
0.3332999999999998,-0.003747570233342482
0.3322999999999998,-0.0037999145514374883
0.3312999999999998,-0.0038536735808323594
0.3302999999999998,-0.003958362217022372
0.3292999999999998,-0.00403900076111468
0.3282999999999998,-0.004082856811410495
0.3272999999999998,-0.004119639305206987
0.3262999999999998,-0.004170568912002128
0.3252999999999999,-0.0042851605272911965
0.3242999999999999,-0.004354481380984583
0.3232999999999999,-0.004384190318281749
0.3222999999999999,-0.004470487707573516
0.3212999999999999,-0.004531320293467712
0.3202999999999999,-0.0045978117245613695
0.3192999999999999,-0.004720891607649627
0.3182999999999999,-0.004718062185049898
0.3172999999999999,-0.004759088812745984
0.3162999999999999,-0.004829824377739236
0.3152999999999999,-0.004935927725229113
0.3142999999999999,-0.00501090742412196
0.3132999999999999,-0.0050392016501192615
0.3122999999999999,-0.005068910587416427
0.3112999999999999,-0.005133987307210219
0.3102999999999999,-0.005211796428702795
0.3092999999999999,-0.005310826219693348
0.3082999999999999,-0.005350438136089568
0.3072999999999999,-0.005371658805587544
0.3062999999999999,-0.005446638504480392
0.3052999999999999,-0.005538594738971618
0.3042999999999999,-0.0056079155926650045
0.3032999999999999,-0.005648942220361092
0.3022999999999999,-0.0056899688480571775
0.3012999999999999,-0.005739483743552453
0.3002999999999999,-0.005837098823243141
0.2992999999999999,-0.005903590254336798
0.2982999999999999,-0.005951690438532209
0.2972999999999999,-0.0059856435097289705
0.2962999999999999,-0.006037987827823976
0.2952999999999999,-0.006146920597913584
0.2942999999999999,-0.006202094338608321
0.2932999999999999,-0.006236047409805081
0.2922999999999999,-0.006281318171400763
0.2912999999999999,-0.006312441819997794
0.2902999999999999,-0.006419959878787536
0.2892999999999999,-0.006485036598581328
0.2882999999999999,-0.0065076719793791685
0.2872999999999999,-0.006557186874874445
0.2862999999999999,-0.006591139946071206
0.2852999999999999,-0.006684510891862298
0.2842999999999999,-0.006756661168155415
0.2832999999999999,-0.006787784816752447
0.2822999999999999,-0.006813249620150017
0.2812999999999999,-0.006869838072144617
0.2802999999999999,-0.006964623729235576
0.2792999999999999,-0.007036774005528692
0.2782999999999999,-0.0070608240976263986
0.2772999999999999,-0.007090533034923564
0.2762999999999999,-0.007147121486918166
0.2752999999999999,-0.007229174742310337
0.2742999999999999,-0.007295666173403994
0.2732999999999999,-0.0073197162655017
0.2722999999999999,-0.00735932818189792
0.2712999999999999,-0.007422990190391848
0.2702999999999999,-0.007513531713583209
0.2692999999999999,-0.007588511412476056
0.26829999999999987,-0.007618220349773223
0.26729999999999987,-0.007632367462771873
0.26629999999999987,-0.007670564667868229
0.26529999999999987,-0.007789400417056893
0.26429999999999987,-0.007848818291651223
0.26329999999999987,-0.007867209538549469
0.26229999999999987,-0.007889844919347308
0.26129999999999987,-0.007936530392242857
0.26029999999999986,-0.008048292584932193
0.25929999999999986,-0.008099222191727335
0.25829999999999986,-0.008137419396823692
0.25729999999999986,-0.00816571362282099
0.25629999999999986,-0.008199666694017753
0.25529999999999986,-0.00828313466070979
0.25429999999999986,-0.008366602627401826
0.25329999999999986,-0.00836801733870169
0.25229999999999986,-0.008416117522897103
0.25129999999999986,-0.008461388284492785
0.25029999999999986,-0.008570321054582393
0.24929999999999986,-0.008617006527477938
0.24829999999999985,-0.008615591816178074
0.24729999999999985,-0.008666521422973214
0.24629999999999985,-0.0087075480506693
0.24529999999999985,-0.00882779851115783
0.24429999999999985,-0.008897119364851215
0.24329999999999985,-0.008902778210050675
0.24229999999999985,-0.008933901858647708
0.24129999999999985,-0.008979172620243388
0.24029999999999985,-0.009066884720835021
0.23929999999999985,-0.009133376151928677
0.23829999999999985,-0.009141864419727867
0.23729999999999984,-0.009165914511825572
0.23629999999999984,-0.009229576520319499
0.23529999999999984,-0.009318703332210998
0.23429999999999984,-0.009359729959907083
0.23329999999999984,-0.009380950629405057
0.23229999999999984,-0.00941207427800209
0.23129999999999984,-0.009477150997795883
0.23029999999999984,-0.009554960119288457
0.22929999999999984,-0.009631354529481169
0.22829999999999984,-0.00964550164247982
0.22729999999999984,-0.009668137023277661
0.22629999999999983,-0.009744531433470371
0.22529999999999983,-0.009806778730664434
0.22429999999999983,-0.00984497593576079
0.22329999999999983,-0.009874684873057957
0.22229999999999983,-0.009900149676455526
0.22129999999999983,-0.009953908705850398
0.22029999999999983,-0.010054353208140816
0.21929999999999983,-0.010095379835836903
0.21829999999999983,-0.010132162329633394
0.21729999999999983,-0.01017318895732948
0.21629999999999983,-0.0102128008737257
0.21529999999999982,-0.010296268840417738
0.21429999999999982,-0.010350027869812609
0.21329999999999982,-0.010381151518409638
0.21229999999999982,-0.010403786899207481
0.21129999999999982,-0.010447642949503297
0.21029999999999982,-0.010538184472694657
0.20929999999999982,-0.010591943502089531
0.20829999999999982,-0.010608920037687911
0.20729999999999982,-0.010648531954084132
0.20629999999999982,-0.010710779251278195
0.20529999999999982,-0.01078292952757131
0.20429999999999982,-0.010839517979565911
0.20329999999999981,-0.010864982782963481
0.2022999999999998,-0.010884788741161593
0.2012999999999998,-0.010941377193156193
0.20029999999999992,-0.011014942180749176
0.19929999999999992,-0.011084263034442562
0.19829999999999992,-0.011096995436141347
0.19729999999999992,-0.01113377792993784
0.19629999999999992,-0.01120168407233136
0.19529999999999992,-0.011268175503425019
0.19429999999999992,-0.011385596541313816
0.19329999999999992,-0.011432282014209361
0.19229999999999992,-0.01142096432381044
0.19129999999999991,-0.011476138064505176
0.1902999999999999,-0.011565264876396674
0.1892999999999999,-0.011610535637992357
0.1882999999999999,-0.011634585730090062
0.1872999999999999,-0.011661465244787497
0.1862999999999999,-0.011725127253281424
0.1852999999999999,-0.011821327621672246
0.1842999999999999,-0.01185669540416887
0.1832999999999999,-0.011886404341466037
0.1822999999999999,-0.01192601625786226
0.1812999999999999,-0.011989678266356186
0.1802999999999999,-0.012071731521748359
0.1792999999999999,-0.012121246417243634
0.1782999999999999,-0.012143881798041475
0.1772999999999999,-0.012180664291837964
0.1762999999999999,-0.012225935053433647
0.1752999999999999,-0.012317891287924874
0.1742999999999999,-0.01237023560601988
0.1732999999999999,-0.012390041564217991
0.1722999999999999,-0.012414091656315695
0.1712999999999999,-0.012481997798709218
0.1702999999999999,-0.012571124610600715
0.1692999999999999,-0.012614980660896532
0.1682999999999999,-0.012654592577292753
0.1672999999999999,-0.01270976631798749
0.1662999999999999,-0.012749378234383713
0.1652999999999999,-0.012824357933276557
0.1642999999999999,-0.012883775807870888
0.1632999999999999,-0.012883775807870888
0.1622999999999999,-0.012944608393765086
0.1612999999999999,-0.012987049732761036
0.1602999999999999,-0.013074761833352669
0.1592999999999999,-0.013145497398345923
0.15829999999999989,-0.013163888645244166
0.15729999999999988,-0.013189353448641737
0.15629999999999988,-0.013268577281434178
0.15529999999999988,-0.01335345995942608
0.15429999999999988,-0.013401560143621493
0.15329999999999988,-0.013411463122720546
0.15229999999999988,-0.013456733884316228
0.15129999999999988,-0.013530298871909211
0.15029999999999988,-0.013615181549901115
0.14929999999999988,-0.013674599424495443
0.14829999999999988,-0.013702893650492745
0.14729999999999988,-0.013729773165190182
0.14629999999999987,-0.013796264596283837
0.14529999999999987,-0.01388114727427574
0.14429999999999987,-0.013919344479372096
0.14329999999999987,-0.013956126973168587
0.14229999999999987,-0.014031106672061432
0.14129999999999987,-0.014076377433657115
0.14029999999999987,-0.014175407224647668
0.13929999999999987,-0.014189554337646317
0.13829999999999987,-0.014217848563643616
0.13729999999999987,-0.01426028990263957
0.13629999999999987,-0.014331025467632824
0.13529999999999986,-0.014415908145624722
0.13429999999999986,-0.014458349484620674
0.13329999999999986,-0.014472496597619325
0.13229999999999986,-0.014543232162612576
0.13129999999999986,-0.014585673501608528
0.13029999999999986,-0.014684703292599082
0.12929999999999986,-0.014741291744593682
0.12829999999999986,-0.014755438857592333
0.12729999999999986,-0.014797880196588285
0.12629999999999986,-0.014868615761581536
0.12529999999999986,-0.014953498439573438
0.12429999999999986,-0.01501008689156804
0.12329999999999985,-0.015024234004566688
0.12229999999999985,-0.015080822456561293
0.12129999999999985,-0.015137410908555892
0.12029999999999985,-0.015222293586547794
0.11929999999999985,-0.015264734925543746
0.11829999999999985,-0.015278882038542396
0.11729999999999985,-0.015321323377538347
0.11629999999999985,-0.015406206055530251
0.11529999999999985,-0.015476941620523503
0.11429999999999985,-0.015547677185516754
0.11329999999999985,-0.015561824298515404
0.11229999999999984,-0.015604265637511355
0.11129999999999984,-0.015675001202504608
0.11029999999999984,-0.015745736767497857
0.10929999999999984,-0.01578817810649381
0.10829999999999984,-0.01581647233249111
0.10729999999999984,-0.01585891367148706
0.10629999999999984,-0.015929649236480315
0.10529999999999984,-0.016014531914472215
0.10429999999999984,-0.016071120366466816
0.10329999999999984,-0.01608526747946547
0.10229999999999984,-0.016127708818461418
0.10129999999999983,-0.01619844438345467
0.10029999999999983,-0.01629747417444522
0.09929999999999983,-0.016311621287443873
0.09829999999999983,-0.016368209739438477
0.09729999999999983,-0.016396503965435776
0.09629999999999983,-0.01648138664342768
0.09529999999999983,-0.01656626932141958
0.09429999999999983,-0.01660871066041553
0.09329999999999983,-0.01662285777341418
0.09229999999999983,-0.016693593338407434
0.09129999999999983,-0.016750181790402035
0.09029999999999982,-0.01683506446839394
0.08929999999999982,-0.01690580003338719
0.08829999999999982,-0.01693409425938449
0.08729999999999982,-0.017004829824377742
0.08629999999999982,-0.017047271163373692
0.08529999999999982,-0.017160448067362895
0.08429999999999982,-0.017202889406358845
0.08329999999999982,-0.017217036519357496
0.08229999999999982,-0.017259477858353446
0.08129999999999982,-0.01734436053634535
0.08029999999999982,-0.017429243214337253
0.07929999999999982,-0.017471684553333203
0.07829999999999981,-0.017499978779330502
0.07729999999999981,-0.017556567231325104
0.07629999999999981,-0.01765559702231566
0.07529999999999992,-0.01771218547431026
0.07429999999999992,-0.01776877392630486
0.07329999999999992,-0.017782921039303512
0.07229999999999992,-0.017839509491298113
0.07129999999999992,-0.017924392169290013
0.07029999999999992,-0.017995127734283266
0.06929999999999992,-0.018051716186277867
0.06829999999999992,-0.018108304638272472
0.06729999999999992,-0.01813659886426977
0.06629999999999991,-0.018235628655260322
0.06529999999999991,-0.018348805559249524
0.06429999999999991,-0.018362952672248176
0.06329999999999991,-0.018405394011244126
0.06229999999999991,-0.018433688237241428
0.06129999999999991,-0.01853271802823198
0.06029999999999991,-0.018631747819222534
0.05929999999999991,-0.018660042045219833
0.05829999999999991,-0.018716630497214438
0.05729999999999991,-0.018773218949209036
0.056299999999999906,-0.018843954514202284
0.055299999999999905,-0.018942984305192843
0.054299999999999904,-0.018985425644188793
0.0532999999999999,-0.019027866983184743
0.0522999999999999,-0.019084455435179344
0.0512999999999999,-0.0191551910001726
0.0502999999999999,-0.0192683679041618
0.0492999999999999,-0.0193249563561564
0.0482999999999999,-0.01933910346915505
0.0472999999999999,-0.0194098390341483
0.0462999999999999,-0.019480574599141553
0.045299999999999896,-0.019579604390132108
0.044299999999999895,-0.01965033995512536
0.043299999999999894,-0.01965033995512536
0.04229999999999989,-0.01973522263311726
0.04129999999999989,-0.019791811085111865
0.04029999999999989,-0.019947429328097017
0.03929999999999989,-0.02000401778009162
0.03829999999999989,-0.02003231200608892
0.03729999999999989,-0.02007475334508487
0.03629999999999989,-0.020145488910078124
0.03529999999999989,-0.020244518701068675
0.034299999999999886,-0.020301107153063276
0.033299999999999885,-0.020343548492059226
0.032299999999999884,-0.02038598983105518
0.031299999999999883,-0.02048501962204573
0.030299999999999883,-0.020584049413036282
0.02929999999999988,-0.020640637865030884
0.02829999999999988,-0.020697226317025485
0.02729999999999988,-0.02073966765602144
0.02629999999999988,-0.02085284456001064
0.025299999999999878,-0.020951874351001196
0.024299999999999877,-0.021008462802995797
0.023299999999999876,-0.021050904141991744
0.022299999999999875,-0.021093345480987697
0.021299999999999875,-0.02119237527197825
0.020299999999999874,-0.021291405062968803
0.019299999999999873,-0.021347993514963404
0.018299999999999872,-0.021390434853959358
0.01729999999999987,-0.021461170418952607
0.01629999999999987,-0.02153190598394586
0.01529999999999987,-0.02165923000093371
0.014299999999999868,-0.021729965565926962
0.013299999999999867,-0.021744112678925617
0.012299999999999978,-0.021828995356917517
0.011299999999999866,-0.021928025147908068
0.010299999999999976,-0.02204120205189727
0.009299999999999864,-0.02208364339089322
0.008299999999999974,-0.022154378955886473
0.007299999999999862,-0.022210967407881078
0.006299999999999972,-0.022295850085872978
0.00529999999999986,-0.02240902698986218
0.0042999999999999705,-0.022465615441856785
0.0032999999999998586,-0.022508056780852735
0.0022999999999999687,-0.022578792345845984
0.0012999999999998568,-0.02267782213683654
0.00029999999999996696,-0.02279099904082574
-0.000700000000000145,-0.022847587492820343
-0.0017000000000000348,-0.02287588171881764
-0.0027000000000001467,-0.022946617283810897
-0.0037000000000000366,-0.0230597941878001
-0.0047000000000001485,-0.023158823978790648
-0.005700000000000038,-0.023215412430785252
-0.00670000000000015,-0.02327200088277985
-0.00770000000000004,-0.023314442221775804
-0.008700000000000152,-0.023427619125765006
-0.009700000000000042,-0.02354079602975421
-0.010700000000000154,-0.023625678707746112
-0.011700000000000044,-0.023696414272739365
-0.012700000000000156,-0.023710561385738016
-0.013700000000000045,-0.023837885402725866
-0.014700000000000157,-0.02395106230671507
-0.015700000000000047,-0.02400765075870967
-0.01670000000000016,-0.024050092097705623
-0.01770000000000005,-0.024120827662698876
-0.01870000000000016,-0.024219857453689427
-0.01970000000000005,-0.02433303435767863
-0.020700000000000163,-0.024375475696674583
-0.021700000000000053,-0.024460358374666487
-0.022700000000000164,-0.024516946826661085
-0.023700000000000054,-0.024630123730650287
-0.024700000000000166,-0.02471500640864219
-0.025700000000000056,-0.024785741973635443
-0.026700000000000168,-0.024842330425630044
-0.027700000000000058,-0.024898918877624646
-0.02870000000000017,-0.025012095781613848
-0.02970000000000006,-0.025139419798601705
-0.03070000000000017,-0.025196008250596303
-0.03170000000000006,-0.025238449589592253
-0.03270000000000017,-0.025323332267584157
-0.03370000000000006,-0.02540821494557606
-0.034700000000000175,-0.025521391849565263
-0.035700000000000065,-0.025606274527557166
-0.03670000000000018,-0.025648715866553113
-0.03770000000000007,-0.02573359854454502
-0.03870000000000018,-0.025818481222536924
-0.03970000000000007,-0.025931658126526123
-0.04070000000000018,-0.026016540804518026
-0.04170000000000007,-0.026073129256512624
-0.04270000000000018,-0.02614386482150588
-0.04370000000000007,-0.026257041725495082
-0.044700000000000184,-0.026356071516485634
-0.045700000000000074,-0.026412659968480235
-0.046700000000000186,-0.026483395533473487
-0.047700000000000076,-0.02652583687246944
-0.04870000000000019,-0.02665316088945729
-0.04970000000000008,-0.026794632019443793
-0.05070000000000019,-0.026851220471438397
-0.05170000000000008,-0.02692195603643165
-0.05270000000000019,-0.026978544488426247
-0.05370000000000008,-0.02709172139241545
-0.05470000000000019,-0.027219045409403307
-0.05570000000000008,-0.027247339635400606
-0.056700000000000195,-0.02730392808739521
-0.057700000000000085,-0.027374663652388463
-0.058700000000000196,-0.027487840556377662
-0.059700000000000086,-0.027586870347368214
-0.0607000000000002,-0.027657605912361466
-0.06170000000000009,-0.02775663570335202
