Potential V vs RHE, Current mA cm-2
0.05339999999999995,-0.06671778490163513
0.05239999999999995,-0.0696603844053544
0.051399999999999946,-0.07049506407227478
0.050399999999999945,-0.07113168415721405
0.049399999999999944,-0.07169756867716005
0.04839999999999994,-0.07206539361512497
0.04739999999999994,-0.07243321855308989
0.04639999999999994,-0.07278689637805613
0.04539999999999994,-0.0732537511070116
0.04439999999999994,-0.07370645872296841
0.04339999999999994,-0.07401769520893872
0.04239999999999994,-0.07428649035591307
0.04139999999999994,-0.07462602106788069
0.040399999999999936,-0.07499384600584559
0.039399999999999935,-0.07543240650880376
0.038399999999999934,-0.07571534876877677
0.03739999999999993,-0.07594170257675517
0.03639999999999993,-0.07622464483672817
0.03539999999999993,-0.07656417554869578
0.03439999999999993,-0.0769320004866607
0.03339999999999993,-0.0771866485206364
0.03239999999999993,-0.07738470810261751
0.03139999999999993,-0.0776676503625905
0.030399999999999927,-0.07796473973556219
0.029399999999999926,-0.07831841756052843
0.028399999999999925,-0.07854477136850684
0.027399999999999924,-0.07871453672449064
0.026399999999999924,-0.07896918475846634
0.025399999999999923,-0.07926627413143801
0.024399999999999922,-0.079549216391411
0.02339999999999992,-0.07976142308639078
0.02239999999999992,-0.07991704132937592
0.02139999999999992,-0.08010095379835838
0.020399999999999918,-0.08039804317133004
0.019399999999999917,-0.08066683831830439
0.018399999999999916,-0.08085075078728685
0.017399999999999916,-0.0809780748042747
0.016399999999999915,-0.0811195459342612
0.015399999999999914,-0.08140248819423422
0.014399999999999913,-0.08164298911521127
0.013399999999999912,-0.08182690158419371
0.012399999999999911,-0.08195422560118158
0.01139999999999991,-0.08208154961816942
0.01039999999999991,-0.08233619765214513
0.009399999999999908,-0.08257669857312219
0.008399999999999908,-0.08271816970310869
0.007399999999999907,-0.08281719949409926
0.006399999999999906,-0.0829445235110871
0.005399999999999905,-0.08312843598006955
0.004399999999999904,-0.08334064267504931
0.003399999999999903,-0.08343967246603987
0.002399999999999902,-0.08352455514403176
0.0013999999999999013,-0.08362358493502231
0.00039999999999990044,-0.08379335029100612
-0.0006000000000001005,-0.08400555698598587
-0.0016000000000001013,-0.08409043966397778
-0.0026000000000001022,-0.08413288100297373
-0.003600000000000103,-0.08421776368096563
-0.004600000000000104,-0.08437338192395079
-0.005600000000000105,-0.0845714415059319
-0.006600000000000106,-0.08464217707092515
-0.007600000000000107,-0.08467047129692246
-0.008600000000000108,-0.0847412068619157
-0.009600000000000108,-0.0848826779919022
-0.01060000000000011,-0.085052443347886
-0.01160000000000011,-0.08513732602587791
-0.012600000000000111,-0.08517976736487386
-0.013600000000000112,-0.08522220870386982
-0.014600000000000113,-0.08533538560785901
-0.015600000000000114,-0.08547685673784551
-0.016600000000000115,-0.08554759230283876
-0.017600000000000116,-0.08553344518984012
-0.018600000000000116,-0.08556173941583743
-0.019600000000000117,-0.08570321054582393
-0.020600000000000118,-0.08583053456281178
-0.02160000000000012,-0.08588712301480637
-0.02260000000000012,-0.08584468167581043
-0.02360000000000012,-0.08585882878880907
-0.024600000000000122,-0.08598615280579694
-0.025600000000000123,-0.08611347682278478
-0.026600000000000124,-0.08612762393578344
-0.027600000000000124,-0.08609932970978613
-0.028600000000000125,-0.08608518259678749
-0.029600000000000126,-0.08618421238777803
-0.030600000000000127,-0.08631153640476588
-0.03160000000000013,-0.08629738929176724
-0.03260000000000013,-0.0862832421787686
-0.03360000000000013,-0.08622665372677399
-0.03460000000000002,-0.08633983063076318
-0.03560000000000002,-0.08645300753475238
-0.03660000000000002,-0.08643886042175375
-0.03760000000000002,-0.08638227196975913
-0.03860000000000002,-0.0863681248567605
-0.039600000000000024,-0.08641056619575643
-0.040600000000000025,-0.08653789021274429
-0.041600000000000026,-0.08653789021274429
-0.04260000000000003,-0.08646715464775104
-0.04360000000000003,-0.08646715464775104
-0.04460000000000003,-0.08646715464775104
-0.04560000000000003,-0.08656618443874159
-0.04660000000000003,-0.08656618443874159
-0.04760000000000003,-0.08649544887374834
-0.04860000000000003,-0.08645300753475238
-0.04960000000000003,-0.08646715464775104
-0.050600000000000034,-0.08658033155174025
-0.051600000000000035,-0.0865944786647389
-0.052600000000000036,-0.08646715464775104
-0.053600000000000037,-0.08643886042175375
-0.05460000000000004,-0.08649544887374834
-0.05560000000000004,-0.08653789021274429
-0.05660000000000004,-0.08655203732574294
-0.05760000000000004,-0.08645300753475238
-0.05860000000000004,-0.08641056619575643
-0.05960000000000004,-0.08643886042175375
-0.06060000000000004,-0.08649544887374834
-0.061600000000000044,-0.0864813017607497
-0.06260000000000004,-0.08638227196975913
-0.06360000000000005,-0.08633983063076318
-0.06460000000000005,-0.0863681248567605
-0.06560000000000005,-0.08642471330875509
-0.06660000000000005,-0.08639641908275779
-0.06760000000000005,-0.08632568351776454
-0.06860000000000005,-0.08622665372677399
-0.06960000000000005,-0.08625494795277128
-0.07060000000000005,-0.08632568351776454
-0.07160000000000005,-0.08629738929176724
-0.07260000000000005,-0.08622665372677399
-0.07360000000000005,-0.08612762393578344
-0.07460000000000006,-0.08612762393578344
-0.07560000000000006,-0.08621250661377533
-0.07660000000000006,-0.08619835950077669
-0.07760000000000006,-0.08609932970978613
-0.07860000000000006,-0.08604274125779153
-0.07960000000000006,-0.08602859414479287
-0.08060000000000006,-0.08611347682278478
-0.08160000000000006,-0.08608518259678749
-0.08260000000000006,-0.08598615280579694
-0.08360000000000006,-0.08594371146680099
-0.08460000000000006,-0.08592956435380232
-0.08560000000000006,-0.08598615280579694
-0.08660000000000007,-0.08597200569279828
-0.08760000000000007,-0.08587297590180773
-0.08860000000000007,-0.08583053456281178
-0.08960000000000007,-0.08583053456281178
-0.09060000000000007,-0.08590127012780503
-0.09160000000000007,-0.08592956435380232
-0.09260000000000007,-0.08580224033681448
-0.09360000000000007,-0.08578809322381582
-0.09460000000000007,-0.08578809322381582
-0.09560000000000007,-0.08583053456281178
-0.09660000000000007,-0.08584468167581043
-0.09760000000000008,-0.08573150477182122
-0.09860000000000008,-0.08568906343282526
-0.09960000000000008,-0.08567491631982663
-0.10060000000000008,-0.08574565188481988
-0.10160000000000008,-0.0857597989978185
-0.10260000000000008,-0.08568906343282526
-0.10360000000000008,-0.08559003364183472
-0.10460000000000008,-0.08563247498083068
-0.10560000000000008,-0.08568906343282526
-0.10660000000000008,-0.08573150477182122
-0.10760000000000008,-0.08564662209382931
-0.10860000000000009,-0.08557588652883606
-0.10960000000000009,-0.08560418075483338
-0.11060000000000009,-0.08570321054582393
-0.11160000000000009,-0.08570321054582393
-0.11260000000000009,-0.08563247498083068
-0.11360000000000009,-0.08559003364183472
-0.11460000000000009,-0.08564662209382931
-0.11560000000000009,-0.08574565188481988
-0.11660000000000009,-0.08573150477182122
-0.1176000000000001,-0.08568906343282526
-0.1186000000000001,-0.08564662209382931
-0.1196000000000001,-0.08563247498083068
-0.1206000000000001,-0.0857597989978185
-0.1216000000000001,-0.08577394611081718
-0.1226000000000001,-0.08570321054582393
-0.1236000000000001,-0.08570321054582393
-0.1246000000000001,-0.08571735765882257
-0.1256000000000001,-0.08581638744981313
-0.1266000000000001,-0.08588712301480637
-0.1276000000000001,-0.08581638744981313
-0.1286000000000001,-0.08580224033681448
-0.1296000000000001,-0.08583053456281178
-0.1306000000000001,-0.08594371146680099
-0.1316000000000001,-0.08602859414479287
-0.1326000000000001,-0.08597200569279828
-0.1336000000000001,-0.08592956435380232
-0.1346000000000001,-0.08598615280579694
-0.1356000000000001,-0.08611347682278478
-0.1366000000000001,-0.08617006527477938
-0.1376000000000001,-0.08612762393578344
-0.1386000000000001,-0.08612762393578344
-0.1396000000000001,-0.08615591816178074
-0.1406000000000001,-0.08629738929176724
-0.14160000000000011,-0.08639641908275779
-0.14260000000000012,-0.0863681248567605
-0.14360000000000012,-0.08633983063076318
-0.14460000000000012,-0.08641056619575643
-0.14560000000000012,-0.08653789021274429
-0.14660000000000012,-0.0866510671167335
-0.14760000000000012,-0.08666521422973215
-0.14860000000000012,-0.08663692000373484
-0.14960000000000012,-0.08675009690772406
-0.15060000000000012,-0.08689156803771056
-0.15160000000000012,-0.08694815648970515
-0.15260000000000012,-0.08700474494169977
-0.15360000000000013,-0.0870188920546984
-0.15460000000000013,-0.08708962761969166
-0.15560000000000013,-0.08723109874967816
-0.15660000000000013,-0.08734427565366736
-0.15760000000000013,-0.08738671699266332
-0.15860000000000013,-0.08740086410566196
-0.15960000000000002,-0.08747159967065522
-0.16060000000000002,-0.08766965925263633
-0.16160000000000002,-0.08775454193062822
-0.16260000000000002,-0.08779698326962418
-0.16360000000000002,-0.08785357172161878
-0.16460000000000002,-0.08793845439961068
-0.16560000000000002,-0.08820724954658503
-0.16660000000000003,-0.0883911620155675
-0.16760000000000003,-0.08836286778957018
-0.16860000000000003,-0.0884194562415648
-0.16960000000000003,-0.0885043389195567
-0.17060000000000003,-0.08871654561453644
-0.17160000000000003,-0.08891460519651756
-0.17260000000000003,-0.0889570465355135
-0.17360000000000003,-0.0890419292135054
-0.17460000000000003,-0.08918340034349191
-0.17560000000000003,-0.08935316569947571
-0.17660000000000003,-0.08959366662045277
-0.17760000000000004,-0.08967854929844467
-0.17860000000000004,-0.08977757908943522
-0.17960000000000004,-0.08994734444541903
-0.18060000000000004,-0.09014540402740015
-0.18160000000000004,-0.09037175783537854
-0.18260000000000004,-0.09051322896536505
-0.18360000000000004,-0.09056981741735964
-0.18460000000000004,-0.09076787699934075
-0.18560000000000004,-0.09102252503331647
-0.18660000000000004,-0.09124887884129487
-0.18760000000000004,-0.09140449708428001
-0.18860000000000005,-0.09150352687527057
-0.18960000000000005,-0.09168743934425302
-0.19060000000000005,-0.09197038160422603
-0.19160000000000005,-0.09225332386419903
-0.19260000000000005,-0.09242308922018284
-0.19360000000000005,-0.09250797189817477
-0.19460000000000005,-0.09269188436715721
-0.19560000000000005,-0.09300312085312752
-0.19660000000000005,-0.09325776888710322
-0.19760000000000005,-0.09345582846908432
-0.19860000000000005,-0.09361144671206949
-0.19960000000000006,-0.09383780052004788
-0.20060000000000006,-0.0941773312320155
-0.20160000000000006,-0.0944602734919885
-0.20260000000000006,-0.0946583330739696
-0.20360000000000006,-0.0948280984299534
-0.20460000000000006,-0.09506859935093047
-0.20560000000000006,-0.09542227717589671
-0.20660000000000006,-0.09574766077486568
-0.20760000000000006,-0.09593157324384814
-0.20860000000000006,-0.09617207416482519
-0.20960000000000006,-0.09639842797280361
-0.21060000000000006,-0.09678040002376717
-0.21160000000000007,-0.09711993073573477
-0.21260000000000007,-0.09734628454371318
-0.21360000000000007,-0.09757263835169158
-0.21460000000000007,-0.09785558061166459
-0.21560000000000007,-0.09823755266262815
-0.21660000000000007,-0.09861952471359171
-0.21760000000000007,-0.09890246697356471
-0.21860000000000007,-0.09914296789454177
-0.21960000000000007,-0.09944005726751343
-0.22060000000000007,-0.09982202931847699
-0.22160000000000007,-0.10023229559543784
-0.22260000000000008,-0.10052938496840952
-0.22360000000000008,-0.10081232722838251
-0.22460000000000008,-0.10110941660135417
-0.22560000000000008,-0.10153382999131368
-0.22660000000000008,-0.10194409626827454
-0.22760000000000008,-0.10228362698024217
-0.22860000000000008,-0.10255242212721652
-0.22960000000000008,-0.10290609995218276
-0.23060000000000008,-0.10337295468113822
-0.23160000000000008,-0.10376907384510045
-0.23260000000000008,-0.10413689878306535
-0.23360000000000009,-0.104433988156037
-0.2346000000000001,-0.10478766598100327
-0.2356000000000001,-0.10526866782295738
-0.2366000000000001,-0.10573552255191283
-0.2376000000000001,-0.1061174946028764
-0.2386000000000001,-0.10645702531484401
-0.2396000000000001,-0.10681070313981027
-0.2406000000000001,-0.10736244054675763
-0.2416000000000001,-0.1078292952757131
-0.2426000000000001,-0.10821126732667666
-0.2436000000000001,-0.10859323937764022
-0.2446000000000001,-0.10900350565460108
-0.2456000000000001,-0.10951280172255247
-0.2466000000000001,-0.11003624490350256
-0.2476000000000001,-0.11044651118046342
-0.2486000000000001,-0.11085677745742427
-0.2496000000000001,-0.11126704373438513
-0.2506000000000001,-0.1117904869153352
-0.2516000000000001,-0.11235637143528121
-0.2526000000000001,-0.11275249059924342
-0.2536000000000001,-0.1131627568762043
-0.2546000000000001,-0.1136437587181584
-0.2556000000000001,-0.11419549612510577
-0.2566000000000001,-0.11477552775805042
-0.2576000000000001,-0.11522823537400724
-0.2586000000000001,-0.11566679587696539
-0.2596000000000001,-0.11620438617091411
-0.2606000000000001,-0.11679856491685743
-0.2616000000000001,-0.11740689077579938
-0.2626000000000001,-0.11790203973075215
-0.2636000000000001,-0.11831230600771302
-0.2646000000000001,-0.11883574918866308
-0.2656000000000001,-0.1194016337086091
-0.2666000000000001,-0.12003825379354836
-0.2676000000000001,-0.12054754986149978
-0.2686000000000001,-0.12098611036445794
-0.2696000000000001,-0.121509553545408
-0.2706000000000001,-0.12210373229135131
-0.2716000000000001,-0.12269791103729463
-0.2726000000000001,-0.1232779426702393
-0.2736000000000001,-0.12375894451219341
-0.2746000000000001,-0.12433897614513807
-0.2756000000000001,-0.1249614491170787
-0.2766000000000001,-0.1255839220890193
-0.2776000000000001,-0.126121512382968
-0.2786000000000001,-0.1266166613379208
-0.2796000000000001,-0.12719669297086547
-0.2806000000000001,-0.1278899015077993
-0.28160000000000013,-0.12859725715773185
-0.28260000000000013,-0.12920558301667381
-0.28360000000000013,-0.1297148790846252
-0.2846,-0.1301392924745847
-0.2856,-0.1308607952375159
-0.2866,-0.13158229800044707
-0.2876,-0.13214818252039306
-0.2886,-0.13268577281434177
-0.2896,-0.13326580444728645
-0.2906,-0.13393071875822302
-0.2916,-0.13466636863415282
-0.2926,-0.13526054738009616
-0.2936,-0.13584057901304084
-0.29460000000000003,-0.1364489048719828
-0.29560000000000003,-0.13714211340891666
-0.29660000000000003,-0.13789191039784512
-0.29760000000000003,-0.1385285304827844
-0.29860000000000003,-0.13913685634172637
-0.29960000000000003,-0.13977347642666563
-0.30060000000000003,-0.1404383907376022
-0.30160000000000003,-0.14121648195252795
-0.30260000000000004,-0.14189554337646318
-0.30360000000000004,-0.1424614278964092
-0.30460000000000004,-0.14316878354634172
-0.30560000000000004,-0.1437346680662877
-0.30660000000000004,-0.14458349484620675
-0.30760000000000004,-0.14529085049613927
-0.30860000000000004,-0.1458567350160853
-0.30960000000000004,-0.14642261953603128
-0.31060000000000004,-0.14712997518596382
-0.31160000000000004,-0.14797880196588284
-0.31260000000000004,-0.14868615761581536
-0.31360000000000005,-0.14925204213576138
-0.31460000000000005,-0.1499593977856939
-0.31560000000000005,-0.1508082245656129
-0.31660000000000005,-0.15165705134553195
-0.31760000000000005,-0.15236440699546444
-0.31860000000000005,-0.15293029151541046
-0.31960000000000005,-0.15377911829532948
-0.32060000000000005,-0.15448647394526202
-0.32160000000000005,-0.155335300725181
-0.32260000000000005,-0.15604265637511353
-0.32360000000000005,-0.15675001202504607
-0.32460000000000006,-0.1574573676749786
-0.32560000000000006,-0.1583061944548976
-0.32660000000000006,-0.15915502123481662
-0.32760000000000006,-0.15986237688474914
-0.32860000000000006,-0.16056973253468165
-0.32960000000000006,-0.16127708818461417
-0.33060000000000006,-0.16212591496453319
-0.33160000000000006,-0.16311621287443873
-0.33260000000000006,-0.16382356852437122
-0.33360000000000006,-0.16453092417430376
-0.33460000000000006,-0.16537975095422278
-0.33560000000000006,-0.16622857773414182
-0.33660000000000007,-0.16721887564404736
-0.33760000000000007,-0.16806770242396638
-0.33860000000000007,-0.16877505807389886
-0.33960000000000007,-0.1694824137238314
-0.34060000000000007,-0.17033124050375043
-0.34160000000000007,-0.17118006728366944
-0.34260000000000007,-0.17202889406358848
-0.34360000000000007,-0.172736249713521
-0.3446000000000001,-0.17358507649344
-0.3456000000000001,-0.17443390327335903
-0.3466000000000001,-0.17542420118326454
-0.34759999999999996,-0.17627302796318356
-0.3486000000000001,-0.1771218547431026
-0.34959999999999997,-0.17797068152302162
-0.3506000000000001,-0.17896097943292713
-0.35159999999999997,-0.17995127734283267
-0.3526000000000001,-0.18094157525273818
-0.35359999999999997,-0.18164893090267073
-0.3546000000000001,-0.18263922881257624
-0.35559999999999997,-0.18362952672248176
-0.3566000000000001,-0.1846198246323873
-0.3576,-0.1856101225422928
-0.3586000000000001,-0.18645894932221183
-0.3596,-0.18730777610213087
-0.3606000000000001,-0.18843954514202288
-0.3616,-0.18942984305192842
-0.3626000000000001,-0.19042014096183393
-0.3636,-0.19141043887173945
-0.3646000000000001,-0.192400736781645
-0.3656,-0.1933910346915505
-0.3666000000000001,-0.19452280373144254
-0.3676,-0.19565457277133455
-0.3686000000000001,-0.1966448706812401
-0.3696,-0.1976351685911456
-0.3706000000000001,-0.19876693763103764
-0.3716,-0.19989870667092968
-0.3726000000000001,-0.2008890045808352
-0.3736,-0.20187930249074074
-0.3746000000000001,-0.20301107153063278
-0.3756,-0.2041428405705248
-0.3766000000000001,-0.20541608074040332
-0.3776,-0.2065478497802954
-0.3786000000000001,-0.2076796188201874
-0.3796,-0.2088113878600794
-0.3806000000000001,-0.20994315689997145
-0.3816,-0.21121639706985
-0.3826000000000001,-0.21248963723972852
-0.3836,-0.21362140627962053
-0.3846000000000001,-0.21489464644949907
-0.3856,-0.2160264154893911
-0.3866000000000001,-0.21744112678925615
-0.3876,-0.21871436695913468
-0.3886000000000001,-0.2199876071290132
-0.3896,-0.22111937616890526
-0.3906000000000001,-0.22253408746877026
-0.3916,-0.22380732763864883
-0.3926000000000001,-0.22522203893851384
-0.3936,-0.22649527910839237
-0.3946000000000001,-0.22776851927827088
-0.3956,-0.22918323057813594
-0.3966000000000001,-0.23059794187800098
-0.3976,-0.23187118204787951
-0.3986000000000001,-0.23328589334774452
-0.3996,-0.2345591335176231
-0.4006000000000001,-0.23611531594747462
-0.4016,-0.23767149837732615
-0.4026000000000001,-0.2392276808071777
-0.4036,-0.24064239210704275
-0.4046000000000001,-0.2420571034069078
-0.4056,-0.24361328583675934
-0.40660000000000013,-0.24516946826661082
-0.4076,-0.24672565069646235
-0.40860000000000013,-0.24814036199632744
-0.4096,-0.24969654442617895
-0.41060000000000013,-0.2512527268560305
-0.4116,-0.25295038041586854
-0.41260000000000013,-0.25464803397570657
-0.4136,-0.2560627452755716
-0.41460000000000014,-0.25761892770542316
-0.4156,-0.25931658126526125
-0.41660000000000014,-0.2611557059550858
-0.4176,-0.2627118883849373
-0.41860000000000014,-0.26440954194477534
-0.41960000000000003,-0.2661071955046134
-0.42060000000000014,-0.267946320194438
-0.42160000000000003,-0.2697854448842625
-0.42260000000000014,-0.27162456957408704
-0.42360000000000003,-0.2731807520039386
-0.42460000000000014,-0.27501987669376315
-0.42560000000000003,-0.2767175302536012
-0.42660000000000015,-0.27869812607341227
-0.42760000000000004,-0.2806787218932233
-0.42860000000000015,-0.2823763754530613
-0.42960000000000004,-0.2842155001428859
-0.43060000000000015,-0.28605462483271044
-0.43160000000000004,-0.2880352206525215
-0.43260000000000015,-0.290157287602319
-0.43360000000000004,-0.29199641229214357
-0.43460000000000015,-0.29397700811195465
-0.43560000000000004,-0.2959576039317657
-0.43660000000000015,-0.29807967088156323
-0.43760000000000004,-0.3002017378313608
