Potential V vs RHE, Current mA cm-2
0.05339999999999995,-0.08977757908943522
0.05239999999999995,-0.090838612564334
0.051399999999999946,-0.09136205574528407
0.050399999999999945,-0.09171573357025031
0.049399999999999944,-0.09204111716921928
0.04839999999999994,-0.09229576520319499
0.04739999999999994,-0.09253626612417204
0.04639999999999994,-0.0927767670451491
0.04539999999999994,-0.09303141507912481
0.04439999999999994,-0.09328606311310052
0.04339999999999994,-0.09345582846908432
0.04239999999999994,-0.09368218227706274
0.04139999999999994,-0.09389438897204248
0.040399999999999936,-0.09414903700601819
0.039399999999999935,-0.09441783215299256
0.038399999999999934,-0.09461589173497365
0.03739999999999993,-0.09481395131695476
0.03639999999999993,-0.09501201089893586
0.03539999999999993,-0.09523836470691427
0.03439999999999993,-0.09549301274088996
0.03339999999999993,-0.09567692520987243
0.03239999999999993,-0.09590327901785084
0.03139999999999993,-0.09611548571283059
0.030399999999999927,-0.09634183952080899
0.029399999999999926,-0.09661063466778336
0.028399999999999925,-0.09683698847576175
0.027399999999999924,-0.09703504805774286
0.026399999999999924,-0.09726140186572127
0.025399999999999923,-0.09750190278669833
0.024399999999999922,-0.09775655082067403
0.02339999999999992,-0.09796875751565379
0.02239999999999992,-0.09818096421063353
0.02139999999999992,-0.09843561224460926
0.020399999999999918,-0.0987044073915836
0.019399999999999917,-0.09895905542555931
0.018399999999999916,-0.09917126212053906
0.017399999999999916,-0.09941176304151612
0.016399999999999915,-0.09963811684949454
0.015399999999999914,-0.09992105910946754
0.014399999999999913,-0.10018985425644189
0.013399999999999912,-0.1004445022904176
0.012399999999999911,-0.10072744455039061
0.01139999999999991,-0.10095379835836901
0.01039999999999991,-0.10123674061834202
0.009399999999999908,-0.10151968287831505
0.008399999999999908,-0.10174603668629344
0.007399999999999907,-0.10202897894626643
0.006399999999999906,-0.1022694798672435
0.005399999999999905,-0.10255242212721652
0.004399999999999904,-0.10284951150018817
0.003399999999999903,-0.10309001242116521
0.002399999999999902,-0.10337295468113822
0.0013999999999999013,-0.10362760271511394
0.00039999999999990044,-0.1039246920880856
-0.0006000000000001005,-0.10423592857405589
-0.0016000000000001013,-0.10447642949503295
-0.0026000000000001022,-0.1047452246420073
-0.003600000000000103,-0.10502816690198033
-0.004600000000000104,-0.10532525627495198
-0.005600000000000105,-0.1056364927609223
-0.006600000000000106,-0.10593358213389395
-0.007600000000000107,-0.10621652439386696
-0.008600000000000108,-0.10648531954084133
-0.009600000000000108,-0.10679655602681161
-0.01060000000000011,-0.10710779251278192
-0.01160000000000011,-0.10737658765975629
-0.012600000000000111,-0.10770197125872524
-0.013600000000000112,-0.10798491351869824
-0.014600000000000113,-0.10826785577867125
-0.015600000000000114,-0.10859323937764022
-0.016600000000000115,-0.10886203452461457
-0.017600000000000116,-0.10918741812358353
-0.018600000000000116,-0.10947036038355652
-0.019600000000000117,-0.1097957439825255
-0.020600000000000118,-0.1101069804684958
-0.02160000000000012,-0.11034748138947285
-0.02260000000000012,-0.11064457076244452
-0.02360000000000012,-0.11096995436141348
-0.024600000000000122,-0.11130948507338108
-0.025600000000000123,-0.11163486867235005
-0.026600000000000124,-0.11187536959332708
-0.027600000000000124,-0.11218660607929741
-0.028600000000000125,-0.11246954833927042
-0.029600000000000126,-0.11278078482524072
-0.030600000000000127,-0.11310616842420969
-0.03160000000000013,-0.1133891106841827
-0.03260000000000013,-0.11365790583115705
-0.03360000000000013,-0.11394084809113005
-0.03460000000000002,-0.11426623169009903
-0.03560000000000002,-0.11457746817606933
-0.03660000000000002,-0.11483211621004503
-0.03760000000000002,-0.11514335269601533
-0.03860000000000002,-0.11542629495598833
-0.039600000000000024,-0.11575167855495731
-0.040600000000000025,-0.11609120926692493
-0.041600000000000026,-0.11637415152689792
-0.04260000000000003,-0.11664294667387226
-0.04360000000000003,-0.11691174182084664
-0.04460000000000003,-0.11722297830681694
-0.04560000000000003,-0.11752006767978859
-0.04660000000000003,-0.11778886282676294
-0.04760000000000003,-0.11804351086073867
-0.04860000000000003,-0.11831230600771302
-0.04960000000000003,-0.11858110115468738
-0.050600000000000034,-0.11887819052765905
-0.051600000000000035,-0.11914698567463339
-0.052600000000000036,-0.11937333948261179
-0.053600000000000037,-0.1196279875165875
-0.05460000000000004,-0.11991092977656051
-0.05560000000000004,-0.1201938720365335
-0.05660000000000004,-0.12044852007050923
-0.05760000000000004,-0.12067487387848763
-0.05860000000000004,-0.12092952191246334
-0.05960000000000004,-0.12118416994643905
-0.06060000000000004,-0.1214529650934134
-0.061600000000000044,-0.12166517178839317
-0.06260000000000004,-0.12186323137037425
-0.06360000000000005,-0.12207543806535401
-0.06460000000000005,-0.12231593898633109
-0.06560000000000005,-0.12255643990730813
-0.06660000000000005,-0.1227686466022879
-0.06760000000000005,-0.12298085329726763
-0.06860000000000005,-0.12317891287924874
-0.06960000000000005,-0.1234194138002258
-0.07060000000000005,-0.12365991472120287
-0.07160000000000005,-0.1238438271901853
-0.07260000000000005,-0.12404188677216642
-0.07360000000000005,-0.12422579924114888
-0.07460000000000006,-0.12443800593612864
-0.07560000000000006,-0.12467850685710569
-0.07660000000000006,-0.12486241932608814
-0.07760000000000006,-0.12501803756907331
-0.07860000000000006,-0.12518780292505707
-0.07960000000000006,-0.12537171539403955
-0.08060000000000006,-0.125555627863022
-0.08160000000000006,-0.12568295188000986
-0.08260000000000006,-0.1258668643489923
-0.08360000000000006,-0.12600833547897883
-0.08460000000000006,-0.12616395372196398
-0.08560000000000006,-0.12634786619094643
-0.08660000000000007,-0.12647519020793427
-0.08760000000000007,-0.1266166613379208
-0.08860000000000007,-0.1267581324679073
-0.08960000000000007,-0.12694204493688974
-0.09060000000000007,-0.12708351606687623
-0.09160000000000007,-0.12718254585786679
-0.09260000000000007,-0.12730986987485465
-0.09360000000000007,-0.12742304677884386
-0.09460000000000007,-0.1275503707958317
-0.09560000000000007,-0.12770598903881686
-0.09660000000000007,-0.12781916594280607
-0.09760000000000008,-0.12787575439480064
-0.09860000000000008,-0.12798893129878988
-0.09960000000000008,-0.12811625531577772
-0.10060000000000008,-0.1282294322197669
-0.10160000000000008,-0.12832846201075748
-0.10260000000000008,-0.12838505046275206
-0.10360000000000008,-0.12845578602774532
-0.10460000000000008,-0.12855481581873587
-0.10560000000000008,-0.12866799272272508
-0.10660000000000008,-0.12873872828771835
-0.10760000000000008,-0.12880946385271158
-0.10860000000000009,-0.12888019941770484
-0.10960000000000009,-0.12895093498269808
-0.11060000000000009,-0.12903581766069
-0.11160000000000009,-0.12907825899968592
-0.11260000000000009,-0.12913484745168055
-0.11360000000000009,-0.12916314167767784
-0.11460000000000009,-0.12926217146866842
-0.11560000000000009,-0.12933290703366165
-0.11660000000000009,-0.1293753483726576
-0.1176000000000001,-0.12941778971165355
-0.1186000000000001,-0.12944608393765086
-0.1196000000000001,-0.12950267238964547
-0.1206000000000001,-0.1295734079546387
-0.1216000000000001,-0.129601702180636
-0.1226000000000001,-0.1296299964066333
-0.1236000000000001,-0.12964414351963197
-0.1246000000000001,-0.12970073197162654
-0.1256000000000001,-0.12974317331062254
-0.1266000000000001,-0.12978561464961846
-0.1276000000000001,-0.12979976176261712
-0.1286000000000001,-0.12982805598861444
-0.1296000000000001,-0.12984220310161304
-0.1306000000000001,-0.1299129386666063
-0.1316000000000001,-0.12992708577960496
-0.1326000000000001,-0.12989879155360767
-0.1336000000000001,-0.12994123289260362
-0.1346000000000001,-0.12996952711860094
-0.1356000000000001,-0.13001196845759688
-0.1366000000000001,-0.13001196845759688
-0.1376000000000001,-0.1299978213445982
-0.1386000000000001,-0.1299978213445982
-0.1396000000000001,-0.13002611557059554
-0.1406000000000001,-0.13006855690959146
-0.14160000000000011,-0.13006855690959146
-0.14260000000000012,-0.13004026268359417
-0.14360000000000012,-0.13004026268359417
-0.14460000000000012,-0.13005440979659283
-0.14560000000000012,-0.13006855690959146
-0.14660000000000012,-0.13006855690959146
-0.14760000000000012,-0.13005440979659283
-0.14860000000000012,-0.13004026268359417
-0.14960000000000012,-0.13005440979659283
-0.15060000000000012,-0.13009685113558878
-0.15160000000000012,-0.13008270402259012
-0.15260000000000012,-0.13011099824858743
-0.15360000000000013,-0.13009685113558878
-0.15460000000000013,-0.13009685113558878
-0.15560000000000013,-0.13015343958758338
-0.15660000000000013,-0.13015343958758338
-0.15760000000000013,-0.1301392924745847
-0.15860000000000013,-0.1301251453615861
-0.15960000000000002,-0.1301392924745847
-0.16060000000000002,-0.13015343958758338
-0.16160000000000002,-0.13011099824858743
-0.16260000000000002,-0.13011099824858743
-0.16360000000000002,-0.13011099824858743
-0.16460000000000002,-0.13009685113558878
-0.16560000000000002,-0.13016758670058204
-0.16660000000000003,-0.13015343958758338
-0.16760000000000003,-0.1301251453615861
-0.16860000000000003,-0.1301392924745847
-0.16960000000000003,-0.1301251453615861
-0.17060000000000003,-0.13016758670058204
-0.17160000000000003,-0.13015343958758338
-0.17260000000000003,-0.13015343958758338
-0.17360000000000003,-0.13016758670058204
-0.17460000000000003,-0.13018173381358067
-0.17560000000000003,-0.13021002803957799
-0.17660000000000003,-0.13021002803957799
-0.17760000000000004,-0.13021002803957799
-0.17860000000000004,-0.13021002803957799
-0.17960000000000004,-0.13022417515257662
-0.18060000000000004,-0.13028076360457122
-0.18160000000000004,-0.13029491071756988
-0.18260000000000004,-0.13028076360457122
-0.18360000000000004,-0.13028076360457122
-0.18460000000000004,-0.13033735205656583
-0.18560000000000004,-0.13039394050856043
-0.18660000000000004,-0.1304363818475564
-0.18760000000000004,-0.13045052896055503
-0.18860000000000005,-0.13045052896055503
-0.18960000000000005,-0.13049297029955098
-0.19060000000000005,-0.13052126452554827
-0.19160000000000005,-0.13053541163854693
-0.19260000000000005,-0.13054955875154559
-0.19360000000000005,-0.13054955875154559
-0.19460000000000005,-0.1305778529775429
-0.19560000000000005,-0.1306627356555348
-0.19660000000000005,-0.1306627356555348
-0.19760000000000005,-0.1306627356555348
-0.19860000000000005,-0.13069102988153208
-0.19960000000000006,-0.1307476183335267
-0.20060000000000006,-0.13081835389851995
-0.20160000000000006,-0.1308607952375159
-0.20260000000000006,-0.13087494235051456
-0.20360000000000006,-0.13090323657651182
-0.20460000000000006,-0.13091738368951047
-0.20560000000000006,-0.1310022663675024
-0.20660000000000006,-0.13104470770649834
-0.20760000000000006,-0.13104470770649834
-0.20860000000000006,-0.13107300193249566
-0.20960000000000006,-0.13107300193249566
-0.21060000000000006,-0.1311720317234862
-0.21160000000000007,-0.13108714904549432
-0.21260000000000007,-0.1310305605934997
-0.21360000000000007,-0.13105885481949697
-0.21460000000000007,-0.13110129615849295
-0.21560000000000007,-0.1311437374974889
-0.21660000000000007,-0.1311720317234862
-0.21760000000000007,-0.13124276728847944
-0.21860000000000007,-0.13127106151447676
-0.21960000000000007,-0.13134179707947
-0.22060000000000007,-0.13141253264446326
-0.22160000000000007,-0.1314832682094565
-0.22260000000000008,-0.1314832682094565
-0.22360000000000008,-0.1315398566614511
-0.22460000000000008,-0.1315964451134457
-0.22560000000000008,-0.13166718067843897
-0.22660000000000008,-0.13172376913043357
-0.22760000000000008,-0.13175206335643086
-0.22860000000000008,-0.13179450469542683
-0.22960000000000008,-0.13192182871241467
-0.23060000000000008,-0.13200671139040657
-0.23160000000000008,-0.1320491527294025
-0.23260000000000008,-0.1320915940683985
-0.23360000000000009,-0.13214818252039306
-0.2346000000000001,-0.13221891808538633
-0.2356000000000001,-0.13224721231138362
-0.2366000000000001,-0.13230380076337822
-0.2376000000000001,-0.1323462421023742
-0.2386000000000001,-0.13240283055436877
-0.2396000000000001,-0.1324877132323607
-0.2406000000000001,-0.13260089013634987
-0.2416000000000001,-0.13265747858834448
-0.2426000000000001,-0.13274236126633637
-0.2436000000000001,-0.13284139105732695
-0.2446000000000001,-0.1329404208483175
-0.2456000000000001,-0.1330253035263094
-0.2466000000000001,-0.13306774486530534
-0.2476000000000001,-0.133081891978304
-0.2486000000000001,-0.1331101862043013
-0.2496000000000001,-0.1331950688822932
-0.2506000000000001,-0.13329409867328376
-0.2516000000000001,-0.13337898135127566
-0.2526000000000001,-0.1334214226902716
-0.2536000000000001,-0.13347801114226623
-0.2546000000000001,-0.13356289382025813
-0.2556000000000001,-0.1336760707242473
-0.2566000000000001,-0.1337751005152379
-0.2576000000000001,-0.13384583608023112
-0.2586000000000001,-0.1339590129842203
-0.2596000000000001,-0.13404389566221223
-0.2606000000000001,-0.13415707256620144
-0.2616000000000001,-0.13429854369618793
-0.2626000000000001,-0.13435513214818254
-0.2636000000000001,-0.13441172060017711
-0.2646000000000001,-0.13456733884316227
-0.2656000000000001,-0.1346805157471515
-0.2666000000000001,-0.13489272244213124
-0.2676000000000001,-0.1350766349111137
-0.2686000000000001,-0.13514737047610695
-0.2696000000000001,-0.13524640026709753
-0.2706000000000001,-0.13543031273607994
-0.2716000000000001,-0.13561422520506242
-0.2726000000000001,-0.13568496077005568
-0.2736000000000001,-0.13571325499605294
-0.2746000000000001,-0.13578399056104623
-0.2756000000000001,-0.13591131457803407
-0.2766000000000001,-0.1358971674650354
-0.2776000000000001,-0.13591131457803407
-0.2786000000000001,-0.13603863859502194
-0.2796000000000001,-0.13620840395100572
-0.2806000000000001,-0.1363923164199882
-0.28160000000000013,-0.13647719909798006
-0.28260000000000013,-0.13663281734096522
-0.28360000000000013,-0.13677428847095174
-0.2846,-0.136845024035945
-0.2856,-0.13694405382693556
-0.2866,-0.1370430836179261
-0.2876,-0.13715626052191532
-0.2886,-0.13728358453890316
-0.2896,-0.13742505566888966
-0.2906,-0.13750993834688158
-0.2916,-0.13753823257287887
-0.2926,-0.13766555658986673
-0.2936,-0.13784946905884918
-0.29460000000000003,-0.13797679307583702
-0.29560000000000003,-0.13814655843182086
-0.29660000000000003,-0.1382738824488087
-0.29760000000000003,-0.13825973533581
-0.29860000000000003,-0.1384012064657965
-0.29960000000000003,-0.138542677595783
-0.30060000000000003,-0.1387265900647655
-0.30160000000000003,-0.13888220830775064
-0.30260000000000004,-0.13896709098574256
-0.30360000000000004,-0.13899538521173985
-0.30460000000000004,-0.13919344479372098
-0.30560000000000004,-0.13933491592370748
-0.30660000000000004,-0.1396037110706818
-0.30760000000000004,-0.13973103508766968
-0.30860000000000004,-0.13991494755665213
-0.30960000000000004,-0.14007056579963728
-0.31060000000000004,-0.14014130136463052
-0.31160000000000004,-0.1402261840426224
-0.31260000000000004,-0.14039594939860625
-0.31360000000000005,-0.14056571475459004
-0.31460000000000005,-0.1407213329975752
-0.31560000000000005,-0.14082036278856577
-0.31660000000000005,-0.14104671659654416
-0.31760000000000005,-0.14094768680555358
-0.31860000000000005,-0.1409759810315509
-0.31960000000000005,-0.14108915793554008
-0.32060000000000005,-0.14132965885651716
-0.32160000000000005,-0.14147112998650369
-0.32260000000000005,-0.14175407224647668
-0.32360000000000005,-0.14189554337646318
-0.32460000000000006,-0.1421784856364362
-0.32560000000000006,-0.1423199567664227
-0.32660000000000006,-0.1424614278964092
-0.32760000000000006,-0.1424614278964092
-0.32860000000000006,-0.1427443701563822
-0.32960000000000006,-0.1428858412863687
-0.33060000000000006,-0.14316878354634172
-0.33160000000000006,-0.1434517258063147
-0.33260000000000006,-0.1435931969363012
-0.33360000000000006,-0.1437346680662877
-0.33460000000000006,-0.14387613919627423
-0.33560000000000006,-0.14415908145624726
-0.33660000000000007,-0.14430055258623375
-0.33760000000000007,-0.14444202371622025
-0.33860000000000007,-0.14472496597619325
-0.33960000000000007,-0.14486643710617977
-0.34060000000000007,-0.14514937936615277
-0.34160000000000007,-0.14529085049613927
-0.34260000000000007,-0.14557379275611226
-0.34360000000000007,-0.14571526388609876
-0.3446000000000001,-0.14599820614607179
-0.3456000000000001,-0.14628114840604478
-0.3466000000000001,-0.14642261953603128
-0.34759999999999996,-0.14642261953603128
-0.3486000000000001,-0.1465640906660178
-0.34959999999999997,-0.14684703292599083
-0.3506000000000001,-0.14698850405597733
-0.35159999999999997,-0.14712997518596382
-0.3526000000000001,-0.14741291744593682
-0.35359999999999997,-0.14769585970590982
-0.3546000000000001,-0.14797880196588284
-0.35559999999999997,-0.14812027309586934
-0.3566000000000001,-0.14840321535584233
-0.3576,-0.14868615761581536
-0.3586000000000001,-0.14882762874580185
-0.3596,-0.14896909987578838
-0.3606000000000001,-0.14939351326574787
-0.3616,-0.14953498439573437
-0.3626000000000001,-0.1496764555257209
-0.3636,-0.1501008689156804
-0.3646000000000001,-0.1503838111756534
-0.3656,-0.1508082245656129
-0.3666000000000001,-0.1510911668255859
-0.3676,-0.1512326379555724
-0.3686000000000001,-0.15151558021554543
-0.3696,-0.15179852247551845
-0.3706000000000001,-0.15236440699546444
-0.3716,-0.15264734925543746
-0.3726000000000001,-0.15293029151541046
-0.3736,-0.15307176264539696
-0.3746000000000001,-0.15349617603535648
-0.3756,-0.15377911829532948
-0.3766000000000001,-0.154203531685289
-0.3776,-0.15448647394526202
-0.3786000000000001,-0.15491088733522151
-0.3796,-0.1551938295951945
-0.3806000000000001,-0.15547677185516753
-0.3816,-0.15575971411514053
-0.3826000000000001,-0.15618412750510002
-0.3836,-0.15646706976507307
-0.3846000000000001,-0.15689148315503257
-0.3856,-0.15731589654499206
-0.3866000000000001,-0.15774030993495158
-0.3876,-0.15816472332491108
-0.3886000000000001,-0.1585891367148706
-0.3896,-0.1588720789748436
-0.3906000000000001,-0.15929649236480314
-0.3916,-0.15972090575476264
-0.3926000000000001,-0.16000384801473563
-0.3936,-0.16042826140469515
-0.3946000000000001,-0.16085267479465465
-0.3956,-0.16127708818461417
-0.3966000000000001,-0.1618429727045602
-0.3976,-0.1622673860945197
-0.3986000000000001,-0.1626917994844792
-0.3996,-0.16311621287443873
-0.4006000000000001,-0.16354062626439822
-0.4016,-0.16396503965435774
-0.4026000000000001,-0.16438945304431726
-0.4036,-0.16481386643427676
-0.4046000000000001,-0.16523827982423628
-0.4056,-0.1658041643441823
-0.40660000000000013,-0.16622857773414182
-0.4076,-0.1666529911241013
-0.40860000000000013,-0.16721887564404736
-0.4096,-0.16764328903400685
-0.41060000000000013,-0.16806770242396638
-0.4116,-0.16835064468393937
-0.41260000000000013,-0.1689165292038854
-0.4136,-0.1696238848538179
-0.41460000000000014,-0.17018976937376393
-0.4156,-0.17047271163373692
-0.41660000000000014,-0.17103859615368294
-0.4176,-0.17132153841365594
-0.41860000000000014,-0.17174595180361546
-0.41960000000000003,-0.17231183632356148
-0.42060000000000014,-0.1728777208435075
-0.42160000000000003,-0.1734436053634535
-0.42260000000000014,-0.17415096101338604
-0.42360000000000003,-0.17471684553333205
-0.42460000000000014,-0.17542420118326454
-0.42560000000000003,-0.17627302796318356
-0.42660000000000015,-0.1771218547431026
-0.42760000000000004,-0.17782921039303512
-0.42860000000000015,-0.17853656604296764
-0.42960000000000004,-0.17910245056291366
-0.43060000000000015,-0.17966833508285968
-0.43160000000000004,-0.18023421960280567
-0.43260000000000015,-0.1808001041227517
-0.43360000000000004,-0.18136598864269768
-0.43460000000000015,-0.18193187316264373
-0.43560000000000004,-0.18278069994256274
-0.43660000000000015,-0.18348805559249526
-0.43760000000000004,-0.18405394011244128
-0.43860000000000016,-0.1847612957623738
