Aug. 20, 2024   19:17:49
Cyclic Voltammetry
File: c:/users/guazh/data/20240813_batch_94_500/2024-08-15-exp143\exp143-2024-08-20t18_58_55-arkoh\exp143_cv_sr_100mvs_efin_-1900mv.bin
Data Source:  Experiment
Instrument Model:  CHI760E
Header: CV ran at 100 mVs
Note: 

Init E (V) = -1
High E (V) = -1
Low E (V) = -1.9
Final E (V) = -1
Init P/N = N
Scan Rate (V/s) = 0.1
Segment = 3
Sample Interval (V) = 0.001
Quiet Time (sec) = 2
Sensitivity (A/V) = 0.01
Comp R (ohm) = 2.0

Results:

Channel 1:
Segment 1:

Segment 2:

Segment 3:

Potential/V, Current/A

-1.000, 3.828e-7
-1.001, 6.097e-7
-1.002, 6.689e-7
-1.003, 6.788e-7
-1.004, 6.393e-7
-1.005, 6.689e-7
-1.006, 7.774e-7
-1.007, 8.564e-7
-1.008, 7.182e-7
-1.009, 8.564e-7
-1.010, 8.465e-7
-1.011, 8.761e-7
-1.012, 1.073e-6
-1.013, 9.156e-7
-1.014, 1.004e-6
-1.015, 9.452e-7
-1.016, 1.083e-6
-1.017, 8.860e-7
-1.018, 1.014e-6
-1.019, 1.083e-6
-1.020, 7.873e-7
-1.021, 1.093e-6
-1.022, 1.014e-6
-1.023, 1.044e-6
-1.024, 1.241e-6
-1.025, 1.044e-6
-1.026, 1.103e-6
-1.027, 1.290e-6
-1.028, 1.142e-6
-1.029, 1.133e-6
-1.030, 1.241e-6
-1.031, 1.192e-6
-1.032, 1.241e-6
-1.033, 1.231e-6
-1.034, 1.369e-6
-1.035, 1.231e-6
-1.036, 1.231e-6
-1.037, 1.251e-6
-1.038, 1.192e-6
-1.039, 1.300e-6
-1.040, 1.172e-6
-1.041, 1.330e-6
-1.042, 1.290e-6
-1.043, 1.330e-6
-1.044, 1.310e-6
-1.045, 1.261e-6
-1.046, 1.399e-6
-1.047, 1.369e-6
-1.048, 1.182e-6
-1.049, 1.300e-6
-1.050, 1.281e-6
-1.051, 1.399e-6
-1.052, 1.448e-6
-1.053, 1.330e-6
-1.054, 1.448e-6
-1.055, 1.350e-6
-1.056, 1.438e-6
-1.057, 1.468e-6
-1.058, 1.419e-6
-1.059, 1.527e-6
-1.060, 1.350e-6
-1.061, 1.508e-6
-1.062, 1.488e-6
-1.063, 1.488e-6
-1.064, 1.517e-6
-1.065, 1.596e-6
-1.066, 1.498e-6
-1.067, 1.458e-6
-1.068, 1.616e-6
-1.069, 1.616e-6
-1.070, 1.419e-6
-1.071, 1.616e-6
-1.072, 1.379e-6
-1.073, 1.448e-6
-1.074, 1.527e-6
-1.075, 1.586e-6
-1.076, 1.626e-6
-1.077, 1.596e-6
-1.078, 1.508e-6
-1.079, 1.616e-6
-1.080, 1.685e-6
-1.081, 1.586e-6
-1.082, 1.725e-6
-1.083, 1.498e-6
-1.084, 1.616e-6
-1.085, 1.665e-6
-1.086, 1.744e-6
-1.087, 1.675e-6
-1.088, 1.656e-6
-1.089, 1.636e-6
-1.090, 1.636e-6
-1.091, 1.715e-6
-1.092, 1.656e-6
-1.093, 1.586e-6
-1.094, 1.725e-6
-1.095, 1.754e-6
-1.096, 1.764e-6
-1.097, 1.725e-6
-1.098, 1.843e-6
-1.099, 1.685e-6
-1.100, 1.754e-6
-1.101, 1.656e-6
-1.102, 1.823e-6
-1.103, 1.744e-6
-1.104, 1.813e-6
-1.105, 1.695e-6
-1.106, 1.833e-6
-1.107, 1.922e-6
-1.108, 1.794e-6
-1.109, 1.813e-6
-1.110, 1.675e-6
-1.111, 1.902e-6
-1.112, 1.833e-6
-1.113, 1.922e-6
-1.114, 1.863e-6
-1.115, 1.794e-6
-1.116, 1.902e-6
-1.117, 1.764e-6
-1.118, 1.843e-6
-1.119, 1.912e-6
-1.120, 1.853e-6
-1.121, 1.981e-6
-1.122, 1.942e-6
-1.123, 1.882e-6
-1.124, 1.794e-6
-1.125, 1.715e-6
-1.126, 2.090e-6
-1.127, 1.932e-6
-1.128, 1.912e-6
-1.129, 1.961e-6
-1.130, 2.060e-6
-1.131, 2.169e-6
-1.132, 1.942e-6
-1.133, 1.912e-6
-1.134, 2.001e-6
-1.135, 2.011e-6
-1.136, 1.981e-6
-1.137, 2.099e-6
-1.138, 1.951e-6
-1.139, 2.030e-6
-1.140, 2.080e-6
-1.141, 2.139e-6
-1.142, 2.129e-6
-1.143, 2.040e-6
-1.144, 2.011e-6
-1.145, 2.099e-6
-1.146, 2.080e-6
-1.147, 2.021e-6
-1.148, 2.119e-6
-1.149, 2.040e-6
-1.150, 2.021e-6
-1.151, 2.129e-6
-1.152, 2.267e-6
-1.153, 2.139e-6
-1.154, 2.188e-6
-1.155, 2.287e-6
-1.156, 2.149e-6
-1.157, 2.119e-6
-1.158, 2.208e-6
-1.159, 2.178e-6
-1.160, 2.139e-6
-1.161, 2.198e-6
-1.162, 2.159e-6
-1.163, 2.178e-6
-1.164, 2.109e-6
-1.165, 2.119e-6
-1.166, 2.188e-6
-1.167, 2.169e-6
-1.168, 2.080e-6
-1.169, 2.208e-6
-1.170, 2.139e-6
-1.171, 2.198e-6
-1.172, 2.346e-6
-1.173, 2.238e-6
-1.174, 2.208e-6
-1.175, 2.267e-6
-1.176, 2.277e-6
-1.177, 2.307e-6
-1.178, 2.346e-6
-1.179, 2.238e-6
-1.180, 2.247e-6
-1.181, 2.356e-6
-1.182, 2.494e-6
-1.183, 2.356e-6
-1.184, 2.277e-6
-1.185, 2.257e-6
-1.186, 2.415e-6
-1.187, 2.395e-6
-1.188, 2.297e-6
-1.189, 2.159e-6
-1.190, 2.297e-6
-1.191, 2.435e-6
-1.192, 2.455e-6
-1.193, 2.218e-6
-1.194, 2.395e-6
-1.195, 2.366e-6
-1.196, 2.553e-6
-1.197, 2.425e-6
-1.198, 2.287e-6
-1.199, 2.297e-6
-1.200, 2.267e-6
-1.201, 2.356e-6
-1.202, 2.366e-6
-1.203, 2.415e-6
-1.204, 2.474e-6
-1.205, 2.366e-6
-1.206, 2.563e-6
-1.207, 2.494e-6
-1.208, 2.484e-6
-1.209, 2.494e-6
-1.210, 2.435e-6
-1.211, 2.514e-6
-1.212, 2.376e-6
-1.213, 2.474e-6
-1.214, 2.484e-6
-1.215, 2.455e-6
-1.216, 2.593e-6
-1.217, 2.543e-6
-1.218, 2.553e-6
-1.219, 2.435e-6
-1.220, 2.543e-6
-1.221, 2.494e-6
-1.222, 2.593e-6
-1.223, 2.534e-6
-1.224, 2.553e-6
-1.225, 2.494e-6
-1.226, 2.622e-6
-1.227, 2.534e-6
-1.228, 2.632e-6
-1.229, 2.741e-6
-1.230, 2.711e-6
-1.231, 2.899e-6
-1.232, 2.691e-6
-1.233, 2.652e-6
-1.234, 2.593e-6
-1.235, 2.751e-6
-1.236, 2.721e-6
-1.237, 2.751e-6
-1.238, 2.770e-6
-1.239, 2.849e-6
-1.240, 2.701e-6
-1.241, 2.760e-6
-1.242, 2.632e-6
-1.243, 2.731e-6
-1.244, 2.682e-6
-1.245, 2.682e-6
-1.246, 2.830e-6
-1.247, 2.770e-6
-1.248, 2.987e-6
-1.249, 2.662e-6
-1.250, 2.682e-6
-1.251, 2.790e-6
-1.252, 2.780e-6
-1.253, 2.839e-6
-1.254, 2.760e-6
-1.255, 2.908e-6
-1.256, 2.948e-6
-1.257, 2.849e-6
-1.258, 2.908e-6
-1.259, 2.889e-6
-1.260, 2.889e-6
-1.261, 2.968e-6
-1.262, 2.869e-6
-1.263, 2.918e-6
-1.264, 2.879e-6
-1.265, 2.879e-6
-1.266, 2.908e-6
-1.267, 2.859e-6
-1.268, 2.869e-6
-1.269, 2.849e-6
-1.270, 2.938e-6
-1.271, 3.066e-6
-1.272, 3.076e-6
-1.273, 3.027e-6
-1.274, 2.978e-6
-1.275, 2.968e-6
-1.276, 3.066e-6
-1.277, 2.978e-6
-1.278, 2.830e-6
-1.279, 3.047e-6
-1.280, 3.086e-6
-1.281, 3.175e-6
-1.282, 3.155e-6
-1.283, 3.204e-6
-1.284, 3.214e-6
-1.285, 3.135e-6
-1.286, 3.145e-6
-1.287, 3.076e-6
-1.288, 3.126e-6
-1.289, 3.116e-6
-1.290, 3.076e-6
-1.291, 3.175e-6
-1.292, 3.086e-6
-1.293, 3.155e-6
-1.294, 3.234e-6
-1.295, 3.106e-6
-1.296, 3.244e-6
-1.297, 3.185e-6
-1.298, 3.264e-6
-1.299, 3.234e-6
-1.300, 3.106e-6
-1.301, 3.274e-6
-1.302, 3.116e-6
-1.303, 3.175e-6
-1.304, 3.165e-6
-1.305, 3.283e-6
-1.306, 3.343e-6
-1.307, 3.392e-6
-1.308, 3.362e-6
-1.309, 3.412e-6
-1.310, 3.323e-6
-1.311, 3.293e-6
-1.312, 3.333e-6
-1.313, 3.392e-6
-1.314, 3.392e-6
-1.315, 3.461e-6
-1.316, 3.500e-6
-1.317, 3.274e-6
-1.318, 3.510e-6
-1.319, 3.333e-6
-1.320, 3.510e-6
-1.321, 3.579e-6
-1.322, 3.402e-6
-1.323, 3.451e-6
-1.324, 3.481e-6
-1.325, 3.530e-6
-1.326, 3.520e-6
-1.327, 3.520e-6
-1.328, 3.727e-6
-1.329, 3.619e-6
-1.330, 3.550e-6
-1.331, 3.737e-6
-1.332, 3.639e-6
-1.333, 3.530e-6
-1.334, 3.619e-6
-1.335, 3.560e-6
-1.336, 3.708e-6
-1.337, 3.629e-6
-1.338, 3.717e-6
-1.339, 3.757e-6
-1.340, 3.639e-6
-1.341, 3.757e-6
-1.342, 3.757e-6
-1.343, 3.658e-6
-1.344, 3.727e-6
-1.345, 3.619e-6
-1.346, 3.865e-6
-1.347, 3.777e-6
-1.348, 3.846e-6
-1.349, 3.678e-6
-1.350, 3.747e-6
-1.351, 3.915e-6
-1.352, 3.777e-6
-1.353, 3.865e-6
-1.354, 3.826e-6
-1.355, 3.875e-6
-1.356, 4.004e-6
-1.357, 4.033e-6
-1.358, 4.033e-6
-1.359, 3.954e-6
-1.360, 3.895e-6
-1.361, 4.102e-6
-1.362, 3.984e-6
-1.363, 3.994e-6
-1.364, 4.023e-6
-1.365, 4.013e-6
-1.366, 4.122e-6
-1.367, 3.964e-6
-1.368, 4.073e-6
-1.369, 4.013e-6
-1.370, 4.152e-6
-1.371, 4.270e-6
-1.372, 4.102e-6
-1.373, 4.181e-6
-1.374, 4.073e-6
-1.375, 4.112e-6
-1.376, 4.339e-6
-1.377, 4.201e-6
-1.378, 4.122e-6
-1.379, 4.240e-6
-1.380, 4.250e-6
-1.381, 4.280e-6
-1.382, 4.221e-6
-1.383, 4.388e-6
-1.384, 4.379e-6
-1.385, 4.290e-6
-1.386, 4.388e-6
-1.387, 4.319e-6
-1.388, 4.359e-6
-1.389, 4.556e-6
-1.390, 4.467e-6
-1.391, 4.576e-6
-1.392, 4.487e-6
-1.393, 4.556e-6
-1.394, 4.526e-6
-1.395, 4.507e-6
-1.396, 4.665e-6
-1.397, 4.467e-6
-1.398, 4.507e-6
-1.399, 4.615e-6
-1.400, 4.517e-6
-1.401, 4.714e-6
-1.402, 4.645e-6
-1.403, 4.724e-6
-1.404, 4.803e-6
-1.405, 4.576e-6
-1.406, 4.813e-6
-1.407, 4.566e-6
-1.408, 4.852e-6
-1.409, 4.862e-6
-1.410, 4.793e-6
-1.411, 4.931e-6
-1.412, 4.832e-6
-1.413, 4.882e-6
-1.414, 4.901e-6
-1.415, 4.862e-6
-1.416, 5.079e-6
-1.417, 4.803e-6
-1.418, 5.049e-6
-1.419, 5.030e-6
-1.420, 5.040e-6
-1.421, 5.217e-6
-1.422, 5.138e-6
-1.423, 5.030e-6
-1.424, 5.128e-6
-1.425, 5.059e-6
-1.426, 5.237e-6
-1.427, 5.178e-6
-1.428, 5.296e-6
-1.429, 5.286e-6
-1.430, 5.414e-6
-1.431, 5.483e-6
-1.432, 5.316e-6
-1.433, 5.326e-6
-1.434, 5.434e-6
-1.435, 5.355e-6
-1.436, 5.533e-6
-1.437, 5.543e-6
-1.438, 5.602e-6
-1.439, 5.641e-6
-1.440, 5.651e-6
-1.441, 5.691e-6
-1.442, 5.691e-6
-1.443, 5.789e-6
-1.444, 5.849e-6
-1.445, 5.730e-6
-1.446, 5.809e-6
-1.447, 5.750e-6
-1.448, 5.888e-6
-1.449, 5.809e-6
-1.450, 6.006e-6
-1.451, 6.095e-6
-1.452, 5.937e-6
-1.453, 6.056e-6
-1.454, 6.016e-6
-1.455, 6.085e-6
-1.456, 6.085e-6
-1.457, 6.006e-6
-1.458, 6.145e-6
-1.459, 6.164e-6
-1.460, 6.293e-6
-1.461, 6.352e-6
-1.462, 6.283e-6
-1.463, 6.204e-6
-1.464, 6.223e-6
-1.465, 6.480e-6
-1.466, 6.510e-6
-1.467, 6.510e-6
-1.468, 6.440e-6
-1.469, 6.440e-6
-1.470, 6.490e-6
-1.471, 6.648e-6
-1.472, 6.677e-6
-1.473, 6.825e-6
-1.474, 6.815e-6
-1.475, 6.884e-6
-1.476, 6.924e-6
-1.477, 6.835e-6
-1.478, 7.052e-6
-1.479, 7.013e-6
-1.480, 7.023e-6
-1.481, 7.013e-6
-1.482, 7.032e-6
-1.483, 7.121e-6
-1.484, 7.102e-6
-1.485, 7.378e-6
-1.486, 7.358e-6
-1.487, 7.486e-6
-1.488, 7.388e-6
-1.489, 7.516e-6
-1.490, 7.526e-6
-1.491, 7.693e-6
-1.492, 7.496e-6
-1.493, 7.664e-6
-1.494, 7.713e-6
-1.495, 7.743e-6
-1.496, 7.930e-6
-1.497, 7.881e-6
-1.498, 7.999e-6
-1.499, 8.177e-6
-1.500, 8.108e-6
-1.501, 8.157e-6
-1.502, 8.137e-6
-1.503, 8.335e-6
-1.504, 8.256e-6
-1.505, 8.443e-6
-1.506, 8.483e-6
-1.507, 8.572e-6
-1.508, 8.749e-6
-1.509, 8.798e-6
-1.510, 8.729e-6
-1.511, 8.937e-6
-1.512, 8.818e-6
-1.513, 8.907e-6
-1.514, 9.104e-6
-1.515, 9.292e-6
-1.516, 9.302e-6
-1.517, 9.420e-6
-1.518, 9.509e-6
-1.519, 9.479e-6
-1.520, 9.647e-6
-1.521, 9.736e-6
-1.522, 9.677e-6
-1.523, 9.785e-6
-1.524, 9.953e-6
-1.525, 1.003e-5
-1.526, 1.010e-5
-1.527, 1.025e-5
-1.528, 1.028e-5
-1.529, 1.055e-5
-1.530, 1.057e-5
-1.531, 1.069e-5
-1.532, 1.058e-5
-1.533, 1.072e-5
-1.534, 1.091e-5
-1.535, 1.100e-5
-1.536, 1.131e-5
-1.537, 1.126e-5
-1.538, 1.141e-5
-1.539, 1.156e-5
-1.540, 1.169e-5
-1.541, 1.183e-5
-1.542, 1.197e-5
-1.543, 1.207e-5
-1.544, 1.206e-5
-1.545, 1.225e-5
-1.546, 1.252e-5
-1.547, 1.265e-5
-1.548, 1.281e-5
-1.549, 1.285e-5
-1.550, 1.303e-5
-1.551, 1.334e-5
-1.552, 1.343e-5
-1.553, 1.347e-5
-1.554, 1.371e-5
-1.555, 1.391e-5
-1.556, 1.419e-5
-1.557, 1.409e-5
-1.558, 1.436e-5
-1.559, 1.454e-5
-1.560, 1.469e-5
-1.561, 1.484e-5
-1.562, 1.519e-5
-1.563, 1.529e-5
-1.564, 1.540e-5
-1.565, 1.572e-5
-1.566, 1.601e-5
-1.567, 1.612e-5
-1.568, 1.633e-5
-1.569, 1.661e-5
-1.570, 1.689e-5
-1.571, 1.696e-5
-1.572, 1.712e-5
-1.573, 1.748e-5
-1.574, 1.769e-5
-1.575, 1.798e-5
-1.576, 1.824e-5
-1.577, 1.840e-5
-1.578, 1.864e-5
-1.579, 1.895e-5
-1.580, 1.915e-5
-1.581, 1.957e-5
-1.582, 1.988e-5
-1.583, 2.009e-5
-1.584, 2.043e-5
-1.585, 2.066e-5
-1.586, 2.109e-5
-1.587, 2.138e-5
-1.588, 2.173e-5
-1.589, 2.188e-5
-1.590, 2.235e-5
-1.591, 2.273e-5
-1.592, 2.303e-5
-1.593, 2.332e-5
-1.594, 2.362e-5
-1.595, 2.416e-5
-1.596, 2.455e-5
-1.597, 2.470e-5
-1.598, 2.529e-5
-1.599, 2.562e-5
-1.600, 2.612e-5
-1.601, 2.666e-5
-1.602, 2.709e-5
-1.603, 2.746e-5
-1.604, 2.795e-5
-1.605, 2.834e-5
-1.606, 2.869e-5
-1.607, 2.927e-5
-1.608, 2.963e-5
-1.609, 3.012e-5
-1.610, 3.083e-5
-1.611, 3.121e-5
-1.612, 3.190e-5
-1.613, 3.243e-5
-1.614, 3.306e-5
-1.615, 3.358e-5
-1.616, 3.409e-5
-1.617, 3.456e-5
-1.618, 3.519e-5
-1.619, 3.579e-5
-1.620, 3.654e-5
-1.621, 3.735e-5
-1.622, 3.791e-5
-1.623, 3.852e-5
-1.624, 3.932e-5
-1.625, 3.996e-5
-1.626, 4.070e-5
-1.627, 4.122e-5
-1.628, 4.196e-5
-1.629, 4.278e-5
-1.630, 4.362e-5
-1.631, 4.451e-5
-1.632, 4.526e-5
-1.633, 4.637e-5
-1.634, 4.710e-5
-1.635, 4.785e-5
-1.636, 4.870e-5
-1.637, 4.975e-5
-1.638, 5.074e-5
-1.639, 5.180e-5
-1.640, 5.271e-5
-1.641, 5.395e-5
-1.642, 5.497e-5
-1.643, 5.597e-5
-1.644, 5.697e-5
-1.645, 5.812e-5
-1.646, 5.920e-5
-1.647, 6.023e-5
-1.648, 6.150e-5
-1.649, 6.257e-5
-1.650, 6.375e-5
-1.651, 6.502e-5
-1.652, 6.625e-5
-1.653, 6.761e-5
-1.654, 6.879e-5
-1.655, 7.023e-5
-1.656, 7.169e-5
-1.657, 7.302e-5
-1.658, 7.447e-5
-1.659, 7.594e-5
-1.660, 7.739e-5
-1.661, 7.892e-5
-1.662, 8.048e-5
-1.663, 8.192e-5
-1.664, 8.366e-5
-1.665, 8.547e-5
-1.666, 8.706e-5
-1.667, 8.882e-5
-1.668, 9.079e-5
-1.669, 9.231e-5
-1.670, 9.423e-5
-1.671, 9.595e-5
-1.672, 9.801e-5
-1.673, 9.992e-5
-1.674, 1.020e-4
-1.675, 1.040e-4
-1.676, 1.062e-4
-1.677, 1.085e-4
-1.678, 1.106e-4
-1.679, 1.127e-4
-1.680, 1.151e-4
-1.681, 1.177e-4
-1.682, 1.198e-4
-1.683, 1.226e-4
-1.684, 1.249e-4
-1.685, 1.276e-4
-1.686, 1.303e-4
-1.687, 1.329e-4
-1.688, 1.359e-4
-1.689, 1.387e-4
-1.690, 1.415e-4
-1.691, 1.444e-4
-1.692, 1.472e-4
-1.693, 1.503e-4
-1.694, 1.533e-4
-1.695, 1.566e-4
-1.696, 1.599e-4
-1.697, 1.632e-4
-1.698, 1.669e-4
-1.699, 1.704e-4
-1.700, 1.738e-4
-1.701, 1.776e-4
-1.702, 1.812e-4
-1.703, 1.852e-4
-1.704, 1.890e-4
-1.705, 1.933e-4
-1.706, 1.975e-4
-1.707, 2.014e-4
-1.708, 2.060e-4
-1.709, 2.100e-4
-1.710, 2.146e-4
-1.711, 2.189e-4
-1.712, 2.238e-4
-1.713, 2.285e-4
-1.714, 2.333e-4
-1.715, 2.386e-4
-1.716, 2.437e-4
-1.717, 2.487e-4
-1.718, 2.544e-4
-1.719, 2.595e-4
-1.720, 2.648e-4
-1.721, 2.707e-4
-1.722, 2.764e-4
-1.723, 2.828e-4
-1.724, 2.882e-4
-1.725, 2.947e-4
-1.726, 3.007e-4
-1.727, 3.069e-4
-1.728, 3.139e-4
-1.729, 3.207e-4
-1.730, 3.275e-4
-1.731, 3.348e-4
-1.732, 3.420e-4
-1.733, 3.495e-4
-1.734, 3.570e-4
-1.735, 3.650e-4
-1.736, 3.730e-4
-1.737, 3.807e-4
-1.738, 3.889e-4
-1.739, 3.971e-4
-1.740, 4.057e-4
-1.741, 4.144e-4
-1.742, 4.236e-4
-1.743, 4.325e-4
-1.744, 4.417e-4
-1.745, 4.517e-4
-1.746, 4.618e-4
-1.747, 4.716e-4
-1.748, 4.822e-4
-1.749, 4.925e-4
-1.750, 5.032e-4
-1.751, 5.141e-4
-1.752, 5.251e-4
-1.753, 5.368e-4
-1.754, 5.486e-4
-1.755, 5.609e-4
-1.756, 5.729e-4
-1.757, 5.855e-4
-1.758, 5.977e-4
-1.759, 6.106e-4
-1.760, 6.244e-4
-1.761, 6.375e-4
-1.762, 6.516e-4
-1.763, 6.656e-4
-1.764, 6.804e-4
-1.765, 6.950e-4
-1.766, 7.103e-4
-1.767, 7.256e-4
-1.768, 7.411e-4
-1.769, 7.570e-4
-1.770, 7.743e-4
-1.771, 7.907e-4
-1.772, 8.071e-4
-1.773, 8.249e-4
-1.774, 8.422e-4
-1.775, 8.604e-4
-1.776, 8.792e-4
-1.777, 8.973e-4
-1.778, 9.161e-4
-1.779, 9.360e-4
-1.780, 9.561e-4
-1.781, 9.758e-4
-1.782, 9.960e-4
-1.783, 1.017e-3
-1.784, 1.037e-3
-1.785, 1.059e-3
-1.786, 1.081e-3
-1.787, 1.102e-3
-1.788, 1.125e-3
-1.789, 1.147e-3
-1.790, 1.170e-3
-1.791, 1.193e-3
-1.792, 1.216e-3
-1.793, 1.239e-3
-1.794, 1.262e-3
-1.795, 1.288e-3
-1.796, 1.313e-3
-1.797, 1.337e-3
-1.798, 1.362e-3
-1.799, 1.388e-3
-1.800, 1.414e-3
-1.801, 1.440e-3
-1.802, 1.466e-3
-1.803, 1.493e-3
-1.804, 1.521e-3
-1.805, 1.549e-3
-1.806, 1.576e-3
-1.807, 1.606e-3
-1.808, 1.635e-3
-1.809, 1.665e-3
-1.810, 1.694e-3
-1.811, 1.724e-3
-1.812, 1.753e-3
-1.813, 1.784e-3
-1.814, 1.814e-3
-1.815, 1.846e-3
-1.816, 1.878e-3
-1.817, 1.910e-3
-1.818, 1.943e-3
-1.819, 1.976e-3
-1.820, 2.008e-3
-1.821, 2.042e-3
-1.822, 2.076e-3
-1.823, 2.111e-3
-1.824, 2.145e-3
-1.825, 2.180e-3
-1.826, 2.215e-3
-1.827, 2.251e-3
-1.828, 2.288e-3
-1.829, 2.324e-3
-1.830, 2.360e-3
-1.831, 2.398e-3
-1.832, 2.436e-3
-1.833, 2.474e-3
-1.834, 2.513e-3
-1.835, 2.551e-3
-1.836, 2.590e-3
-1.837, 2.629e-3
-1.838, 2.669e-3
-1.839, 2.709e-3
-1.840, 2.749e-3
-1.841, 2.789e-3
-1.842, 2.830e-3
-1.843, 2.871e-3
-1.844, 2.913e-3
-1.845, 2.956e-3
-1.846, 2.997e-3
-1.847, 3.040e-3
-1.848, 3.082e-3
-1.849, 3.126e-3
-1.850, 3.169e-3
-1.851, 3.214e-3
-1.852, 3.258e-3
-1.853, 3.303e-3
-1.854, 3.347e-3
-1.855, 3.392e-3
-1.856, 3.437e-3
-1.857, 3.483e-3
-1.858, 3.529e-3
-1.859, 3.574e-3
-1.860, 3.621e-3
-1.861, 3.667e-3
-1.862, 3.714e-3
-1.863, 3.761e-3
-1.864, 3.808e-3
-1.865, 3.857e-3
-1.866, 3.904e-3
-1.867, 3.951e-3
-1.868, 4.000e-3
-1.869, 4.050e-3
-1.870, 4.098e-3
-1.871, 4.145e-3
-1.872, 4.193e-3
-1.873, 4.244e-3
-1.874, 4.294e-3
-1.875, 4.345e-3
-1.876, 4.396e-3
-1.877, 4.445e-3
-1.878, 4.496e-3
-1.879, 4.549e-3
-1.880, 4.600e-3
-1.881, 4.652e-3
-1.882, 4.705e-3
-1.883, 4.758e-3
-1.884, 4.811e-3
-1.885, 4.864e-3
-1.886, 4.918e-3
-1.887, 4.973e-3
-1.888, 5.029e-3
-1.889, 5.087e-3
-1.890, 5.144e-3
-1.891, 5.203e-3
-1.892, 5.262e-3
-1.893, 5.320e-3
-1.894, 5.377e-3
-1.895, 5.434e-3
-1.896, 5.492e-3
-1.897, 5.549e-3
-1.898, 5.609e-3
-1.899, 5.666e-3
-1.900, 5.684e-3
-1.899, 5.651e-3
-1.898, 5.614e-3
-1.897, 5.576e-3
-1.896, 5.536e-3
-1.895, 5.496e-3
-1.894, 5.455e-3
-1.893, 5.414e-3
-1.892, 5.373e-3
-1.891, 5.330e-3
-1.890, 5.287e-3
-1.889, 5.244e-3
-1.888, 5.201e-3
-1.887, 5.158e-3
-1.886, 5.116e-3
-1.885, 5.072e-3
-1.884, 5.028e-3
-1.883, 4.985e-3
-1.882, 4.943e-3
-1.881, 4.898e-3
-1.880, 4.855e-3
-1.879, 4.812e-3
-1.878, 4.767e-3
-1.877, 4.725e-3
-1.876, 4.681e-3
-1.875, 4.638e-3
-1.874, 4.593e-3
-1.873, 4.551e-3
-1.872, 4.508e-3
-1.871, 4.465e-3
-1.870, 4.422e-3
-1.869, 4.380e-3
-1.868, 4.337e-3
-1.867, 4.297e-3
-1.866, 4.254e-3
-1.865, 4.211e-3
-1.864, 4.170e-3
-1.863, 4.128e-3
-1.862, 4.086e-3
-1.861, 4.045e-3
-1.860, 4.004e-3
-1.859, 3.963e-3
-1.858, 3.922e-3
-1.857, 3.881e-3
-1.856, 3.840e-3
-1.855, 3.800e-3
-1.854, 3.760e-3
-1.853, 3.719e-3
-1.852, 3.681e-3
-1.851, 3.642e-3
-1.850, 3.603e-3
-1.849, 3.564e-3
-1.848, 3.524e-3
-1.847, 3.486e-3
-1.846, 3.448e-3
-1.845, 3.410e-3
-1.844, 3.372e-3
-1.843, 3.334e-3
-1.842, 3.297e-3
-1.841, 3.259e-3
-1.840, 3.222e-3
-1.839, 3.185e-3
-1.838, 3.148e-3
-1.837, 3.113e-3
-1.836, 3.076e-3
-1.835, 3.041e-3
-1.834, 3.005e-3
-1.833, 2.970e-3
-1.832, 2.936e-3
-1.831, 2.901e-3
-1.830, 2.867e-3
-1.829, 2.833e-3
-1.828, 2.799e-3
-1.827, 2.765e-3
-1.826, 2.732e-3
-1.825, 2.699e-3
-1.824, 2.666e-3
-1.823, 2.634e-3
-1.822, 2.603e-3
-1.821, 2.570e-3
-1.820, 2.538e-3
-1.819, 2.507e-3
-1.818, 2.476e-3
-1.817, 2.443e-3
-1.816, 2.413e-3
-1.815, 2.382e-3
-1.814, 2.352e-3
-1.813, 2.322e-3
-1.812, 2.293e-3
-1.811, 2.263e-3
-1.810, 2.234e-3
-1.809, 2.205e-3
-1.808, 2.176e-3
-1.807, 2.149e-3
-1.806, 2.122e-3
-1.805, 2.094e-3
-1.804, 2.066e-3
-1.803, 2.039e-3
-1.802, 2.012e-3
-1.801, 1.986e-3
-1.800, 1.960e-3
-1.799, 1.933e-3
-1.798, 1.907e-3
-1.797, 1.881e-3
-1.796, 1.855e-3
-1.795, 1.830e-3
-1.794, 1.806e-3
-1.793, 1.780e-3
-1.792, 1.756e-3
-1.791, 1.731e-3
-1.790, 1.707e-3
-1.789, 1.684e-3
-1.788, 1.660e-3
-1.787, 1.637e-3
-1.786, 1.614e-3
-1.785, 1.590e-3
-1.784, 1.568e-3
-1.783, 1.546e-3
-1.782, 1.523e-3
-1.781, 1.501e-3
-1.780, 1.480e-3
-1.779, 1.459e-3
-1.778, 1.437e-3
-1.777, 1.418e-3
-1.776, 1.397e-3
-1.775, 1.377e-3
-1.774, 1.357e-3
-1.773, 1.336e-3
-1.772, 1.317e-3
-1.771, 1.297e-3
-1.770, 1.278e-3
-1.769, 1.259e-3
-1.768, 1.240e-3
-1.767, 1.222e-3
-1.766, 1.204e-3
-1.765, 1.187e-3
-1.764, 1.169e-3
-1.763, 1.152e-3
-1.762, 1.135e-3
-1.761, 1.117e-3
-1.760, 1.101e-3
-1.759, 1.084e-3
-1.758, 1.068e-3
-1.757, 1.051e-3
-1.756, 1.035e-3
-1.755, 1.019e-3
-1.754, 1.003e-3
-1.753, 9.878e-4
-1.752, 9.731e-4
-1.751, 9.582e-4
-1.750, 9.424e-4
-1.749, 9.281e-4
-1.748, 9.131e-4
-1.747, 8.988e-4
-1.746, 8.852e-4
-1.745, 8.710e-4
-1.744, 8.573e-4
-1.743, 8.434e-4
-1.742, 8.299e-4
-1.741, 8.167e-4
-1.740, 8.036e-4
-1.739, 7.910e-4
-1.738, 7.777e-4
-1.737, 7.653e-4
-1.736, 7.533e-4
-1.735, 7.412e-4
-1.734, 7.291e-4
-1.733, 7.170e-4
-1.732, 7.059e-4
-1.731, 6.944e-4
-1.730, 6.832e-4
-1.729, 6.717e-4
-1.728, 6.609e-4
-1.727, 6.499e-4
-1.726, 6.394e-4
-1.725, 6.288e-4
-1.724, 6.187e-4
-1.723, 6.082e-4
-1.722, 5.991e-4
-1.721, 5.888e-4
-1.720, 5.789e-4
-1.719, 5.694e-4
-1.718, 5.599e-4
-1.717, 5.507e-4
-1.716, 5.416e-4
-1.715, 5.323e-4
-1.714, 5.234e-4
-1.713, 5.145e-4
-1.712, 5.062e-4
-1.711, 4.976e-4
-1.710, 4.892e-4
-1.709, 4.812e-4
-1.708, 4.730e-4
-1.707, 4.649e-4
-1.706, 4.571e-4
-1.705, 4.500e-4
-1.704, 4.426e-4
-1.703, 4.350e-4
-1.702, 4.276e-4
-1.701, 4.204e-4
-1.700, 4.133e-4
-1.699, 4.064e-4
-1.698, 3.993e-4
-1.697, 3.929e-4
-1.696, 3.858e-4
-1.695, 3.794e-4
-1.694, 3.729e-4
-1.693, 3.667e-4
-1.692, 3.606e-4
-1.691, 3.540e-4
-1.690, 3.479e-4
-1.689, 3.421e-4
-1.688, 3.359e-4
-1.687, 3.302e-4
-1.686, 3.243e-4
-1.685, 3.189e-4
-1.684, 3.135e-4
-1.683, 3.079e-4
-1.682, 3.026e-4
-1.681, 2.974e-4
-1.680, 2.924e-4
-1.679, 2.870e-4
-1.678, 2.821e-4
-1.677, 2.773e-4
-1.676, 2.727e-4
-1.675, 2.681e-4
-1.674, 2.628e-4
-1.673, 2.583e-4
-1.672, 2.543e-4
-1.671, 2.500e-4
-1.670, 2.455e-4
-1.669, 2.415e-4
-1.668, 2.373e-4
-1.667, 2.331e-4
-1.666, 2.295e-4
-1.665, 2.254e-4
-1.664, 2.214e-4
-1.663, 2.174e-4
-1.662, 2.138e-4
-1.661, 2.102e-4
-1.660, 2.064e-4
-1.659, 2.028e-4
-1.658, 1.993e-4
-1.657, 1.960e-4
-1.656, 1.925e-4
-1.655, 1.893e-4
-1.654, 1.856e-4
-1.653, 1.825e-4
-1.652, 1.793e-4
-1.651, 1.762e-4
-1.650, 1.734e-4
-1.649, 1.702e-4
-1.648, 1.670e-4
-1.647, 1.644e-4
-1.646, 1.616e-4
-1.645, 1.588e-4
-1.644, 1.557e-4
-1.643, 1.528e-4
-1.642, 1.503e-4
-1.641, 1.480e-4
-1.640, 1.453e-4
-1.639, 1.427e-4
-1.638, 1.398e-4
-1.637, 1.376e-4
-1.636, 1.353e-4
-1.635, 1.328e-4
-1.634, 1.306e-4
-1.633, 1.283e-4
-1.632, 1.260e-4
-1.631, 1.238e-4
-1.630, 1.217e-4
-1.629, 1.193e-4
-1.628, 1.175e-4
-1.627, 1.153e-4
-1.626, 1.132e-4
-1.625, 1.113e-4
-1.624, 1.094e-4
-1.623, 1.074e-4
-1.622, 1.055e-4
-1.621, 1.040e-4
-1.620, 1.020e-4
-1.619, 9.994e-5
-1.618, 9.830e-5
-1.617, 9.660e-5
-1.616, 9.483e-5
-1.615, 9.316e-5
-1.614, 9.156e-5
-1.613, 9.001e-5
-1.612, 8.827e-5
-1.611, 8.682e-5
-1.610, 8.521e-5
-1.609, 8.353e-5
-1.608, 8.219e-5
-1.607, 8.071e-5
-1.606, 7.937e-5
-1.605, 7.796e-5
-1.604, 7.654e-5
-1.603, 7.505e-5
-1.602, 7.376e-5
-1.601, 7.241e-5
-1.600, 7.112e-5
-1.599, 6.993e-5
-1.598, 6.839e-5
-1.597, 6.720e-5
-1.596, 6.600e-5
-1.595, 6.488e-5
-1.594, 6.377e-5
-1.593, 6.255e-5
-1.592, 6.138e-5
-1.591, 6.050e-5
-1.590, 5.918e-5
-1.589, 5.830e-5
-1.588, 5.713e-5
-1.587, 5.590e-5
-1.586, 5.496e-5
-1.585, 5.403e-5
-1.584, 5.321e-5
-1.583, 5.204e-5
-1.582, 5.106e-5
-1.581, 5.023e-5
-1.580, 4.918e-5
-1.579, 4.838e-5
-1.578, 4.752e-5
-1.577, 4.669e-5
-1.576, 4.580e-5
-1.575, 4.479e-5
-1.574, 4.369e-5
-1.573, 4.308e-5
-1.572, 4.221e-5
-1.571, 4.151e-5
-1.570, 4.069e-5
-1.569, 3.993e-5
-1.568, 3.920e-5
-1.567, 3.842e-5
-1.566, 3.781e-5
-1.565, 3.682e-5
-1.564, 3.628e-5
-1.563, 3.562e-5
-1.562, 3.488e-5
-1.561, 3.426e-5
-1.560, 3.363e-5
-1.559, 3.292e-5
-1.558, 3.233e-5
-1.557, 3.178e-5
-1.556, 3.115e-5
-1.555, 3.045e-5
-1.554, 2.993e-5
-1.553, 2.936e-5
-1.552, 2.885e-5
-1.551, 2.863e-5
-1.550, 2.789e-5
-1.549, 2.728e-5
-1.548, 2.677e-5
-1.547, 2.630e-5
-1.546, 2.584e-5
-1.545, 2.523e-5
-1.544, 2.498e-5
-1.543, 2.424e-5
-1.542, 2.392e-5
-1.541, 2.351e-5
-1.540, 2.293e-5
-1.539, 2.246e-5
-1.538, 2.204e-5
-1.537, 2.154e-5
-1.536, 2.119e-5
-1.535, 2.076e-5
-1.534, 2.034e-5
-1.533, 1.990e-5
-1.532, 1.949e-5
-1.531, 1.920e-5
-1.530, 1.875e-5
-1.529, 1.836e-5
-1.528, 1.801e-5
-1.527, 1.759e-5
-1.526, 1.737e-5
-1.525, 1.706e-5
-1.524, 1.653e-5
-1.523, 1.622e-5
-1.522, 1.593e-5
-1.521, 1.563e-5
-1.520, 1.529e-5
-1.519, 1.484e-5
-1.518, 1.455e-5
-1.517, 1.425e-5
-1.516, 1.416e-5
-1.515, 1.381e-5
-1.514, 1.341e-5
-1.513, 1.320e-5
-1.512, 1.303e-5
-1.511, 1.279e-5
-1.510, 1.243e-5
-1.509, 1.224e-5
-1.508, 1.193e-5
-1.507, 1.150e-5
-1.506, 1.153e-5
-1.505, 1.111e-5
-1.504, 1.093e-5
-1.503, 1.081e-5
-1.502, 1.047e-5
-1.501, 1.044e-5
-1.500, 1.012e-5
-1.499, 9.864e-6
-1.498, 9.607e-6
-1.497, 9.282e-6
-1.496, 9.262e-6
-1.495, 9.006e-6
-1.494, 8.956e-6
-1.493, 8.720e-6
-1.492, 8.463e-6
-1.491, 8.424e-6
-1.490, 8.088e-6
-1.489, 8.009e-6
-1.488, 7.812e-6
-1.487, 7.605e-6
-1.486, 7.526e-6
-1.485, 7.319e-6
-1.484, 7.190e-6
-1.483, 6.983e-6
-1.482, 6.786e-6
-1.481, 6.717e-6
-1.480, 6.510e-6
-1.479, 6.332e-6
-1.478, 6.233e-6
-1.477, 6.125e-6
-1.476, 6.115e-6
-1.475, 5.878e-6
-1.474, 5.661e-6
-1.473, 5.582e-6
-1.472, 5.493e-6
-1.471, 5.405e-6
-1.470, 5.197e-6
-1.469, 5.197e-6
-1.468, 5.040e-6
-1.467, 4.892e-6
-1.466, 4.852e-6
-1.465, 4.665e-6
-1.464, 4.536e-6
-1.463, 4.526e-6
-1.462, 4.359e-6
-1.461, 4.408e-6
-1.460, 4.171e-6
-1.459, 4.102e-6
-1.458, 3.865e-6
-1.457, 3.875e-6
-1.456, 3.836e-6
-1.455, 3.550e-6
-1.454, 3.520e-6
-1.453, 3.461e-6
-1.452, 3.441e-6
-1.451, 3.422e-6
-1.450, 3.254e-6
-1.449, 3.274e-6
-1.448, 3.116e-6
-1.447, 3.047e-6
-1.446, 2.908e-6
-1.445, 2.622e-6
-1.444, 2.711e-6
-1.443, 2.613e-6
-1.442, 2.662e-6
-1.441, 2.652e-6
-1.440, 2.474e-6
-1.439, 2.474e-6
-1.438, 2.257e-6
-1.437, 2.247e-6
-1.436, 2.405e-6
-1.435, 2.139e-6
-1.434, 2.040e-6
-1.433, 1.784e-6
-1.432, 2.011e-6
-1.431, 1.951e-6
-1.430, 1.754e-6
-1.429, 1.823e-6
-1.428, 1.813e-6
-1.427, 1.626e-6
-1.426, 1.567e-6
-1.425, 1.419e-6
-1.424, 1.409e-6
-1.423, 1.488e-6
-1.422, 1.389e-6
-1.421, 1.468e-6
-1.420, 1.281e-6
-1.419, 1.429e-6
-1.418, 1.103e-6
-1.417, 1.142e-6
-1.416, 1.281e-6
-1.415, 1.014e-6
-1.414, 9.945e-7
-1.413, 9.748e-7
-1.412, 8.465e-7
-1.411, 9.156e-7
-1.410, 8.268e-7
-1.409, 9.846e-7
-1.408, 8.268e-7
-1.407, 7.774e-7
-1.406, 7.972e-7
-1.405, 7.577e-7
-1.404, 7.873e-7
-1.403, 5.012e-7
-1.402, 6.097e-7
-1.401, 5.407e-7
-1.400, 4.519e-7
-1.399, 4.716e-7
-1.398, 5.012e-7
-1.397, 5.209e-7
-1.396, 4.420e-7
-1.395, 3.236e-7
-1.394, 3.137e-7
-1.393, 2.743e-7
-1.392, 2.743e-7
-1.391, 3.729e-7
-1.390, 2.151e-7
-1.389, 1.362e-7
-1.388, 2.348e-7
-1.387, 1.855e-7
-1.386, 3.729e-7
-1.385, 2.052e-7
-1.384, 1.559e-7
-1.383, 7.893e-9
-1.382, -1.973e-9
-1.381, -1.184e-8
-1.380, -1.006e-7
-1.379, -2.171e-8
-1.378, -4.144e-8
-1.377, -6.117e-8
-1.376, 4.736e-8
-1.375, -7.103e-8
-1.374, -1.105e-7
-1.373, -2.171e-8
-1.372, -1.500e-7
-1.371, 6.709e-8
-1.370, -2.092e-7
-1.369, -4.163e-7
-1.368, -2.881e-7
-1.367, -1.598e-7
-1.366, -1.500e-7
-1.365, -2.881e-7
-1.364, -2.092e-7
-1.363, -3.966e-7
-1.362, -3.177e-7
-1.361, -3.177e-7
-1.360, -3.769e-7
-1.359, -3.078e-7
-1.358, -4.065e-7
-1.357, -2.388e-7
-1.356, -2.388e-7
-1.355, -5.150e-7
-1.354, -4.163e-7
-1.353, -4.262e-7
-1.352, -4.163e-7
-1.351, -3.177e-7
-1.350, -5.939e-7
-1.349, -4.262e-7
-1.348, -5.643e-7
-1.347, -4.657e-7
-1.346, -4.065e-7
-1.345, -4.854e-7
-1.344, -5.446e-7
-1.343, -5.446e-7
-1.342, -6.137e-7
-1.341, -4.657e-7
-1.340, -6.038e-7
-1.339, -5.051e-7
-1.338, -6.334e-7
-1.337, -5.939e-7
-1.336, -4.755e-7
-1.335, -6.729e-7
-1.334, -6.531e-7
-1.333, -5.841e-7
-1.332, -7.025e-7
-1.331, -5.939e-7
-1.330, -8.011e-7
-1.329, -5.841e-7
-1.328, -7.419e-7
-1.327, -6.729e-7
-1.326, -7.025e-7
-1.325, -7.123e-7
-1.324, -6.729e-7
-1.323, -6.926e-7
-1.322, -7.715e-7
-1.321, -7.419e-7
-1.320, -6.729e-7
-1.319, -8.011e-7
-1.318, -7.715e-7
-1.317, -8.702e-7
-1.316, -6.137e-7
-1.315, -8.603e-7
-1.314, -7.814e-7
-1.313, -7.419e-7
-1.312, -8.208e-7
-1.311, -8.011e-7
-1.310, -8.899e-7
-1.309, -8.702e-7
-1.308, -8.011e-7
-1.307, -8.110e-7
-1.306, -8.110e-7
-1.305, -9.392e-7
-1.304, -9.590e-7
-1.303, -8.998e-7
-1.302, -8.998e-7
-1.301, -7.518e-7
-1.300, -8.800e-7
-1.299, -9.886e-7
-1.298, -8.406e-7
-1.297, -8.800e-7
-1.296, -7.518e-7
-1.295, -9.392e-7
-1.294, -8.208e-7
-1.293, -9.392e-7
-1.292, -8.702e-7
-1.291, -8.406e-7
-1.290, -8.800e-7
-1.289, -9.294e-7
-1.288, -1.008e-6
-1.287, -9.984e-7
-1.286, -8.603e-7
-1.285, -1.087e-6
-1.284, -9.491e-7
-1.283, -9.392e-7
-1.282, -8.899e-7
-1.281, -8.998e-7
-1.280, -1.058e-6
-1.279, -1.097e-6
-1.278, -1.048e-6
-1.277, -8.504e-7
-1.276, -9.491e-7
-1.275, -1.048e-6
-1.274, -1.028e-6
-1.273, -8.800e-7
-1.272, -9.590e-7
-1.271, -8.307e-7
-1.270, -1.018e-6
-1.269, -8.702e-7
-1.268, -1.008e-6
-1.267, -1.107e-6
-1.266, -9.886e-7
-1.265, -1.117e-6
-1.264, -1.067e-6
-1.263, -1.067e-6
-1.262, -1.058e-6
-1.261, -8.603e-7
-1.260, -1.028e-6
-1.259, -1.067e-6
-1.258, -9.984e-7
-1.257, -9.590e-7
-1.256, -9.886e-7
-1.255, -1.127e-6
-1.254, -1.117e-6
-1.253, -1.058e-6
-1.252, -1.127e-6
-1.251, -1.018e-6
-1.250, -1.097e-6
-1.249, -1.028e-6
-1.248, -1.156e-6
-1.247, -1.058e-6
-1.246, -9.787e-7
-1.245, -1.137e-6
-1.244, -1.048e-6
-1.243, -1.097e-6
-1.242, -1.146e-6
-1.241, -9.392e-7
-1.240, -1.137e-6
-1.239, -1.245e-6
-1.238, -1.186e-6
-1.237, -9.688e-7
-1.236, -1.038e-6
-1.235, -1.107e-6
-1.234, -1.127e-6
-1.233, -1.235e-6
-1.232, -1.038e-6
-1.231, -9.392e-7
-1.230, -1.097e-6
-1.229, -1.166e-6
-1.228, -1.176e-6
-1.227, -1.206e-6
-1.226, -1.215e-6
-1.225, -1.363e-6
-1.224, -1.215e-6
-1.223, -1.215e-6
-1.222, -1.146e-6
-1.221, -1.176e-6
-1.220, -1.176e-6
-1.219, -1.186e-6
-1.218, -1.215e-6
-1.217, -1.097e-6
-1.216, -1.117e-6
-1.215, -1.314e-6
-1.214, -1.235e-6
-1.213, -1.235e-6
-1.212, -1.245e-6
-1.211, -1.097e-6
-1.210, -1.166e-6
-1.209, -1.196e-6
-1.208, -1.334e-6
-1.207, -1.255e-6
-1.206, -1.225e-6
-1.205, -1.324e-6
-1.204, -1.215e-6
-1.203, -1.275e-6
-1.202, -1.344e-6
-1.201, -1.156e-6
-1.200, -1.225e-6
-1.199, -1.275e-6
-1.198, -1.285e-6
-1.197, -1.304e-6
-1.196, -1.275e-6
-1.195, -1.383e-6
-1.194, -1.196e-6
-1.193, -1.285e-6
-1.192, -1.166e-6
-1.191, -1.186e-6
-1.190, -1.215e-6
-1.189, -1.354e-6
-1.188, -1.383e-6
-1.187, -1.285e-6
-1.186, -1.363e-6
-1.185, -1.383e-6
-1.184, -1.314e-6
-1.183, -1.324e-6
-1.182, -1.275e-6
-1.181, -1.245e-6
-1.180, -1.245e-6
-1.179, -1.215e-6
-1.178, -1.354e-6
-1.177, -1.314e-6
-1.176, -1.354e-6
-1.175, -1.363e-6
-1.174, -1.383e-6
-1.173, -1.255e-6
-1.172, -1.373e-6
-1.171, -1.196e-6
-1.170, -1.255e-6
-1.169, -1.354e-6
-1.168, -1.304e-6
-1.167, -1.423e-6
-1.166, -1.383e-6
-1.165, -1.462e-6
-1.164, -1.285e-6
-1.163, -1.393e-6
-1.162, -1.334e-6
-1.161, -1.363e-6
-1.160, -1.314e-6
-1.159, -1.294e-6
-1.158, -1.433e-6
-1.157, -1.225e-6
-1.156, -1.354e-6
-1.155, -1.383e-6
-1.154, -1.423e-6
-1.153, -1.403e-6
-1.152, -1.344e-6
-1.151, -1.294e-6
-1.150, -1.314e-6
-1.149, -1.482e-6
-1.148, -1.363e-6
-1.147, -1.354e-6
-1.146, -1.423e-6
-1.145, -1.472e-6
-1.144, -1.433e-6
-1.143, -1.492e-6
-1.142, -1.423e-6
-1.141, -1.304e-6
-1.140, -1.294e-6
-1.139, -1.344e-6
-1.138, -1.482e-6
-1.137, -1.423e-6
-1.136, -1.354e-6
-1.135, -1.363e-6
-1.134, -1.511e-6
-1.133, -1.462e-6
-1.132, -1.551e-6
-1.131, -1.423e-6
-1.130, -1.373e-6
-1.129, -1.423e-6
-1.128, -1.383e-6
-1.127, -1.423e-6
-1.126, -1.413e-6
-1.125, -1.452e-6
-1.124, -1.363e-6
-1.123, -1.502e-6
-1.122, -1.363e-6
-1.121, -1.423e-6
-1.120, -1.541e-6
-1.119, -1.551e-6
-1.118, -1.442e-6
-1.117, -1.472e-6
-1.116, -1.393e-6
-1.115, -1.482e-6
-1.114, -1.650e-6
-1.113, -1.502e-6
-1.112, -1.531e-6
-1.111, -1.354e-6
-1.110, -1.620e-6
-1.109, -1.531e-6
-1.108, -1.511e-6
-1.107, -1.521e-6
-1.106, -1.571e-6
-1.105, -1.630e-6
-1.104, -1.679e-6
-1.103, -1.462e-6
-1.102, -1.482e-6
-1.101, -1.442e-6
-1.100, -1.581e-6
-1.099, -1.620e-6
-1.098, -1.581e-6
-1.097, -1.600e-6
-1.096, -1.393e-6
-1.095, -1.610e-6
-1.094, -1.521e-6
-1.093, -1.590e-6
-1.092, -1.581e-6
-1.091, -1.511e-6
-1.090, -1.581e-6
-1.089, -1.423e-6
-1.088, -1.630e-6
-1.087, -1.640e-6
-1.086, -1.679e-6
-1.085, -1.600e-6
-1.084, -1.571e-6
-1.083, -1.719e-6
-1.082, -1.551e-6
-1.081, -1.541e-6
-1.080, -1.610e-6
-1.079, -1.610e-6
-1.078, -1.758e-6
-1.077, -1.620e-6
-1.076, -1.482e-6
-1.075, -1.738e-6
-1.074, -1.679e-6
-1.073, -1.719e-6
-1.072, -1.719e-6
-1.071, -1.650e-6
-1.070, -1.689e-6
-1.069, -1.748e-6
-1.068, -1.630e-6
-1.067, -1.857e-6
-1.066, -1.719e-6
-1.065, -1.886e-6
-1.064, -1.788e-6
-1.063, -1.748e-6
-1.062, -1.729e-6
-1.061, -1.669e-6
-1.060, -1.738e-6
-1.059, -1.748e-6
-1.058, -1.719e-6
-1.057, -1.689e-6
-1.056, -1.867e-6
-1.055, -1.965e-6
-1.054, -1.857e-6
-1.053, -1.788e-6
-1.052, -1.729e-6
-1.051, -1.689e-6
-1.050, -1.847e-6
-1.049, -1.847e-6
-1.048, -1.926e-6
-1.047, -1.847e-6
-1.046, -1.768e-6
-1.045, -1.906e-6
-1.044, -1.788e-6
-1.043, -1.788e-6
-1.042, -1.738e-6
-1.041, -1.867e-6
-1.040, -1.936e-6
-1.039, -1.906e-6
-1.038, -1.906e-6
-1.037, -1.906e-6
-1.036, -1.886e-6
-1.035, -1.896e-6
-1.034, -1.896e-6
-1.033, -1.926e-6
-1.032, -1.827e-6
-1.031, -1.946e-6
-1.030, -1.965e-6
-1.029, -2.005e-6
-1.028, -2.034e-6
-1.027, -1.916e-6
-1.026, -2.044e-6
-1.025, -1.955e-6
-1.024, -2.133e-6
-1.023, -2.143e-6
-1.022, -2.034e-6
-1.021, -1.975e-6
-1.020, -2.034e-6
-1.019, -2.074e-6
-1.018, -2.084e-6
-1.017, -2.123e-6
-1.016, -2.094e-6
-1.015, -2.054e-6
-1.014, -2.143e-6
-1.013, -2.005e-6
-1.012, -2.044e-6
-1.011, -2.202e-6
-1.010, -2.133e-6
-1.009, -2.172e-6
-1.008, -2.232e-6
-1.007, -2.123e-6
-1.006, -2.163e-6
-1.005, -2.163e-6
-1.004, -2.123e-6
-1.003, -2.103e-6
-1.002, -1.946e-6
-1.001, -2.222e-6
